# kind,background_subtracted
# version_label,v1_poly5
# poly_order,5
# iterations_run,11
pixel_index,raman_shift_cm-1,intensity,background_intensity
0,-226.800,10.323817021257398,85.6761829787426
1,-223.727,11.156231077353013,85.84376892264699
2,-220.655,9.989127953477293,86.0108720465227
3,-217.584,12.822505849344836,86.17749415065516
4,-214.514,7.656362971806857,86.34363702819314
5,-211.445,11.490697534836116,86.50930246516388
6,-208.378,9.325507759511922,86.67449224048808
7,-205.312,9.160791874004957,86.83920812599504
8,-202.247,7.996548113562326,87.00345188643767
9,-199.183,7.832774720492466,87.16722527950753
10,-196.121,9.669469944150052,87.33053005584995
11,-193.059,9.506632040920948,87.49336795907905
12,-189.999,7.344259274207232,87.65574072579277
13,-186.941,10.182349914411986,87.81765008558801
14,-183.883,9.020902238924378,87.97909776107562
15,-180.826,8.859914532104526,88.14008546789547
16,-177.771,8.699385085268446,88.30061491473155
17,-174.717,7.539312196673038,88.46068780332696
18,-171.664,9.379694171500958,88.62030582849904
19,-168.613,7.220529321845618,88.77947067815438
20,-165.562,7.061815966696102,88.9381840333039
21,-162.513,7.903552431922108,89.09644756807789
22,-159.465,8.745737050258882,89.25426294974112
23,-156.418,7.5883681612921805,89.41163183870782
24,-153.373,5.431444111443199,89.5685558885568
25,-150.328,7.274963253953501,89.7250367460465
26,-147.285,6.118923948869991,89.88107605113001
27,-144.243,8.963324563029829,90.03667543697017
28,-141.202,6.808163470045358,90.19183652995464
29,-138.163,7.65343905028908,90.34656094971092
30,-135.124,6.499149690878596,90.5008503091214
31,-132.087,4.345293785661539,90.65470621433846
32,-129.051,6.191869735200456,90.80813026479954
33,-126.016,6.038875946757884,90.96112405324212
34,-122.983,4.886310834281133,91.11368916571887
35,-119.950,5.73417281838735,91.26582718161265
36,-116.919,4.582460326348425,91.41753967365158
37,-113.889,3.4311717920758724,91.56882820792413
38,-110.860,4.280305656105867,91.71969434389413
39,-107.833,4.129860365584108,91.87013963441589
40,-104.806,5.979834374250814,92.02016562574919
41,-101.781,3.8302261424256443,92.16977385757436
42,-98.757,5.681034136992608,92.31896586300739
43,-95.734,3.5322568313850553,92.46774316861494
44,-92.712,3.3838927055706165,92.61610729442938
45,-89.692,3.2359402460360798,92.76405975396392
46,-86.672,4.088397945772414,92.91160205422759
47,-83.654,4.941264304259647,93.05873569574035
48,-80.637,3.7945378274518617,93.20546217254814
49,-77.622,0.6482170277620867,93.35178297223791
50,-74.607,4.502300424047249,93.49769957595275
51,-71.594,2.356786541593152,93.64321345840685
52,-68.582,3.2116739120993856,93.78832608790061
53,-65.571,3.0669610736642454,93.93303892633575
54,-62.561,4.922646570769729,94.07735342923027
55,-59.552,4.778728954266427,94.22127104573357
56,-56.545,0.635206781358491,94.36479321864151
57,-53.539,4.492078615588568,94.50792138441143
58,-50.534,0.3493430268227655,94.65065697317723
59,-47.530,1.206998591235532,94.79300140876447
60,-44.527,0.06504389129463561,94.93495610870536
61,-41.525,2.923477515746157,95.07652248425384
62,-38.525,3.7822980595992988,95.2177019404007
63,-35.526,8.641504124111492,95.35849587588851
64,-32.528,9.501094316773177,95.49890568322682
65,-29.531,15.361067251292866,95.63893274870713
66,-26.536,24.22142154758201,95.77857845241799
67,-23.541,12.082155831739982,95.91784416826002
68,-20.548,3.943268736039002,96.056731263961
69,-17.556,0.8047588989090855,96.19524110109091
70,-14.565,1.6666249649229457,96.33337503507705
71,-11.575,0.5288655847810162,96.47113441521898
72,-8.587,0.3914794152962884,96.60852058470371
73,-5.599,1.2544651193793612,96.74553488062064
74,-2.613,0.11782136602329274,96.88217863397671
75,0.372,0.0,97.0184531697114
76,3.356,0.0,97.15435980671185
77,6.339,0.0,97.28989985782786
78,9.320,0.0,97.42507462988695
79,12.300,0.0,97.55988542370947
80,15.280,0.3056664658763566,97.69433353412364
81,18.258,0.0,97.82842024998055
82,21.234,0.03785314583069521,97.9621468541693
83,24.210,0.0,98.09551462363204
84,27.185,0.0,98.22852482937896
85,30.158,0.6388212634965527,98.36117873650345
86,33.130,0.0,98.4934776041971
87,36.101,0.0,98.62542268576476
88,39.071,0.0,98.75701522863963
89,42.040,0.0,98.88825647439828
90,45.007,0.0,99.01914765877572
91,47.973,0.0,99.14969001168052
92,50.939,0.0,99.27988475720973
93,53.903,0.0,99.4097331136641
94,56.865,0.0,99.53923629356302
95,59.827,0.0,99.66839550365965
96,62.788,0.0,99.79721194495592
97,65.747,1.074313187282371,99.92568681271763
98,68.705,2.946178703510469,100.05382129648953
99,71.662,2.818383419889699,100.1816165801103
100,74.618,5.690926158272305,100.3090738417277
101,77.573,6.563805746186475,100.43619425381353
102,80.527,7.437021016821205,100.5629789831788
103,83.479,9.310570809011296,100.6894291909887
104,86.430,10.184453967222282,100.81554603277772
105,89.380,9.05866934153535,100.94133065846465
106,92.329,9.933215787632307,101.0667842123677
107,95.277,8.808092166780526,101.19190783321947
108,98.224,10.683297345817834,101.31670265418217
109,101.169,10.558830197137553,101.44116980286245
110,104.113,10.434689598673287,101.56531040132671
111,107.057,7.3108744338840665,101.68912556611593
112,109.999,8.187383591739092,101.81261640826091
113,112.940,9.06421596670279,101.93578403329721
114,115.879,10.941370458719746,102.05862954128025
115,118.818,10.818845973199586,102.18115402680041
116,121.755,9.696641421002013,102.30335857899799
117,124.691,8.574755718421642,102.42524428157836
118,127.627,6.4531877871730075,102.54681221282699
119,130.561,7.331936554375488,102.66806344562451
120,133.493,8.211000952538257,102.78899904746174
121,136.425,7.090379919545214,102.90962008045479
122,139.356,8.9700723986399,103.0299276013601
123,142.285,6.8500773384105145,103.14992266158949
124,145.213,5.730393692774754,103.26960630722525
125,148.140,7.611020420964849,103.38897957903515
126,151.066,7.491956487512439,103.50804351248756
127,153.991,7.373200862233531,103.62679913776647
128,156.915,5.254752520213472,103.74524747978653
129,159.837,5.136610441791845,103.86338955820815
130,162.759,7.018773612547449,103.98122638745255
131,165.679,9.901241023283177,104.09875897671682
132,168.598,6.784011670011068,104.21598832998893
133,171.516,8.667084553937116,104.33291544606288
134,174.433,7.5504586814463295,104.44954131855367
135,177.348,7.434133064087575,104.56586693591242
136,180.263,8.318106718558596,104.6818932814414
137,183.176,9.202378666690919,104.79762133330908
138,186.088,9.08694793543475,104.91305206456525
139,189.000,6.97181355684404,105.02818644315596
140,191.910,5.8569745680612755,105.14302543193872
141,194.818,6.742430011302517,105.25756998869748
142,197.726,9.62817893384235,105.37182106615765
143,200.633,7.5142203879987335,105.48577961200127
144,203.538,8.400553431118027,105.59944656888197
145,206.442,8.287177125559936,105.71282287444006
146,209.346,6.17409053868235,105.82590946131765
147,212.248,5.061292742826396,105.9387072571736
148,215.148,7.948782815301371,106.05121718469863
149,218.048,5.836559838369567,106.16344016163043
150,220.947,5.7246228992313775,106.27537710076862
151,223.844,6.612971090010092,106.38702890998991
152,226.741,8.501603507736931,106.49839649226307
153,229.636,10.390519254335985,106.60948074566402
154,232.530,9.279717436609062,106.72028256339094
155,235.423,4.169197166220755,106.83080283377925
156,238.315,6.058957559683279,106.94104244031672
157,241.206,4.948997738341504,107.0510022616585
158,244.095,5.839316828357795,107.1606831716422
159,246.984,7.729913960697047,107.27008603930295
160,249.871,6.620788271111564,107.37921172888844
161,252.757,7.511938900126026,107.48806109987397
162,255.642,7.4033649930224215,107.59663500697758
163,258.526,7.295065699824988,107.70493430017501
164,261.409,7.1870401752851905,107.81295982471481
165,264.291,9.079287578866584,107.92071242113342
166,267.172,8.971807074729838,108.02819292527016
167,270.051,8.864597831717617,108.13540216828238
168,272.929,5.757659023339556,108.24234097666044
169,275.807,6.650989827757172,108.34901017224283
170,278.683,9.544589427768855,108.45541057223114
171,281.558,6.43845701079475,108.56154298920525
172,284.432,7.332591768861732,108.66740823113827
173,287.304,8.226992898588364,108.77300710141164
174,290.176,9.121659601169767,108.87834039883023
175,293.046,7.016591082362652,108.98340891763735
176,295.916,7.91178655247019,109.08821344752981
177,298.784,6.807245226327012,109.19275477367299
178,301.651,7.702966323284073,109.29703367671593
179,304.517,6.598949067193701,109.4010509328063
180,307.382,5.495192686394432,109.50480731360557
181,310.246,7.391696413695982,109.60830358630402
182,313.109,6.288459486364246,109.71154051363575
183,315.970,8.185481146106184,109.81451885389382
184,318.831,7.082760639054726,109.91723936094527
185,321.690,5.980297215753836,110.01970278424616
186,324.549,6.87809013114331,110.12190986885669
187,327.406,4.776138644543835,110.22386135545617
188,330.262,4.674442019641845,110.32555798035816
189,333.117,5.572999524474497,110.4270004755255
190,335.970,6.471810431414639,110.52818956858536
191,338.823,5.3708740171557,110.6291259828443
192,341.675,3.2701895626966575,110.72981043730334
193,344.525,5.169756353326989,110.83024364667301
194,347.375,5.06957367861159,110.93042632138841
195,350.223,4.969640832375717,111.03035916762428
196,353.070,1.86995711268996,111.13004288731004
197,355.916,4.770521821855141,111.22947817814486
198,358.761,5.671334266387248,111.32866573361275
199,361.605,5.572393757002487,111.42760624299751
200,364.448,3.4736996086020326,111.52630039139797
201,367.289,3.375251140257177,111.62474885974282
202,370.130,4.277047675194083,111.72295232480592
203,372.969,5.179088540778864,111.82091145922114
204,375.807,3.081373068502444,111.91862693149756
205,378.645,3.983900593965572,112.01609940603443
206,381.481,5.886670456863655,112.11332954313635
207,384.316,5.789682000971794,112.2103179990282
208,387.150,6.692934574129708,112.30706542587029
209,389.983,6.596427528226627,112.40357247177337
210,392.814,4.500160219186327,112.49983978081367
211,395.645,3.4041320069519116,112.59586799304809
212,398.474,3.308342255470947,112.69165774452905
213,401.303,5.212790332680271,112.78720966731973
214,404.130,3.117475610490942,112.88252438950906
215,406.956,4.022397464773277,112.97760253522672
216,409.782,1.9275552753416605,113.07244472465834
217,412.606,4.832948425939591,113.16705157406041
218,415.428,3.73857630422458,113.26142369577542
219,418.250,4.644438301753041,113.35556169824696
220,421.071,1.5505338139653588,113.44946618603464
221,423.891,1.4568622401707358,113.54313775982926
222,426.709,3.3634229835321037,113.6365770164679
223,429.527,1.270215451051186,113.72978454894881
224,432.343,5.177239053553308,113.82276094644669
225,435.158,1.0844932056724303,113.91550679432757
226,437.973,5.991977325836061,114.00802267416394
227,440.786,1.8996908362501728,114.10030916374983
228,443.598,0.8076331628841587,114.19236683711584
229,446.409,3.7158037354558076,114.28419626454419
230,449.218,4.624201987416214,114.37579801258379
231,452.027,5.532827355934671,114.46717264406533
232,454.835,2.4416792818837365,114.55832071811626
233,457.641,2.350757209824039,114.64924279017596
234,460.447,4.260060587989301,114.7399394120107
235,463.251,1.1695888682712763,114.83041113172872
236,466.055,3.0793415062046563,114.92065849379534
237,468.857,4.9893179609520075,115.01068203904799
238,471.658,0.8995176952887647,115.10048230471124
239,474.458,4.809940175588139,115.19005982441186
240,477.257,0.7205848718060395,115.27941512819396
241,480.055,3.6314512574660682,115.36854874253393
242,482.852,4.542538809644384,115.45746119035562
243,485.647,4.45384700895471,115.54615299104529
244,488.442,9.365375339533273,115.63462466046673
245,491.236,16.277123289023706,115.7228767109763
246,494.028,32.18909034856199,115.81090965143801
247,496.819,45.101276012761446,115.89872398723855
248,499.610,57.013679779697625,115.98632022030237
249,502.399,82.92630115089325,116.07369884910675
250,505.187,135.83913963130323,116.16086036869677
251,507.974,188.75219472929945,116.24780527070054
252,510.760,181.66546595665594,116.33453404334406
253,513.545,101.57895282853356,116.42104717146644
254,516.329,39.49265486346512,116.50734513653488
255,519.112,16.406571583340266,116.59342841665973
256,521.893,10.320702513390415,116.67929748660958
257,524.674,7.235047182173702,116.7649528178263
258,527.454,5.149605121559915,116.85039487844008
259,530.232,3.0643758667154373,116.93562413328456
260,533.009,2.979358956088234,117.02064104391177
261,535.786,3.894553931392693,117.1054460686073
262,538.561,2.80996033759466,117.19003966240534
263,541.335,3.7255777228963467,117.27442227710365
264,544.108,1.6414056387212668,117.35859436127873
265,546.880,3.5574436396991587,117.44255636030084
266,549.651,2.473691283650979,117.52630871634902
267,552.421,4.39014813157381,117.60985186842619
268,555.190,0.3068137476257675,117.69318625237423
269,557.958,3.2236876991110535,117.77631230088895
270,560.724,1.1407695564647327,117.85923044353527
271,563.490,1.0580588932378134,117.94194110676219
272,566.255,0.0,118.02444471391786
273,569.018,5.89325831473532,118.10674168526468
274,571.781,0.0,118.18883243799431
275,574.542,3.7292826137572206,118.27071738624278
276,577.302,1.6476030588945036,118.3523969411055
277,580.061,0.0,118.43387151065235
278,582.820,2.4848585000572996,118.5151414999427
279,585.577,1.4037926889594416,118.59620731104056
280,588.333,1.3229306569704988,118.6770693430295
281,591.088,0.242272007972133,118.75772799202787
282,593.841,1.1618163487963074,118.83818365120369
283,596.594,1.0815632892101519,118.91843671078985
284,599.346,1.0015124419009283,118.99848755809907
285,602.097,1.921663422460938,119.07833657753906
286,604.846,3.8420158493725154,119.15798415062748
287,607.595,2.762569343992979,119.23743065600702
288,610.343,0.6833235305394822,119.31667646946052
289,613.089,1.6042780360740352,119.39572196392596
290,615.834,2.5254324904884413,119.47456750951156
291,618.579,1.446786526489177,119.55321347351082
292,621.322,1.368339779582442,119.63166022041756
293,624.064,0.0,119.70990811194106
294,626.806,1.212042492979009,119.78795750702099
295,629.546,3.134191238157399,119.8658087618426
296,632.285,1.0565377701483243,119.94346222985168
297,635.023,0.0,120.02091826176968
298,637.760,1.901822794391279,120.09817720560872
299,640.496,2.824760593313286,120.17523940668671
300,643.230,0.0,120.25210520764236
301,645.964,3.6712250515497544,120.32877494845025
302,648.697,3.594751033564137,120.40524896643586
303,651.429,0.5184724037092394,120.48152759629076
304,654.159,0.0,120.55761117008745
305,656.889,3.366499982705392,120.63350001729461
306,659.617,3.2908055352079373,120.70919446479206
307,662.345,1.2153051631141096,120.78469483688589
308,665.071,1.1399985446765868,120.86000145532341
309,667.797,1.064885360691676,120.93511463930832
310,670.521,0.0,121.01003470551572
311,673.244,2.915238031892841,121.08476196810716
312,675.967,0.0,121.15929673874568
313,678.688,1.7663606733890163,121.23363932661098
314,681.408,1.6922099615856752,121.30779003841432
315,684.127,1.6182508215862867,121.38174917841371
316,686.845,1.5444829515710978,121.4555170484289
317,689.562,0.4709060521435333,121.52909394785647
318,692.278,1.3975198263152038,121.6024801736848
319,694.993,0.0,121.67567602050929
320,697.707,1.2513182194526848,121.74868178054732
321,700.420,2.178502256346704,121.8214977436533
322,703.132,1.1058758026662758,121.89412419733372
323,705.842,1.0334385732376745,121.96656142676233
324,708.552,0.0,122.03880971479498
325,711.261,0.8891306580150626,122.11086934198494
326,713.968,0.8172594134022688,122.18274058659773
327,716.675,2.745576275373679,122.25442372462632
328,719.380,0.0,122.32591902980613
329,722.085,0.0,122.3972267736301
330,724.788,1.5316527746362567,122.46834722536374
331,727.491,0.4607193479397722,122.53928065206023
332,730.192,0.0,122.61002731857545
333,732.893,1.3194125124170313,122.68058748758297
334,735.592,0.24903858041074045,122.75096141958926
335,738.290,0.0,122.82114937294864
336,740.987,3.108848396121644,122.89115160387836
337,743.684,0.03903163352636341,122.96096836647364
338,746.379,0.0,123.03059991272276
339,749.073,0.0,123.10004649252218
340,751.766,2.830691646308594,123.1693083536914
341,754.458,0.7616142580117042,123.2383857419883
342,757.149,0.6927210988760919,123.30727890112391
343,759.839,1.6240119272223126,123.37598807277769
344,762.528,0.0,123.44451349661247
345,765.216,0.0,123.5128554102896
346,767.903,1.4189859505161309,123.58101404948387
347,770.589,1.351010352101298,123.6489896478987
348,773.274,0.28321756271884624,123.71678243728115
349,775.957,0.0,123.78439264743696
350,778.640,1.148179493754327,123.85182050624567
351,781.322,2.080933760324413,123.91906623967559
352,784.003,0.013869928201060588,123.98613007179894
353,786.682,0.9469877751931506,124.05301222480685
354,789.361,0.0,124.11971291902445
355,792.039,0.0,124.18623237292596
356,794.715,1.7474291968503337,124.25257080314967
357,797.391,1.68127157548696,124.31872842451304
358,800.066,0.0,124.38470545002778
359,802.739,0.0,124.45050209091491
360,805.412,2.4838814433802554,124.51611855661974
361,808.083,0.0,124.58155505482702
362,810.754,3.353188208524017,124.64681179147598
363,813.423,3.2881110292246376,124.71188897077536
364,816.091,3.223213204781544,124.77678679521846
365,818.759,4.15849453440174,124.84150546559826
366,821.425,1.0939548189775934,124.9060451810224
367,824.091,0.0295938610716604,124.97040613892834
368,826.755,0.0,125.0345885350983
369,829.418,1.9014074363255844,125.09859256367442
370,832.081,0.8375815828262603,125.16241841717374
371,834.742,2.773933713496689,125.22606628650331
372,837.402,0.7104636390247379,125.28953636097526
373,840.061,0.6471711716782096,125.35282882832179
374,842.720,0.5840561252896919,125.41594387471031
375,845.377,2.52111831524158,125.47888168475842
376,848.033,0.0,125.54164244154907
377,850.688,1.3957736733544834,125.60422632664552
378,853.342,0.0,125.66663352010642
379,855.995,1.271135799499092,125.72886420050091
380,858.648,1.209081455076344,125.79091854492366
381,861.299,1.147203270990076,125.85279672900992
382,863.949,2.0855010730494143,125.91449892695059
383,866.598,1.0239746884927428,125.97602531150726
384,869.246,0.962623945972723,126.03737605402728
385,871.893,0.0,126.09855132445881
386,874.539,2.8404487086340566,126.15955129136594
387,877.184,2.7796238780563556,126.22037612194364
388,879.828,2.718974017967085,126.28102598203292
389,882.471,1.6584989638642185,126.34150103613578
390,885.113,1.5981985525695563,126.40180144743044
391,887.754,3.538072622213832,126.46192737778617
392,890.394,3.4781210122214077,126.52187898777859
393,893.033,3.4183435632954797,126.58165643670452
394,895.671,1.3587401174028315,126.64125988259717
395,898.308,1.2993105177588262,126.70068948224117
396,900.944,0.24005460881241447,126.75994539118759
397,903.579,3.180972236230943,126.81902776376906
398,906.213,5.122063246885261,126.87793675311474
399,908.846,2.0633274888344886,126.93667251116551
400,911.478,0.004764811311105177,126.9952351886889
401,914.109,2.946375064705819,127.05362493529418
402,916.739,0.0,127.11184189944751
403,919.367,1.8301137715130835,127.16988622848692
404,921.995,1.7722419313626858,127.22775806863731
405,924.622,6.714542434974362,127.28545756502564
406,927.248,5.657015138304089,127.34298486169591
407,929.873,7.599659898375748,127.40034010162425
408,932.497,7.542476573266072,127.45752342673393
409,935.120,7.4854650220895,127.5145349779105
410,937.742,9.428625104983269,127.57137489501673
411,940.363,6.371956683092151,127.62804331690785
412,942.983,5.315459618553618,127.68454038144638
413,945.601,7.259133774482592,127.74086622551741
414,948.219,6.202979014956526,127.79702098504347
415,950.836,11.146995205000223,127.85300479499978
416,953.452,9.091182210570906,127.9088177894291
417,956.067,7.03553989854305,127.96446010145695
418,958.681,7.980068136693376,128.01993186330662
419,961.294,9.92476679368582,128.07523320631418
420,963.906,8.869635739056378,128.13036426094362
421,966.517,11.814674843198105,128.1853251568019
422,969.127,6.759883977346135,128.24011602265387
423,971.735,6.705263013562444,128.29473698643756
424,974.343,6.650811824720961,128.34918817527904
425,976.950,7.596530284492445,128.40346971550755
426,979.556,8.542418267329367,128.45758173267063
427,982.161,6.488475648450901,128.5115243515491
428,984.765,3.434702303827976,128.56529769617202
429,987.368,3.3810981101679545,128.61890188983205
430,989.970,4.327662944899856,128.67233705510014
431,992.571,2.2743966861590934,128.7256033138409
432,995.171,2.22129921277255,128.77870078722745
433,997.770,4.168370404243433,128.83162959575657
434,1000.368,2.1156101407361803,128.88438985926382
435,1002.965,1.0630183030615967,128.9369816969384
436,1005.561,4.010594772661591,128.9894052273384
437,1008.156,0.0,129.04166056840586
438,1010.750,3.906252162518399,129.0937478374816
439,1013.343,3.8543328486794337,129.14566715132057
440,1015.935,3.802581373893247,129.19741862610675
441,1018.526,3.75099762253177,129.24900237746823
442,1021.117,1.6995814795077706,129.30041852049223
443,1023.706,7.6483328302597045,129.3516671697403
444,1026.294,6.597251560736794,129.4027484392632
445,1028.881,0.0,129.4536624426161
446,1031.467,5.495590707126439,129.50440929287356
447,1034.052,0.44501089735541655,129.55498910264458
448,1036.637,1.3945980159122087,129.6054019840878
449,1039.220,2.344351951073719,129.65564804892628
450,1041.802,1.2942725915371511,129.70572740846285
451,1044.383,0.24435982640494558,129.75564017359505
452,1046.963,1.194613545169915,129.80538645483009
453,1049.543,2.1450336376998678,129.85496636230013
454,1052.121,3.095619994222915,129.90438000577709
455,1054.698,0.04637250531206405,129.95362749468794
456,1057.275,0.9972910618704418,130.00270893812956
457,1059.850,2.94837555511603,130.05162444488397
458,1062.425,2.899625876566745,130.10037412343326
459,1064.998,0.8510419180253166,130.14895808197468
460,1067.570,2.8026235715641974,130.1973764284358
461,1070.142,0.0,130.24562927048942
462,1072.712,3.706283284431322,130.29371671556868
463,1075.282,0.6583611291178499,130.34163887088215
464,1077.850,4.610604156571071,130.38939584342893
465,1080.418,3.5630122599864364,130.43698774001356
466,1082.984,2.5155853327387376,130.48441466726126
467,1085.550,1.468323268367186,130.5316767316328
468,1088.115,1.4212259605602355,130.57877403943976
469,1090.678,2.3742933031405755,130.62570669685942
470,1093.241,1.3275251900501246,130.67247480994988
471,1095.803,0.0,130.7190784846652
472,1098.363,0.2344821731297202,130.76551782687028
473,1100.923,0.0,130.81179294235608
474,1103.482,2.1420960631453454,130.85790393685465
475,1106.040,0.09614908394587474,130.90385091605413
476,1108.597,3.0503660143862135,130.9496339856138
477,1111.152,4.004746748820821,130.99525325117918
478,1113.707,2.9592911816027936,131.0407088183972
479,1116.261,3.9139992070689686,131.08600079293103
480,1118.814,0.0,131.1311292804753
481,1121.366,1.8239056132289306,131.17609438677107
482,1123.917,3.7791037823789964,131.220896217621
483,1126.467,3.734465121095724,131.26553487890428
484,1129.016,0.689989523408201,131.3100104765918
485,1131.565,1.645676883238849,131.35432311676115
486,1134.112,1.6015270943883593,131.39847290561164
487,1136.658,0.0,131.44245994947946
488,1139.203,5.513715645147357,131.48628435485264
489,1141.747,1.4700537716137774,131.52994622838622
490,1144.291,2.4265543230828257,131.57344567691717
491,1146.833,0.0,131.61678280747958
492,1149.374,0.0,131.65995772731966
493,1151.915,4.297029456089263,131.70297054391074
494,1154.454,3.2541786350315647,131.74582136496844
495,1156.993,0.2114897015343331,131.78851029846567
496,1159.530,1.1689625473523506,131.83103745264765
497,1162.067,3.1265970639528575,131.87340293604714
498,1164.602,2.084393142500744,131.91560685749926
499,1167.137,0.042350673843344566,131.95764932615666
500,1169.671,2.000469548495346,131.99953045150465
501,1172.203,2.958749656623837,132.04125034337616
502,1174.735,4.917190888033161,132.08280911196684
503,1177.266,1.8757931321499086,132.1242068678501
504,1179.796,2.834556278007881,132.16544372199212
505,1182.325,3.7934802142329147,132.20651978576709
506,1184.853,1.7525648290279605,132.24743517097204
507,1187.380,2.711810010157876,132.28818998984212
508,1189.906,4.671215644934648,132.32878435506535
509,1192.431,3.630781620201901,132.3692183797981
510,1194.955,2.590507822320234,132.40949217767977
511,1197.478,4.550394137151983,132.44960586284802
512,1200.000,2.5104404500461612,132.48955954995384
513,1202.521,2.4706466458234217,132.52935335417658
514,1205.041,0.0,132.56898739123903
515,1207.561,3.391538222577651,132.60846177742235
516,1210.079,5.352223370418642,132.64777662958136
517,1212.597,2.3130679348406034,132.6869320651594
518,1215.113,5.274071797796495,132.7259282022035
519,1217.629,0.2352348406206204,132.76476515937938
520,1220.143,5.19655694401348,132.80344305598652
521,1222.657,5.158037988026763,132.84196201197324
522,1225.169,6.119677852048255,132.88032214795174
523,1227.681,4.081476414786778,132.91852358521322
524,1230.192,1.043433554257149,132.95656644574285
525,1232.702,2.00554914776518,132.99445085223482
526,1235.211,4.967823071892525,133.03217692810748
527,1237.718,5.930255202481618,133.06974479751838
528,1240.225,1.8928454146206946,133.1071545853793
529,1242.731,2.8555935826287,133.1444064173713
530,1245.236,7.81849958004014,133.18150041995986
531,1247.741,0.0,133.21843672040978
532,1250.244,0.7447845531995938,133.2552154468004
533,1252.746,3.7081632719593927,133.2918367280406
534,1255.247,1.6716993061161247,133.32830069388388
535,1257.748,5.635392525056744,133.36460747494326
536,1260.247,4.599242797293357,133.40075720270664
537,1262.745,3.563249990448412,133.4367500095516
538,1265.243,2.5274139712394117,133.4725860287606
539,1267.740,5.49173460546416,133.50826539453584
540,1270.235,5.4562117579852725,133.54378824201473
541,1272.730,2.4208452927155406,133.57915470728446
542,1275.224,3.3856350726026108,133.6143649273974
543,1277.716,1.3505809596140068,133.649419040386
544,1280.208,1.315682814722095,133.6843171852779
545,1282.699,2.2809404978889916,133.719059502111
546,1285.189,5.2463538680515,133.7536461319485
547,1287.678,5.2119227831060755,133.78807721689392
548,1290.166,0.0,133.82235290010627
549,1292.653,3.14352667418504,133.85647332581496
550,1295.140,7.109561360664998,133.890438639335
551,1297.625,3.075751012918033,133.92424898708197
552,1300.109,4.042095483412908,133.9579045165871
553,1302.593,4.0085946234876815,133.99140537651232
554,1305.075,1.975248283334622,134.02475171666538
555,1307.557,3.9420563119851977,134.0579436880148
556,1310.037,0.9090185572949849,134.09098144270502
557,1312.517,1.876134865928492,134.1238651340715
558,1314.996,2.843405083344436,134.15659491665556
559,1317.473,1.8108290537802532,134.18917094621975
560,1319.950,5.778406620237433,134.22159337976257
561,1322.426,6.746137624466144,134.25386237553386
562,1324.901,1.7140219069503928,134.2859780930496
563,1327.375,2.6820593068928247,134.31794069310718
564,1329.848,8.650249662199798,134.3497503378002
565,1332.321,3.618592809466179,134.38140719053382
566,1334.792,1.5870885839603943,134.4129114160396
567,1337.262,6.555736819609308,134.4442631803907
568,1339.732,3.524537348983216,134.47546265101678
569,1342.200,8.493490003280726,134.50650999671927
570,1344.668,7.462594612313751,134.53740538768625
571,1347.134,2.431851004492472,134.56814899550753
572,1349.600,3.401259006810136,134.59874099318986
573,1352.065,8.37081844482816,134.62918155517184
574,1354.528,5.34052914266104,134.65947085733896
575,1356.991,4.310390922961204,134.6896090770388
576,1359.453,2.2804036069040308,134.71959639309597
577,1361.914,4.250567014172816,134.74943298582718
578,1364.374,4.220880962943596,134.7791190370564
579,1366.834,10.191345269870226,134.80865473012977
580,1369.292,4.1619597500691725,134.83804024993083
581,1371.749,7.1327242171046805,134.86727578289532
582,1374.206,7.103638482973423,134.89636151702658
583,1376.661,7.074702358089695,134.9252976419103
584,1379.116,1.0459156512702066,134.9540843487298
585,1381.569,4.017278169719077,134.98272183028092
586,1384.022,5.9887897190128,135.0112102809872
587,1386.474,5.960450103085066,135.03954989691493
588,1388.925,5.932259124211896,135.0677408757881
589,1391.375,3.904216582996412,135.0957834170036
590,1393.824,6.876322278353882,135.12367772164612
591,1396.272,3.848576007496604,135.1514239925034
592,1398.719,6.820977565918838,135.17902243408116
593,1401.165,2.7935267473818044,135.2064732526182
594,1403.611,6.766223343898645,135.23377665610136
595,1406.055,3.73906714571919,135.2609328542808
596,1408.498,4.712057941315123,135.28794205868488
597,1410.941,1.685195517364832,135.31480448263517
598,1413.383,6.658479658738258,135.34152034126174
599,1415.823,4.631910148482007,135.368089851518
600,1418.263,3.605486767804109,135.3945132321959
601,1420.702,3.5792092960591617,135.42079070394084
602,1423.140,2.5530775107330896,135.4469224892669
603,1425.577,6.527091187428169,135.47290881257183
604,1428.013,4.501250099847994,135.498749900152
605,1430.449,3.4755540197823507,135.52444598021765
606,1432.883,1.4500027170921896,135.5499972829078
607,1435.316,6.424595959694557,135.57540404030544
608,1437.749,0.39933351354761726,135.60066648645238
609,1440.181,6.37421514263545,135.62578485736455
610,1442.611,1.3492406089530675,135.65075939104693
611,1445.041,1.3244096724913845,135.67559032750862
612,1447.470,8.299722091222122,135.70027790877788
613,1449.898,2.2751776210827757,135.72482237891722
614,1452.325,4.250776015961435,135.74922398403857
615,1454.751,1.226517027681922,135.77348297231808
616,1457.176,5.202400405988641,135.79759959401136
617,1459.600,2.1784258985314864,135.8215741014685
618,1462.024,5.154593250850752,135.84540674914925
619,1464.446,6.1309022063622365,135.86909779363776
620,1466.868,3.1073525063420107,135.892647493658
621,1469.289,4.083943889911438,135.91605611008856
622,1471.708,3.060676094022142,135.93932390597786
623,1474.127,1.0375488534408248,135.96245114655918
624,1476.545,3.0145619007344067,135.9854380992656
625,1478.962,3.99171496625479,136.0082850337452
626,1481.378,3.969007778123853,136.03099222187615
627,1483.793,0.9464400622184144,136.05355993778159
628,1486.208,3.924011542155199,136.0759884578448
629,1488.621,0.0,136.0982780607243
630,1491.034,2.879570972631143,136.12042902736886
631,1493.445,3.8575583589675375,136.14244164103246
632,1495.856,1.8356838127104425,136.16431618728956
633,1498.266,2.813947045950016,136.18605295404998
634,1500.675,2.7923477684259126,136.2076522315741
635,1503.083,3.7708856875123047,136.2291143124877
636,1505.490,4.749560508202734,136.25043949179727
637,1507.896,3.728371933095019,136.27162806690498
638,1510.301,4.707319662376335,136.29268033762366
639,1512.706,1.6864033938080922,136.3135966061919
640,1515.109,3.665622822710759,136.33437717728924
641,1517.512,0.0,136.35502235805095
642,1519.913,0.0,136.37553245808337
643,1522.314,3.604092210521145,136.39590778947885
644,1524.714,0.0,136.41614866683076
645,1527.113,5.563744592751334,136.43625540724867
646,1529.511,1.54377166962675,136.45622833037325
647,1531.908,1.5239322416084917,136.4760677583915
648,1534.304,2.504225983948288,136.4957740160517
649,1536.700,2.484652569321497,136.5153474306785
650,1539.094,0.0,136.53478833218793
651,1541.488,1.4459029468974052,136.5540970531026
652,1543.881,4.42672607143345,136.57327392856655
653,1546.272,5.407680703639443,136.59231929636056
654,1548.663,0.3887665030830476,136.61123349691695
655,1551.053,0.3699831266652325,136.63001687333477
656,1553.442,0.3513302286050646,136.64866977139494
657,1555.831,0.3328074604248741,136.66719253957513
658,1558.218,4.31441447093502,136.68558552906498
659,1560.604,4.296150906219026,136.70384909378097
660,1562.990,4.27801640961826,136.72198359038174
661,1565.375,3.2600106217171287,136.73998937828287
662,1567.758,2.2421331803277837,136.75786681967222
663,1570.141,2.2243837204753163,136.77561627952468
664,1572.523,5.206761874382522,136.79323812561748
665,1574.904,0.18926727145480982,136.8107327285452
666,1577.284,3.171899538265336,136.82810046173466
667,1579.664,3.154658298539772,136.84534170146023
668,1582.042,2.1375431731412675,136.86245682685873
669,1584.420,3.1205537800555305,136.87944621994447
670,1586.796,2.1036897343755925,136.8963102656244
671,1589.172,2.086950648286802,136.9130493517132
672,1591.547,3.0703361310518176,136.92966386894818
673,1593.921,5.053845788995574,136.94615421100443
674,1596.294,3.0374792254900456,136.96252077450995
675,1598.666,1.0212360409394137,136.9787639590606
676,1601.037,3.005115832764858,136.99488416723514
677,1603.408,5.989118195389551,137.01088180461045
678,1605.777,0.0,137.02675727977643
679,1608.146,3.957488995648845,137.04251100435116
680,1610.514,1.9418566070041834,137.05814339299582
681,1612.881,0.9263451365701485,137.07365486342985
682,1615.247,0.0,137.08904583644613
683,1617.612,3.8956832640741936,137.1043167359258
684,1619.976,1.8805320111465562,137.11946798885344
685,1622.339,0.0,137.13450002533216
686,1624.702,1.8505867214014984,137.1494132785985
687,1627.064,0.8357918149621923,137.1642081850378
688,1629.424,0.8211148158011099,137.1788851841989
689,1631.784,1.80655528119064,137.19344471880936
690,1634.143,4.7921127652093105,137.2078872347907
691,1636.501,6.7777868187269235,137.22221318127308
692,1638.858,0.763576989389378,137.23642301061062
693,1641.215,3.7494828216035216,137.25051717839648
694,1643.570,0.0,137.26449614347774
695,1645.924,2.721639632029394,137.2783603679706
696,1648.278,0.0,137.29211031727533
697,1650.631,0.6942535399084591,137.30574646009154
698,1652.983,2.680730731567081,137.31926926843292
699,1655.334,0.6673207823574216,137.33267921764258
700,1657.684,2.6540232135919837,137.34597678640802
701,1660.033,4.640837543223995,137.359162456776
702,1662.382,2.627763285831975,137.37223671416803
703,1664.729,0.0,137.38520004739493
704,1667.076,1.6019470513277838,137.39805294867222
705,1669.422,0.0,137.41079591363518
706,1671.767,1.5765705586463525,137.42342944135365
707,1674.111,0.0,137.4359540343473
708,1676.454,0.0,137.44837019860074
709,1678.796,4.5393215564216405,137.46067844357836
710,1681.137,4.527120717760425,137.47287928223957
711,1683.478,2.5150267689462567,137.48497323105374
712,1685.818,1.5030391899845768,137.49696081001542
713,1688.156,0.491157457340762,137.50884254265924
714,1690.494,5.479381043925059,137.52061895607494
715,1692.831,3.467709419077295,137.5322905809227
716,1695.168,3.4561420485521808,137.54385795144782
717,1697.503,2.4446783945038817,137.55532160549612
718,1699.837,2.4333179154712354,137.56668208452876
719,1702.171,3.422060066362576,137.57793993363742
720,1704.504,3.41090429844067,137.58909570155933
721,1706.835,0.3998500593076528,137.60014994069235
722,1709.166,0.3888967928900797,137.61110320710992
723,1711.496,3.3780439394236623,137.62195606057634
724,1713.826,1.3672909354384615,137.63270906456154
725,1716.154,1.3566372137435678,137.64336278625643
726,1718.482,5.346082203412237,137.65391779658776
727,1720.808,3.335625329766799,137.6643746702332
728,1723.134,5.32526601436345,137.67473398563655
729,1725.459,2.3150036749774188,137.68499632502258
730,1727.783,2.3048377255877313,137.69516227441227
731,1730.106,0.0,137.70523242363768
732,1732.428,1.2847926336426951,137.7152073663573
733,1734.750,5.274912299929184,137.72508770007082
734,1737.070,3.265125973865679,137.73487402613432
735,1739.390,1.255433050224724,137.74456694977528
736,1741.709,0.0,137.75416708010778
737,1744.027,5.236324969852717,137.76367503014728
738,1746.344,5.226908583173923,137.77309141682608
739,1748.660,3.2175831389921257,137.78241686100787
740,1750.976,0.20834801249665702,137.79165198750334
741,1753.290,5.199202574915262,137.80079742508474
742,1755.604,4.19014619349872,137.80985380650128
743,1757.917,2.1811782315059247,137.81882176849408
744,1760.229,3.17229804818885,137.82770195181115
745,1762.540,4.163504998777398,137.8364950012226
746,1764.850,4.154798434464453,137.84520156553555
747,1767.159,4.146177702390673,137.85382229760933
748,1769.468,0.13764214562962707,137.86235785437037
749,1771.776,2.129191103172559,137.87080889682744
750,1774.082,3.1208239099133834,137.87917609008662
751,1776.388,1.1125398966336775,137.88746010336632
752,1778.693,6.104338389987589,137.8956616100124
753,1780.998,3.0962187124867455,137.90378128751325
754,1783.301,2.088180182485303,137.9118198175147
755,1785.604,3.0802221141646555,137.91977788583534
756,1787.905,5.072343817518629,137.92765618248137
757,1790.206,2.0645445983383865,137.9354554016616
758,1792.506,0.05682375819716867,137.94317624180283
759,1794.805,4.049180594435455,137.95081940556454
760,1797.103,2.041614400145818,137.95838559985418
761,1799.401,1.0341244641577703,137.96587553584223
762,1801.697,5.026710071022961,137.97328992897704
763,1803.993,2.0193705009998553,137.98062949900014
764,1806.288,0.0,137.9878949699612
765,1808.582,2.004912929766931,137.99508707023307
766,1810.875,4.997793467473201,138.0022065325268
767,1813.167,0.0,138.00925409390686
768,1815.459,2.9837695041939014,138.0162304958061
769,1817.749,0.0,138.0231364840406
770,1820.039,0.9700271911747222,138.02997280882528
771,1822.328,3.9632597752117817,138.03674022478822
772,1824.616,2.956560509013542,138.04343949098646
773,1826.903,1.949928629079551,138.05007137092045
774,1829.190,2.9433633674504733,138.05663663254953
775,1831.475,0.9368639516932546,138.06313604830675
776,1833.760,0.0,138.069570395114
777,1836.043,0.0,138.07594045439717
778,1838.326,1.9177529878989787,138.08224701210102
779,1840.609,3.9115091412956815,138.08849085870432
780,1842.890,2.905327210765023,138.09467278923498
781,1845.170,0.0,138.100793603285
782,1847.450,0.8931458949742819,138.10685410502572
783,1849.728,2.8871448967774995,138.1128551032225
784,1852.006,1.881202588749801,138.1187974112502
785,1854.283,0.8753181528919924,138.124681847108
786,1856.560,0.8694907665654341,138.13050923343457
787,1858.835,0.8637196024771185,138.13628039752288
788,1861.109,0.8580038286642662,138.14199617133573
789,1863.383,4.85234260847966,138.14765739152034
790,1865.656,1.8467351005763817,138.15326489942362
791,1867.928,0.0,138.15881954110728
792,1870.199,1.8356778326371739,138.16432216736283
793,1872.469,4.830226366273507,138.1697736337265
794,1874.739,0.0,138.17517480049452
795,1877.007,3.819473467261872,138.18052653273813
796,1879.275,1.8141702996815354,138.18582970031846
797,1881.542,4.808914822098188,138.1910851779018
798,1883.808,2.8037061550253384,138.19629384497466
799,1886.073,0.7985434141413918,138.2014565858586
800,1888.338,0.0,138.20657428972555
801,1890.601,3.788352149387322,138.21164785061268
802,1892.864,1.7833218325624216,138.21667816743758
803,1895.126,2.778333855986716,138.22166614401328
804,1897.387,0.7733873109366982,138.2266126890633
805,1899.647,0.7684812837632649,138.23151871623674
806,1901.907,2.763614855876824,138.23638514412318
807,1904.165,3.7587871037318905,138.2412128962681
808,1906.423,4.753997098812533,138.24600290118747
809,1908.680,4.749243907616716,138.25075609238328
810,1910.936,6.744526591641858,138.25547340835814
811,1913.191,4.739844207369231,138.26015579263077
812,1915.446,0.0,138.2648041937507
813,1917.699,3.730580434686402,138.2694195653136
814,1919.952,2.7259971340238565,138.27400286597614
815,1922.204,5.721444940528841,138.27855505947116
816,1924.455,5.716922885377215,138.28307711462278
817,1926.705,3.7124299946387964,138.2875700053612
818,1928.954,4.7079652892618356,138.29203471073816
819,1931.203,1.7035277850584407,138.29647221494156
820,1933.451,0.0,138.3008835073109
821,1935.698,2.6947304176478326,138.30526958235217
822,1937.944,2.690368560247208,138.3096314397528
823,1940.189,0.6860299156031147,138.31397008439689
824,1942.433,0.6817134736197659,138.31828652638023
825,1944.677,1.6774182189746227,138.32258178102538
826,1946.920,0.6731431311033873,138.3268568688966
827,1949.161,3.6688871841849107,138.3311128158151
828,1951.403,0.6646493471261579,138.33535065287384
829,1953.643,2.660428583547059,138.33957141645294
830,1955.882,5.65622385176556,138.34377614823444
831,1958.121,5.652034104782587,138.3479658952174
832,1960.359,3.647858290266754,138.35214170973325
833,1962.596,2.643695350539616,138.35630464946038
834,1964.832,3.6395442225604597,138.36045577743954
835,1967.067,1.6354038379111842,138.36459616208882
836,1969.301,0.0,138.36872687721865
837,1971.535,4.627150997953038,138.37284900204696
838,1973.768,0.6230363787858835,138.37696362121412
839,1976.000,2.6189281752019724,138.38107182479803
840,1978.231,5.614825291670741,138.38517470832926
841,1980.461,4.6107266271939125,138.3892733728061
842,1982.691,5.606631075290551,138.39336892470945
843,1984.920,2.6025375239819084,138.3974624760181
844,1987.148,0.5984448557763926,138.4015551442236
845,1989.375,2.594351947654502,138.4056480523455
846,1991.601,2.5902576710536778,138.40974232894632
847,1993.826,4.586160891853467,138.41383910814653
848,1996.051,0.5820604703602896,138.4179395296397
849,1998.275,3.5779552612923453,138.42204473870765
850,2000.498,2.5738441137647783,138.42615588623522
851,2002.720,4.569725871274272,138.43027412872573
852,2004.941,4.565599371684385,138.43440062831561
853,2007.162,4.561463447210144,138.43853655278986
854,2009.381,1.557316924403267,138.44268307559673
855,2011.600,3.5531586241368416,138.44684137586316
856,2013.818,4.548987361590491,138.4510126384095
857,2016.035,1.544801946235225,138.45519805376478
858,2018.252,3.5406011818182606,138.45939881818174
859,2020.467,1.5363838663482454,138.46361613365175
860,2022.682,1.5321487920799086,138.4678512079201
861,2024.896,3.527894745499225,138.47210525450078
862,2027.109,4.523620507308152,138.47637949269185
863,2029.321,6.519324852409795,138.4806751475902
864,2031.533,0.0,138.4849934501069
865,2033.744,6.510664363018037,138.48933563698196
866,2035.954,4.506297049200413,138.4937029507996
867,2038.163,4.501903359996788,138.4980966400032
868,2040.371,7.497482041089427,138.50251795891057
869,2042.578,4.4930318322713845,138.50696816772862
870,2044.785,1.488551467431222,138.51144853256878
871,2046.991,3.4840396745381383,138.51596032546186
872,2049.196,3.4794951756268233,138.52050482437318
873,2051.400,2.4749166867823646,138.52508331321764
874,2053.603,5.470302918125185,138.52969708187482
875,2055.806,0.0,138.53434742620374
876,2058.008,2.460964351941527,138.53903564805847
877,2060.209,4.456236944697338,138.54376305530266
878,2062.409,5.451469038175134,138.54853096182487
879,2064.608,3.4466593124464,138.5533406875536
880,2066.807,6.441806441527746,138.55819355847225
881,2069.004,4.4369090933655855,138.56309090663441
882,2071.201,3.4319659298215015,138.5680340701785
883,2073.397,3.426975606656697,138.5730243933433
884,2075.593,0.4219367735172739,138.57806322648273
885,2077.787,2.4168480739190272,138.58315192608097
886,2079.981,6.4117081452324385,138.58829185476756
887,2082.174,0.40651561866769725,138.5934843813323
888,2084.366,3.401269119259382,138.59873088074062
889,2086.557,3.3959672658517093,138.6040327341483
890,2088.747,4.390608671083271,138.60939132891673
891,2090.937,4.385191941372057,138.61480805862794
892,2093.126,4.379715676900389,138.6202843230996
893,2095.314,1.374178471599805,138.6258215284002
894,2097.501,4.368578913136162,138.63142108686384
895,2099.687,0.3629155828942885,138.6370844171057
896,2101.873,4.357187055963323,138.64281294403668
897,2104.058,3.3513919011211897,138.6486080988788
898,2106.242,4.345528680819939,138.65447131918006
899,2108.425,2.3395959511705087,138.6604040488295
900,2110.607,0.333592261927663,138.66640773807234
901,2112.789,5.327516156474985,138.67248384352501
902,2114.970,1.3213661718097285,138.67863382819027
903,2117.150,6.315140838527952,138.68485916147205
904,2119.329,4.308838680809117,138.69116131919088
905,2121.507,6.302458216401476,138.69754178359852
906,2123.685,1.2959979566066693,138.70400204339333
907,2125.862,6.289456406264776,138.71054359373522
908,2128.038,8.282832063739193,138.7171679362608
909,2130.213,0.27612342090176867,138.72387657909823
910,2132.387,3.269328963117573,138.73067103688243
911,2134.561,2.2624471692298016,138.7375528307702
912,2136.734,1.2554765115449413,138.74452348845506
913,2138.906,4.248415455817394,138.7515845441826
914,2141.077,4.241262461234669,138.75873753876533
915,2143.247,5.23401598040229,138.7659840195977
916,2145.417,0.0,138.77332554067138
917,2147.586,3.219236337409967,138.78076366259003
918,2149.754,4.211700047415235,138.78829995258477
919,2151.921,1.2040640154713174,138.79593598452868
920,2154.087,5.1963266610475785,138.80367333895242
921,2156.253,1.188486396941073,138.81151360305893
922,2158.418,2.1805416292613984,138.8194583707386
923,2160.582,1.1724907574157726,138.82750924258423
924,2162.745,6.164332174093602,138.8356678259064
925,2164.908,2.156064265251814,138.8439357347482
926,2167.069,3.1476854100997684,138.85231458990023
927,2169.230,1.1391939810839062,138.8608060189161
928,2171.390,2.130588343872887,138.8694116561271
929,2173.550,2.121866857342667,138.87813314265733
930,2175.708,3.1130278735610943,138.8869721264389
931,2177.866,2.1040697377731306,138.89593026222687
932,2180.023,0.0,138.9050092116142
933,2182.179,2.08578935695283,138.91421064304717
934,2184.334,0.0,138.92353623184007
935,2186.489,1.0670123398096507,138.93298766019035
936,2188.642,3.0574333828061526,138.94256661719385
937,2190.795,2.0477252011403095,138.9522747988597
938,2192.948,1.0378860918746398,138.96211390812536
939,2195.099,6.027914345128124,138.97208565487188
940,2197.250,1.0178082440614276,138.98219175593857
941,2199.399,1.007566064861436,138.99243393513856
942,2201.548,0.0,139.00281392327344
943,2203.697,2.9866665418514913,139.0133334581485
944,2205.844,3.9760057154121,139.0239942845879
945,2207.991,0.9652018455506095,139.0347981544494
946,2210.137,3.9542531733602573,139.04574682663974
947,2212.282,0.0,139.05684206712954
948,2214.426,0.0,139.06808564896852
949,2216.569,3.9205206476999024,139.0794793523001
950,2218.712,1.9089750356228024,139.0910249643772
951,2220.854,0.0,139.10272427957665
952,2222.995,1.8854209005854727,139.11457909941453
953,2225.136,0.873408767438832,139.12659123256117
954,2227.275,1.861237505143663,139.13876249485634
955,2229.414,0.0,139.15109470932407
956,2231.552,1.8364102938120936,139.1635897061879
957,2233.689,1.8237506771141057,139.1762493228859
958,2235.826,0.8109245959144289,139.18907540408557
959,2237.961,0.7979301983007758,139.20206980169922
960,2240.096,0.0,139.21523437489873
961,2242.230,1.77142900986928,139.22857099013072
962,2244.364,1.757918478868362,139.24208152113164
963,2246.496,3.74423215105719,139.2557678489428
964,2248.628,0.0,139.26963186192546
965,2250.759,0.0,139.2836754557757
966,2252.889,1.7020994664601687,139.29790053353983
967,2255.019,5.687690994370797,139.3123090056292
968,2257.147,0.0,139.3269027898352
969,2259.275,6.658316188655476,139.34168381134452
970,2261.402,3.643345997245774,139.35665400275423
971,2263.529,2.628184695913461,139.37181530408654
972,2265.654,1.6128303371959305,139.38716966280407
973,2267.779,3.597280966174935,139.40271903382506
974,2269.903,3.5815346204618663,139.41846537953813
975,2272.026,3.565589330182661,139.43441066981734
976,2274.149,4.5494431179623405,139.45055688203766
977,2276.270,2.5330939989104877,139.4669060010895
978,2278.391,7.516539980605842,139.48346001939416
979,2280.511,3.49977906308132,139.50022093691868
980,2282.631,2.482809238809068,139.51719076119093
981,2284.749,3.465628492685255,139.53437150731475
982,2286.867,2.448234802015037,139.55176519798496
983,2288.984,4.4306261364976365,139.56937386350236
984,2291.100,1.412800458211109,139.5871995417889
985,2293.216,0.39475572159733474,139.60524427840267
986,2295.330,0.3764898734470421,139.62351012655296
987,2297.444,4.358000852884686,139.6419991471153
988,2299.557,2.3392865913532717,139.66071340864673
989,2301.670,2.320345012599603,139.6796549874004
990,2303.781,1.301174032658821,139.69882596734118
991,2305.892,2.2817715598398536,139.71822844016015
992,2308.002,6.262135494709753,139.73786450529025
993,2310.112,0.24226373007917346,139.75773626992083
994,2312.220,4.222154150986881,139.77784584901312
995,2314.328,3.201804634685118,139.79819536531488
996,2316.435,3.1812130506241374,139.81878694937586
997,2318.541,2.1603772604374285,139.83962273956257
998,2320.647,2.1392951179265367,139.86070488207346
999,2322.751,0.11796446904611457,139.88203553095389
1000,2324.855,1.0963831518886025,139.9036168481114
1001,2326.958,5.074548996669478,139.92545100333052
1002,2329.061,0.05245982571204877,139.94754017428795
1003,2331.162,2.0301134534323353,139.96988654656766
1004,2333.263,5.007507686324146,139.99249231367585
1005,2335.363,1.9846403229439318,140.01535967705607
1006,2337.462,3.9615091538958325,140.03849084610417
1007,2339.561,0.9381119618164462,140.06188803818355
1008,2341.659,1.914446521359821,140.08555347864018
1009,2343.756,1.890510599182619,140.10948940081738
1010,2345.852,1.866301953928712,140.1336980460713
1011,2347.948,0.8418183362142599,140.15818166378574
1012,2350.042,2.8170574886128463,140.18294251138715
1013,2352.136,3.792017145640159,140.20798285435984
1014,2354.229,2.7666950337389835,140.23330496626102
1015,2356.322,0.74108887126431,140.2589111287357
1016,2358.414,1.7151963684679572,140.28480363153204
1017,2360.504,1.6890152274838783,140.31098477251612
1018,2362.595,2.6625431423128703,140.33745685768713
1019,2364.684,0.6357777988075384,140.36422220119246
1020,2366.773,4.60871687465729,140.3912831253427
1021,2368.860,2.5813580393732707,140.41864196062673
1022,2370.948,5.553698954273358,140.44630104572664
1023,2373.034,0.0,140.47426272753307
