pixel_index,raman_shift_cm-1,intensity
0,200.000,-0.030685616849392933
1,201.000,-0.009212774544270844
2,202.000,0.004648966086475027
3,203.000,0.012464734956286083
4,204.000,0.01579966197860375
5,205.000,0.016218877066869333
6,206.000,0.01518007708282128
7,207.000,0.019194585151875516
8,208.000,0.01978619943771259
9,209.000,0.02650454632897682
10,210.000,0.024825259893889833
11,211.000,0.01690400988547609
12,212.000,0.012533609747125267
13,213.000,0.006184854494788385
14,214.000,0.0018240565213713767
15,215.000,0.003941492280458534
16,216.000,-0.005955917085189015
17,217.000,-0.0010844183916973427
18,218.000,0.002422947732260999
19,219.000,0.011879181731257698
20,220.000,0.009050124822140898
21,221.000,0.0006093680989187743
22,222.000,1.0239927812595299e-05
23,223.000,-0.0048337641725023925
24,224.000,-0.0028288995542265732
25,225.000,-0.008224518733273943
26,226.000,-0.017697603498583837
27,227.000,-0.013698215223837221
28,228.000,-0.005749089750607133
29,229.000,0.004794081630824085
30,230.000,0.011694158807460515
31,231.000,0.013875042430762307
32,232.000,0.0174713035768832
33,233.000,0.022390740295194948
34,234.000,0.024475602641894623
35,235.000,0.020753912129064925
36,236.000,0.01573558937351767
37,237.000,0.01609128785457355
38,238.000,0.00700077286484524
39,239.000,0.004808905108533277
40,240.000,0.004109162132931672
41,241.000,-0.0019211402393264755
42,242.000,-0.005839657261155956
43,243.000,0.004066184795588296
44,244.000,0.005700790336912269
45,245.000,0.005716372433496039
46,246.000,0.006307005439418385
47,247.000,0.014475378363976478
48,248.000,0.00368183508315805
49,249.000,0.0047016048111439175
50,250.000,0.0036748169477402565
51,251.000,0.002047793529172566
52,252.000,-0.0047200187019320805
53,253.000,-0.0021849690572042927
54,254.000,-0.006173606110830112
55,255.000,-0.010621796812816373
56,256.000,-0.012062974911876287
57,257.000,-0.007935473837327933
58,258.000,-0.010716419753846322
59,259.000,0.00027352922432923585
60,260.000,0.0003209682823182875
61,261.000,0.002313636972374905
62,262.000,-0.0041004204260233585
63,263.000,-0.0037821818058075335
64,264.000,-0.0040218304337930055
65,265.000,-0.0019648128121519766
66,266.000,0.003710337690313186
67,267.000,0.003378295442561964
68,268.000,0.0030811830594566934
69,269.000,0.010112830497938246
70,270.000,0.007386782825669077
71,271.000,0.007347027691217344
72,272.000,0.0071180252203044405
73,273.000,0.0030248085290863133
74,274.000,0.008838837938161485
75,275.000,0.012138790061771463
76,276.000,0.0009884098331888343
77,277.000,-0.0033821541938951457
78,278.000,-0.012135265329405561
79,279.000,-0.017088943873974912
80,280.000,-0.014305078934500002
81,281.000,-0.012111389700764127
82,282.000,-0.005810651698529094
83,283.000,-0.009192106215780422
84,284.000,-0.005010123386836774
85,285.000,-0.009384883482204025
86,286.000,-0.01589509113847971
87,287.000,-0.02041313722117114
88,288.000,-0.027001293096232053
89,289.000,-0.03359679877658854
90,290.000,-0.025416996692327165
91,291.000,-0.020390263428956997
92,292.000,-0.014290902703121154
93,293.000,-0.008601699340022894
94,294.000,0.003158144764187913
95,295.000,0.013432935697324061
96,296.000,0.021695143139165058
97,297.000,0.009085686473099574
98,298.000,0.010500906354776945
99,299.000,0.00731206294164823
100,300.000,0.005317655947284108
101,301.000,-0.0007669435410561052
102,302.000,-0.003446307995744036
103,303.000,-0.005561152959425803
104,304.000,-0.0051885729503733736
105,305.000,-0.010333457213179428
106,306.000,-0.012658077992115976
107,307.000,-0.021422452002610486
108,308.000,-0.013184867649958092
109,309.000,-0.0056450975900302625
110,310.000,-0.0036414931666120926
111,311.000,0.0005171625189868297
112,312.000,0.0004649827370975532
113,313.000,-0.003186409626675554
114,314.000,-0.009419686505152439
115,315.000,-0.0194013200795982
116,316.000,-0.023243870667610446
117,317.000,-0.024651457016369702
118,318.000,-0.020329561378738432
119,319.000,-0.01334941678361682
120,320.000,-0.007647734641702725
121,321.000,0.0012142993981263687
122,322.000,-0.007609155982069142
123,323.000,-0.006614249991869566
124,324.000,-0.012785504316949834
125,325.000,-0.01641620721651732
126,326.000,-0.016550071035683168
127,327.000,-0.012292074676022544
128,328.000,-0.0099461506901574
129,329.000,-0.006085865914954098
130,330.000,-0.0006617913693861254
131,331.000,0.005847971479452927
132,332.000,-0.003227121134724622
133,333.000,-0.004159387504023787
134,334.000,-0.010899942259911153
135,335.000,-0.009910268871759205
136,336.000,-0.01131492365791875
137,337.000,-0.012501301792814595
138,338.000,-0.018050049686842196
139,339.000,-0.020977500666735472
140,340.000,-0.020130014613129892
141,341.000,-0.01593828568285844
142,342.000,-0.015972698915910088
143,343.000,-0.018626689661741875
144,344.000,-0.006828752279353742
145,345.000,0.003983485437611267
146,346.000,0.0047574772959569495
147,347.000,0.006876497069788706
148,348.000,0.009971505862096735
149,349.000,0.01727253228366357
150,350.000,0.013057510311128654
151,351.000,0.013379791135787838
152,352.000,0.007248278518136436
153,353.000,0.0013065340539029871
154,354.000,0.008237993091180906
155,355.000,0.006597013395066109
156,356.000,-0.00010229655768583594
157,357.000,0.0020926145418307413
158,358.000,0.007132664221097538
159,359.000,-0.0007793018737639406
160,360.000,-0.002108490315408611
161,361.000,-0.006452242301420035
162,362.000,-0.01208628701179069
163,363.000,-0.008688716376277642
164,364.000,-0.009877202663392365
165,365.000,-0.01164756244102304
166,366.000,-0.0023876321199550075
167,367.000,0.01194299779469683
168,368.000,0.017089887450911743
169,369.000,0.010058303671111333
170,370.000,0.013887043458247192
171,371.000,0.011947322204148306
172,372.000,0.013300156467460335
173,373.000,0.014193153580136316
174,374.000,0.010155386541274725
175,375.000,0.013283017786334995
176,376.000,0.017923893898463026
177,377.000,0.020997405142821193
178,378.000,0.013126995346332061
179,379.000,0.003515384788182178
180,380.000,-0.0042122768126539945
181,381.000,-0.008373098006747392
182,382.000,-0.008252869237340464
183,383.000,-0.009887846203395294
184,384.000,-0.0010420832583944463
185,385.000,0.0033724735948300055
186,386.000,0.0045649280818465835
187,387.000,0.0038436595379267467
188,388.000,0.011890465779717708
189,389.000,0.012169757675674565
190,390.000,-0.0010891363421584358
191,391.000,0.0018075603408918043
192,392.000,0.005252507219850192
193,393.000,0.013387684657551802
194,394.000,0.014664738800844708
195,395.000,0.011794967628964858
196,396.000,0.010012900639705833
197,397.000,0.009474458989978434
198,398.000,0.013485976161976724
199,399.000,0.0022157323630522413
200,400.000,-0.008668497965726725
201,401.000,-0.0019509773132518518
202,402.000,0.0001926826408106872
203,403.000,0.0069959657056242455
204,404.000,-0.0013808401759858775
205,405.000,-0.009536409561474527
206,406.000,-0.007039027439656964
207,407.000,-0.004790078643446396
208,408.000,0.0015568830817946913
209,409.000,-0.0009589427034040639
210,410.000,0.007750682073804509
211,411.000,0.018993939299239548
212,412.000,0.022923451440655693
213,413.000,0.0244331665836185
214,414.000,0.019009342135384164
215,415.000,0.006098323610432784
216,416.000,0.002002507644674167
217,417.000,-0.004857003351367703
218,418.000,-0.0063107133477786305
219,419.000,-0.019327591130085506
220,420.000,-0.01588620776265478
221,421.000,-0.011928325992526129
222,422.000,-0.013155238351385394
223,423.000,-0.006956385570118462
224,424.000,-0.0005232040982488238
225,425.000,0.0040757080811783235
226,426.000,0.009691744228633063
227,427.000,0.008002510518921641
228,428.000,0.010029605567575125
229,429.000,0.003996347188056554
230,430.000,6.197655947876081e-05
231,431.000,-0.004412632799095207
232,432.000,-0.008691095441187168
233,433.000,-0.013420286790710284
234,434.000,-0.008479685431298406
235,435.000,-0.003455158375296716
236,436.000,-0.00875492398641015
237,437.000,-0.021824131090830354
238,438.000,-0.024105284745739263
239,439.000,-0.02387208664079272
240,440.000,-0.01843203881281133
241,441.000,-0.01071611147437103
242,442.000,-0.00853022698849789
243,443.000,-0.007826756833110035
244,444.000,0.0012345356908699011
245,445.000,0.008982681491654692
246,446.000,0.00790447809403726
247,447.000,0.0046860081632388
248,448.000,0.003378727679294068
249,449.000,-0.0008354676622260178
250,450.000,-0.0007108936941995674
251,451.000,-0.0026958925978890933
252,452.000,-0.014602615931520617
253,453.000,-0.023597338565459303
254,454.000,-0.0258759773242457
255,455.000,-0.0222470447647928
256,456.000,-0.020387885136926544
257,457.000,-0.018488044782793076
258,458.000,-0.014210727558448719
259,459.000,-0.013638002269035963
260,460.000,0.001372390847586098
261,461.000,0.01043694608757273
262,462.000,0.010938082788467748
263,463.000,0.011253052696012308
264,464.000,0.007715811590511312
265,465.000,0.004308742299827893
266,466.000,0.0004145873758518349
267,467.000,-0.0012718475889144294
268,468.000,-0.0016275479385227103
269,469.000,-0.004173746525871018
270,470.000,0.0061605414543530095
271,471.000,0.015327486272802808
272,472.000,0.014871208666979377
273,473.000,0.014603415889985342
274,474.000,0.006973322996944099
275,475.000,0.009156104162613114
276,476.000,0.008806544938969499
277,477.000,0.0029825260270819913
278,478.000,-0.0034667442820625507
279,479.000,-0.0104558671606102
280,480.000,-0.011321342399731727
281,481.000,-0.011417558773180892
282,482.000,-0.013666087802262288
283,483.000,-0.014514284653687301
284,484.000,-0.015545169327968298
285,485.000,-0.005803934196017049
286,486.000,0.00035519682772400295
287,487.000,0.003170287146321803
288,488.000,0.0033542287118046325
289,489.000,0.004512898109988626
290,490.000,0.004155092650345048
291,491.000,0.010007662833362173
292,492.000,0.013525504306291026
293,493.000,0.008138267780358636
294,494.000,0.009866073493442507
295,495.000,0.011704879252280866
296,496.000,0.013047365416989634
297,497.000,0.003487054893006154
298,498.000,-0.004969439900374178
299,499.000,-0.007977329956748016
300,500.000,-0.009608761579719316
301,501.000,-0.0021605503613372516
302,502.000,0.0029121266186860474
303,503.000,-0.008384157257634719
304,504.000,0.002550392964311497
305,505.000,0.0065363888319127095
306,506.000,0.00103122545852861
307,507.000,-0.007479319004776353
308,508.000,-0.001862508332607914
309,509.000,0.001114272172966064
310,510.000,0.001437221782249922
311,511.000,0.003257638810589598
312,512.000,-0.0033336895223322516
313,513.000,-0.008869743837457521
314,514.000,-0.0013119804992262228
315,515.000,-0.0021148028384225916
316,516.000,-0.006386984269761296
317,517.000,-0.0008080196397335326
318,518.000,0.010748371845154406
319,519.000,0.012513681749083167
320,520.000,0.01536494280398968
321,521.000,0.0110931688230477
322,522.000,0.008060745690794612
323,523.000,0.01008227699495632
324,524.000,0.006388721648319238
325,525.000,0.002785361617666278
326,526.000,0.0024980495567968283
327,527.000,-0.0017400818593294378
328,528.000,0.0019553651852717356
329,529.000,0.002206175601870943
330,530.000,0.006081362053214059
331,531.000,0.006093489711057606
332,532.000,0.008067099856703527
333,533.000,0.002055053034298227
334,534.000,0.005144911082136186
335,535.000,-0.001160250942029941
336,536.000,-0.0002849017555666029
337,537.000,-0.0037170179624668466
338,538.000,0.00037168816202644663
339,539.000,0.001082748503936474
340,540.000,-0.0021559035370673895
341,541.000,-0.00046559052152583683
342,542.000,0.0009826571377307895
343,543.000,-0.004575359643472029
344,544.000,0.0015536349597425492
345,545.000,-0.0036651368596645095
346,546.000,-0.0014974436023212898
347,547.000,-0.0013862469395415286
348,548.000,-0.005907691231432248
349,549.000,-0.00868886596522535
350,550.000,-0.00760649153049643
351,551.000,0.001814599713126275
352,552.000,0.013973658480447682
353,553.000,0.023640636068415065
354,554.000,0.022984100184752984
355,555.000,0.02056297565534253
356,556.000,0.018015373974556565
357,557.000,0.009303722200476903
358,558.000,-0.0028172656735351138
359,559.000,-0.013479134065755042
360,560.000,-0.0101363511034512
361,561.000,-0.008100229866268217
362,562.000,-0.003954306701957651
363,563.000,-0.003883107659718375
364,564.000,-0.014072765425889642
365,565.000,-0.0055816002670364285
366,566.000,-0.005287231996862415
367,567.000,-0.006471970826621285
368,568.000,-0.00526766311839059
369,569.000,-0.002193353949171492
370,570.000,0.005005205713217027
371,571.000,0.008406863516585861
372,572.000,0.00474250605826447
373,573.000,-0.0003717461608453216
374,574.000,-0.0037263529944480097
375,575.000,0.005778073740833096
376,576.000,0.008928944657476694
377,577.000,0.0025137814000711616
378,578.000,0.003698965679200901
379,579.000,0.005017077429323803
380,580.000,0.00294232465332704
381,581.000,0.005842855355580157
382,582.000,0.001796924487655441
383,583.000,-0.004945079342188443
384,584.000,-0.012689643191367036
385,585.000,-0.007236344233540431
386,586.000,-0.003231743726890748
387,587.000,-0.00968528803659618
388,588.000,-0.007972560135077461
389,589.000,-0.003978671764036797
390,590.000,-0.0029802226409807626
391,591.000,0.0020696291974038683
392,592.000,0.004694841030898687
393,593.000,-0.0030219806151124745
394,594.000,0.00045584178059369815
395,595.000,0.00723387954836863
396,596.000,0.004965785274991471
397,597.000,-0.002521131589674614
398,598.000,-0.008849364196049153
399,599.000,-0.0021173004333821474
400,600.000,-0.0020250262730702588
401,601.000,-0.0018961058170744109
402,602.000,-0.0013241194853209454
403,603.000,-0.003949615892402857
404,604.000,0.00974798404599847
405,605.000,0.02027328876974015
406,606.000,0.018964937781894637
407,607.000,0.01862126440268452
408,608.000,0.01973186795805054
409,609.000,0.02785840273125662
410,610.000,0.03288073622672507
411,611.000,0.033482529380491864
412,612.000,0.027177599277297657
413,613.000,0.018046305510415857
414,614.000,0.0215502801673115
415,615.000,0.023593675515755613
416,616.000,0.02493159898490372
417,617.000,0.03495609337588481
418,618.000,0.03690463877062685
419,619.000,0.04467522441060272
420,620.000,0.046377484090813485
421,621.000,0.04767240345627506
422,622.000,0.044543829664783395
423,623.000,0.028141947702789116
424,624.000,0.021439030538867046
425,625.000,0.010748549505021288
426,626.000,0.011656983461130114
427,627.000,0.008784172417606494
428,628.000,-0.0020963205670214936
429,629.000,-0.003737674765375384
430,630.000,-0.004810675938320659
431,631.000,0.0032144949564805953
432,632.000,0.0025591048925363204
433,633.000,-0.0031569104269771383
434,634.000,-0.0015715759356321594
435,635.000,-0.0013515172925993928
436,636.000,0.009173772451661767
437,637.000,0.00923431454027425
438,638.000,0.010502605418875046
439,639.000,0.011049465722412423
440,640.000,0.005730190027059806
441,641.000,0.007611427966988971
442,642.000,0.0007597720174631358
443,643.000,-0.0029580507064033137
444,644.000,-0.0032206487877489056
445,645.000,-0.0012101924898793401
446,646.000,0.004684938434653275
447,647.000,0.005184919814716598
448,648.000,0.01216955752618387
449,649.000,0.010973070081256697
450,650.000,0.010644382355243202
451,651.000,0.016222901457942238
452,652.000,0.016050741197549945
453,653.000,0.011844754915876509
454,654.000,0.008980237993966852
455,655.000,-0.0006423566119267949
456,656.000,-0.006910446594886589
457,657.000,-0.011954383916181333
458,658.000,-0.012566012531079189
459,659.000,-0.010914395214277221
460,660.000,-0.007455801644868266
461,661.000,-0.0009914974814274051
462,662.000,0.00222180678449791
463,663.000,-0.001330278640258258
464,664.000,0.0014401442152536677
465,665.000,0.0008890701128927953
466,666.000,0.0046725152860773505
467,667.000,0.003735287811496096
468,668.000,0.001494675733560086
469,669.000,0.0017916235062129665
470,670.000,0.006192712232677648
471,671.000,0.00678371165027518
472,672.000,-0.0006839332999331562
473,673.000,0.00085990554059838
474,674.000,0.008242087402534435
475,675.000,0.004949839878956355
476,676.000,0.005972254745064775
477,677.000,0.01149278845712973
478,678.000,0.01526672462441119
479,679.000,0.021352496179296326
480,680.000,0.02417122532036645
481,681.000,0.0204896768644978
482,682.000,0.01655169404153745
483,683.000,0.01966079873635163
484,684.000,0.009132798182999573
485,685.000,0.002061713447905767
486,686.000,-0.0011207804122266357
487,687.000,-0.006798204608594034
488,688.000,-0.011678663997488223
489,689.000,-0.0068629830051432856
490,690.000,-0.008858197448016917
491,691.000,-0.003965352108016716
492,692.000,-0.0006370669855335116
493,693.000,-0.0005305416513708021
494,694.000,-0.002437830789262821
495,695.000,0.0008588730941401358
496,696.000,-0.0029760523797935693
497,697.000,-0.004503143396144702
498,698.000,-0.007152770417402975
499,699.000,-0.0007527393142797608
500,700.000,0.004056409700636986
501,701.000,0.0040815465028726065
502,702.000,0.007187601151324515
503,703.000,0.0030486240260306145
504,704.000,0.004969500741609625
505,705.000,-0.004182409763932393
506,706.000,-0.005523518344476195
507,707.000,-0.0006580022575634697
508,708.000,-0.007502984870748783
509,709.000,-0.01077297628779796
510,710.000,-0.011573836265713785
511,711.000,-0.011541055148013889
512,712.000,-0.006370266057385839
513,713.000,-0.009169250372753936
514,714.000,-0.010122954742989751
515,715.000,-0.008907455937036115
516,716.000,0.0022032046023400414
517,717.000,0.00977743035799005
518,718.000,0.0002745798252235559
519,719.000,-0.005696894906407114
520,720.000,-0.008348149827202373
521,721.000,-0.007915150863364404
522,722.000,-0.01164286530470086
523,723.000,-0.017055098042572298
524,724.000,-0.0157026157632504
525,725.000,-0.016639813052305594
526,726.000,-0.013164487071228293
527,727.000,-0.00582816834797296
528,728.000,-0.006226757430338108
529,729.000,-0.004421236478571513
530,730.000,0.0027962661703209986
531,731.000,0.005197751393643882
532,732.000,0.010056772192654165
533,733.000,0.0116236353279162
534,734.000,0.014230108462863678
535,735.000,0.004790079508291376
536,736.000,0.0049266361008759646
537,737.000,0.0058726106523220144
538,738.000,0.0033180216952489222
539,739.000,-0.0007652363535056311
540,740.000,0.0006449818592238056
541,741.000,-0.007648075591610787
542,742.000,-0.0024820451149931764
543,743.000,-0.00015561119098779136
544,744.000,0.0004645521520975547
545,745.000,0.0020875169500024194
546,746.000,0.002601711646850088
547,747.000,0.00018147359329104612
548,748.000,-0.0035566129966477255
549,749.000,-0.0037868459141870738
550,750.000,-0.0057067788518441525
551,751.000,-0.008999225637533251
552,752.000,-0.0024812451096319255
553,753.000,7.030953760329774e-05
554,754.000,-0.012065299796683868
555,755.000,-0.010383929928718335
556,756.000,-0.010873117117046166
557,757.000,-0.0146026127437751
558,758.000,-0.022753189481501648
559,759.000,-0.011436367976692783
560,760.000,-0.006326878157421892
561,761.000,-0.003432919584547875
562,762.000,-0.00041220217176102155
563,763.000,-0.005165366139854133
564,764.000,-0.008642916429139964
565,765.000,-0.00859761847091838
566,766.000,-0.007581398298176534
567,767.000,-0.01232722415038938
568,768.000,-0.01203722727572025
569,769.000,0.00154939712736424
570,770.000,0.0010529074541603665
571,771.000,-0.0006861868569553587
572,772.000,-0.0062009944998248955
573,773.000,-0.01235875849842736
574,774.000,-0.004696460894076843
575,775.000,-0.008568492785586827
576,776.000,-0.0010020900637895149
577,777.000,-0.003689377519883433
578,778.000,0.0016297508314641524
579,779.000,0.007297099419956513
580,780.000,0.006785713897353632
581,781.000,-0.004487747818607469
582,782.000,-0.011064204673096484
583,783.000,-0.01129491361166777
584,784.000,-0.01016710915932468
585,785.000,-0.00493112100911189
586,786.000,0.0033033348715735475
587,787.000,0.01211644569537595
588,788.000,0.01641313128022875
589,789.000,0.021573024473960454
590,790.000,0.021396379666496365
591,791.000,0.01341583655544959
592,792.000,0.011880415201796349
593,793.000,0.007283787475673871
594,794.000,0.005376590355460811
595,795.000,0.015352424480441561
596,796.000,0.011490076724116415
597,797.000,0.015382862231231179
598,798.000,0.01573771369468344
599,799.000,0.020871822668098273
600,800.000,0.022107404568642547
601,801.000,0.020205916922345985
602,802.000,0.017799119393592782
603,803.000,0.01722251527504425
604,804.000,0.012605234516615545
605,805.000,0.009519984912201615
606,806.000,-0.0020400019074640974
607,807.000,-0.0006795595553387679
608,808.000,0.0038343663187642893
609,809.000,0.006223654994468432
610,810.000,0.0034755897849858153
611,811.000,0.0006817089673627951
612,812.000,0.0034077796171014313
613,813.000,0.00012384067205656454
614,814.000,-0.0037563050458594817
615,815.000,-0.012067275182408032
616,816.000,-0.01083431637983827
617,817.000,-0.009084766124559064
618,818.000,-0.007057777021852072
619,819.000,-0.00782270626220505
620,820.000,-0.005103628895162839
621,821.000,-0.006508071459326598
622,822.000,-0.004816833930589611
623,823.000,0.0012283259461554064
624,824.000,0.008930990465335187
625,825.000,0.006300834219893569
626,826.000,0.010933821811741434
627,827.000,0.01041970982696253
628,828.000,-0.0012248750508434267
629,829.000,-0.012911090547657973
630,830.000,-0.01780276429068753
631,831.000,-0.03114383238828057
632,832.000,-0.0277430568705283
633,833.000,-0.014051962705970296
634,834.000,-0.007212418791046121
635,835.000,0.005813079634488667
636,836.000,0.016419909045991818
637,837.000,0.02475888895960958
638,838.000,0.01717293213235445
639,839.000,0.013179081486217332
640,840.000,0.00019705103311091837
641,841.000,-0.0095110698812232
642,842.000,-0.001690313619714952
643,843.000,-2.3763145197729565e-05
644,844.000,0.004815909489870627
645,845.000,0.006135649588397244
646,846.000,0.005967828140779655
647,847.000,0.0053968549286352654
648,848.000,-0.0002627275571660541
649,849.000,-0.012883077131540334
650,850.000,-0.01978023662146664
651,851.000,-0.022829517176294063
652,852.000,-0.016453208527412166
653,853.000,-0.012507946638603414
654,854.000,-0.008184920632745316
655,855.000,-0.005473711125932937
656,856.000,0.002512966038839116
657,857.000,0.005297210934557917
658,858.000,0.0060018251805826605
659,859.000,0.0018421530810461323
660,860.000,0.014360635482914424
661,861.000,0.006904262545812796
662,862.000,0.0047250365306912194
663,863.000,-0.002720168582762217
664,864.000,-0.012771593081382057
665,865.000,-0.010595381320221404
666,866.000,-0.015177064598138291
667,867.000,-0.017666139717024028
668,868.000,-0.01739546637953144
669,869.000,-0.009661396468618105
670,870.000,0.0011658835032114204
671,871.000,-0.005738493168032455
672,872.000,-0.004400891952914645
673,873.000,-0.004286347516624197
674,874.000,-0.00988300029546482
675,875.000,-0.022252239465922655
676,876.000,-0.027028235262367854
677,877.000,-0.02748647246440407
678,878.000,-0.021032856163053375
679,879.000,-0.017160609708984743
680,880.000,-0.012279448224926008
681,881.000,-0.013580721644232083
682,882.000,-0.008218322496585403
683,883.000,-0.0013353978124050624
684,884.000,-0.006816646541676218
685,885.000,-0.016495233398186777
686,886.000,-0.009812865408433303
687,887.000,-0.008810598968645372
688,888.000,0.0031785888115765716
689,889.000,0.0035582664273830587
690,890.000,0.006403966883519154
691,891.000,-0.0029849289154255487
692,892.000,-0.0061170025640270515
693,893.000,-0.002259636300181833
694,894.000,-0.005009666173747017
695,895.000,-0.010791887589914268
696,896.000,-0.002477421639101649
697,897.000,-0.0014538128886019677
698,898.000,-0.0021567609340288896
699,899.000,-0.002247376625578901
700,900.000,-0.008760698786575078
701,901.000,-0.014600952098892716
702,902.000,-0.012994395526732738
703,903.000,-0.007893482456761688
704,904.000,-0.007554060489823242
705,905.000,-0.008068503553096493
706,906.000,0.002842759548338205
707,907.000,0.009784037082995573
708,908.000,0.005746651744075889
709,909.000,0.005722200484359085
710,910.000,0.012462143819205924
711,911.000,0.007482496713829853
712,912.000,0.004529286667818721
713,913.000,0.01238271535793826
714,914.000,0.016574451510274358
715,915.000,0.0174855159867984
716,916.000,0.021419401325276807
717,917.000,0.024932408386013953
718,918.000,0.014838793502952249
719,919.000,0.01186380132870467
720,920.000,0.013319195861036096
721,921.000,-0.007033980350512279
722,922.000,-0.010344064102026491
723,923.000,-0.004095666248911296
724,924.000,-0.003099975902172284
725,925.000,0.00395223102649499
726,926.000,0.0057215621745572084
727,927.000,0.005181409198813374
728,928.000,0.008705873222801879
729,929.000,0.011740810887577169
730,930.000,0.007499849830832327
731,931.000,-0.0013488923090191971
732,932.000,-0.003852030017435035
733,933.000,-0.006462710290681556
734,934.000,-0.011190952234090851
735,935.000,-0.009472995148489326
736,936.000,-0.010194206052318239
737,937.000,-0.0025105687037748157
738,938.000,0.001767259472203072
739,939.000,0.005326165410426252
740,940.000,0.003954627944971989
741,941.000,0.006522881732923668
742,942.000,0.0104750127218251
743,943.000,0.016088415913899663
744,944.000,0.017541104639233033
745,945.000,0.018406027625500768
746,946.000,0.017229282104172565
747,947.000,0.013777571608802256
748,948.000,0.001443155729726751
749,949.000,-0.0021935901377270685
750,950.000,-0.0042285251200350525
751,951.000,-0.0033075704255116647
752,952.000,-0.0010012159680113147
753,953.000,0.007220456270520682
754,954.000,0.011075686798464459
755,955.000,0.010241810092277592
756,956.000,0.007421292965819063
757,957.000,-0.0016103459592713182
758,958.000,-0.0060299361780123
759,959.000,-0.00482402139047399
760,960.000,-0.0013617940317468954
761,961.000,-0.004275255294435497
762,962.000,-0.005155482696879846
763,963.000,-0.003420946458058398
764,964.000,-0.002237365997405261
765,965.000,-0.00459673033084392
766,966.000,-0.006456795129221253
767,967.000,-0.015547338880526632
768,968.000,-0.013762974117523077
769,969.000,-0.008056356584848014
770,970.000,-0.005511144558450238
771,971.000,-0.005917332200498699
772,972.000,-0.00296503743150402
773,973.000,0.003216922060483653
774,974.000,0.007274974622475816
775,975.000,0.005991152465460589
776,976.000,0.010527086329375724
777,977.000,0.009538636652413139
778,978.000,0.018982605555690577
779,979.000,0.024754162507478698
780,980.000,0.01927291303395362
781,981.000,0.017725952410604734
782,982.000,0.017463435418829998
783,983.000,0.014827625846791643
784,984.000,0.015093311517907411
785,985.000,0.007396325145766309
786,986.000,0.0036822992716489212
787,987.000,0.0030705137775255847
788,988.000,0.011099705995636243
789,989.000,0.006235968915559298
790,990.000,0.0021652039466241134
791,991.000,0.008241956172662174
792,992.000,0.01499659148980199
793,993.000,0.019700666055814633
794,994.000,0.03125770256462493
795,995.000,0.04544823681129858
796,996.000,0.07351483090028911
797,997.000,0.11480419652854487
798,998.000,0.16206914012961382
799,999.000,0.19347215004354265
800,1000.000,0.22650993382503604
801,1001.000,0.24103934852692538
802,1002.000,0.22956091401585552
803,1003.000,0.1970333295142709
804,1004.000,0.1595768565966325
805,1005.000,0.12354066252072705
806,1006.000,0.08354597906871511
807,1007.000,0.05173148888923036
808,1008.000,0.028137183419171673
809,1009.000,0.02020184859958416
810,1010.000,0.025111548788940348
811,1011.000,0.022307002713960612
812,1012.000,0.01398869879306526
813,1013.000,0.018416482107345377
814,1014.000,0.023998350395932223
815,1015.000,0.02283254585976717
816,1016.000,0.02728555799578901
817,1017.000,0.0208122714829326
818,1018.000,0.014087871650657688
819,1019.000,0.03117301762488864
820,1020.000,0.03445137610713557
821,1021.000,0.026873585046318132
822,1022.000,0.01879631806286908
823,1023.000,0.020563724700626777
824,1024.000,0.017351282566384706
825,1025.000,0.026729920041898614
826,1026.000,0.05015085674276692
827,1027.000,0.06368427592274824
828,1028.000,0.077215977679556
829,1029.000,0.10526239892314526
830,1030.000,0.11580145154247178
831,1031.000,0.1173964857660545
832,1032.000,0.11281793316058693
833,1033.000,0.10118040602444466
834,1034.000,0.0858477755324881
835,1035.000,0.07781176345502558
836,1036.000,0.06615458461018785
837,1037.000,0.041975291382420565
838,1038.000,0.024765900371771198
839,1039.000,0.018259486071758087
840,1040.000,0.013899931533477449
841,1041.000,0.0059555259730539
842,1042.000,0.007521223035999401
843,1043.000,0.012349962959182227
844,1044.000,0.020821274659277026
845,1045.000,0.017200956017968737
846,1046.000,0.013678421658029991
847,1047.000,0.009480222901014182
848,1048.000,0.012573065396113471
849,1049.000,0.00886660930000382
850,1050.000,0.005086444627571255
851,1051.000,-0.0027615299889268805
852,1052.000,-0.002990721883425563
853,1053.000,-0.005719793427706332
854,1054.000,-0.0030018636326065887
855,1055.000,-0.010858837719405686
856,1056.000,-0.0015879501035380356
857,1057.000,0.0013138922774290876
858,1058.000,0.0005058633674100105
859,1059.000,0.0008705348813084148
860,1060.000,0.0015277799829252253
861,1061.000,0.006644730134680407
862,1062.000,0.010370930552202194
863,1063.000,0.0042749290255755315
864,1064.000,0.008779862183695126
865,1065.000,0.01966972025123123
866,1066.000,0.0260969377953464
867,1067.000,0.02647871587234188
868,1068.000,0.026243797180229046
869,1069.000,0.022899619465978308
870,1070.000,0.011689982395520165
871,1071.000,0.007669319891024227
872,1072.000,0.005753238949164737
873,1073.000,-0.011843970759713125
874,1074.000,-0.01258209259626798
875,1075.000,-0.01130839847683222
876,1076.000,-0.010238642506173703
877,1077.000,-0.003451711334026323
878,1078.000,0.005640485491722617
879,1079.000,0.009830164342897648
880,1080.000,0.009529987623389392
881,1081.000,0.0103146341173337
882,1082.000,0.01679068880530133
883,1083.000,0.006467563904259008
884,1084.000,0.005607341389448037
885,1085.000,-0.004219078352518383
886,1086.000,-0.004045644592663764
887,1087.000,-0.011144364127532
888,1088.000,-0.011743538576980402
889,1089.000,-0.007974496610695023
890,1090.000,-0.00793392506927967
891,1091.000,-0.01568858534229936
892,1092.000,-0.013399706996156948
893,1093.000,-0.011983362381144141
894,1094.000,-0.006492632912392764
895,1095.000,-0.005388062552164777
896,1096.000,0.0038741317460894023
897,1097.000,0.004761551739019624
898,1098.000,0.015542762968063893
899,1099.000,0.02578834947599619
900,1100.000,0.02719687043227535
901,1101.000,0.012067325842834518
902,1102.000,0.010415713810113584
903,1103.000,0.005749987230697368
904,1104.000,-0.002212752960516959
905,1105.000,-0.010813983545423856
906,1106.000,-0.01690415292718186
907,1107.000,-0.014671220895597848
908,1108.000,-0.01069628281473795
909,1109.000,-0.006117575914835087
910,1110.000,0.0027568968060639994
911,1111.000,0.0008783775538417063
912,1112.000,0.010845710718568196
913,1113.000,0.017501544673495753
914,1114.000,0.01836990575719687
915,1115.000,0.019628885176932728
916,1116.000,0.021926552916439482
917,1117.000,0.02761135783326534
918,1118.000,0.017666170379432914
919,1119.000,0.016291427037776748
920,1120.000,0.01916166742825642
921,1121.000,0.012348259676224134
922,1122.000,0.00951653024628732
923,1123.000,0.006604896324915223
924,1124.000,0.004910704873681456
925,1125.000,0.006280478662590813
926,1126.000,0.01203932707548555
927,1127.000,0.012858561257549587
928,1128.000,0.010579087857578502
929,1129.000,0.017684185272770485
930,1130.000,0.020728920089089355
931,1131.000,0.014873380784838458
932,1132.000,0.016308784572188137
933,1133.000,0.011372999768964323
934,1134.000,0.01261511936648554
935,1135.000,0.003572955580658471
936,1136.000,0.0015562973131526129
937,1137.000,0.0065019384166172855
938,1138.000,0.008427201024817454
939,1139.000,0.013951477539910549
940,1140.000,0.01630187098008445
941,1141.000,0.013667877120851867
942,1142.000,0.013214228063353475
943,1143.000,0.002858939745522642
944,1144.000,0.0004821035262855386
945,1145.000,-0.005511422930124341
946,1146.000,-0.001986152882184366
947,1147.000,0.01127736690642459
948,1148.000,0.015196801903343247
949,1149.000,0.021811126134236938
950,1150.000,0.03656419336806221
951,1151.000,0.03690790701372384
952,1152.000,0.035942674736759155
953,1153.000,0.037270778721264636
954,1154.000,0.03745795461025882
955,1155.000,0.030633413105816364
956,1156.000,0.03366538743468357
957,1157.000,0.03198801585896196
958,1158.000,0.029365990850108558
959,1159.000,0.025252522343397553
960,1160.000,0.03141480517530299
961,1161.000,0.022595362186760785
962,1162.000,0.015609466778132531
963,1163.000,0.016480625324737475
964,1164.000,0.005171313864555147
965,1165.000,-0.006578237240204403
966,1166.000,-0.004930128968576635
967,1167.000,-0.006085326695679616
968,1168.000,-0.0007521214933863617
969,1169.000,-0.005145604095210322
970,1170.000,0.0005445138798264189
971,1171.000,0.0005576680830838251
972,1172.000,0.0022382382429024395
973,1173.000,0.000919377353702245
974,1174.000,0.0011395757520298456
975,1175.000,0.004038003969234897
976,1176.000,0.009414804214655279
977,1177.000,0.004012609735536571
978,1178.000,0.005375264157704885
979,1179.000,0.010312357176608502
980,1180.000,0.023915668079055614
981,1181.000,0.034456221076526516
982,1182.000,0.037008132084963764
983,1183.000,0.034903814076527054
984,1184.000,0.03473181172403854
985,1185.000,0.025074509217181684
986,1186.000,0.01323512659104356
987,1187.000,0.00023800560706030153
988,1188.000,0.002150942485990371
989,1189.000,0.008369708544663339
990,1190.000,0.009549243154516142
991,1191.000,0.017854679665712987
992,1192.000,0.02013776306019334
993,1193.000,0.016190361493738967
994,1194.000,0.012353917024959084
995,1195.000,-0.0017062348798755587
996,1196.000,-0.001133838138981055
997,1197.000,-0.00957432981340513
998,1198.000,-0.009806449358602599
999,1199.000,-0.011091102894753412
1000,1200.000,-0.008664916452024433
1001,1201.000,-0.004103041294890389
1002,1202.000,-0.002986723063748021
1003,1203.000,-0.0001503110774355349
1004,1204.000,0.004766472822077554
1005,1205.000,0.004654698836902342
1006,1206.000,0.006606571895073055
1007,1207.000,0.001509635382938849
1008,1208.000,0.012127240904217868
1009,1209.000,0.010671731672734261
1010,1210.000,0.014577720466713443
1011,1211.000,0.015638050627729005
1012,1212.000,0.010998288345799176
1013,1213.000,0.012639380804909684
1014,1214.000,0.010760785546821517
1015,1215.000,-0.0009867654096312763
1016,1216.000,-0.004959125365673821
1017,1217.000,-0.002161707963045329
1018,1218.000,-0.000805556054498373
1019,1219.000,0.00041029153247373147
1020,1220.000,0.006615505597567402
1021,1221.000,0.01265210863593663
1022,1222.000,0.008158645871745541
1023,1223.000,0.0037859691769774034
1024,1224.000,-0.0010079953032853073
1025,1225.000,-0.01706069944436354
1026,1226.000,-0.011574333320750165
1027,1227.000,-0.012235776194760288
1028,1228.000,-0.0060413803208503696
1029,1229.000,-1.4866421525876058e-05
1030,1230.000,0.005148285841855542
1031,1231.000,0.012803478566836559
1032,1232.000,0.012740337954637014
1033,1233.000,0.008708627685856814
1034,1234.000,0.007852042060406917
1035,1235.000,-0.0023448377911183937
1036,1236.000,-0.0022834114661157696
1037,1237.000,-0.005716883045282034
1038,1238.000,-0.004173650590200666
1039,1239.000,-0.01380705672249029
1040,1240.000,-0.018782793900853974
1041,1241.000,-0.011056637223470696
1042,1242.000,-0.011021557916048013
1043,1243.000,-0.012037818852222716
1044,1244.000,-0.006293463229550206
1045,1245.000,-0.006491806284423162
1046,1246.000,0.0019777713765116033
1047,1247.000,6.979828327402362e-05
1048,1248.000,-0.009584448347434521
1049,1249.000,-0.022329028218710727
1050,1250.000,-0.023959329423513448
1051,1251.000,-0.01917903989768799
1052,1252.000,-0.023779972430515047
1053,1253.000,-0.022177534698417625
1054,1254.000,-0.009965774226832093
1055,1255.000,0.00286184470439443
1056,1256.000,0.012420374771404166
1057,1257.000,0.010346835200557368
1058,1258.000,0.011815681609089537
1059,1259.000,0.011664517136123164
1060,1260.000,0.0056399555238532606
1061,1261.000,-0.007238039629355909
1062,1262.000,-0.018709703694174695
1063,1263.000,-0.025812364301437497
1064,1264.000,-0.027702806048347923
1065,1265.000,-0.01723429296910246
1066,1266.000,-0.018657992747795456
1067,1267.000,-0.011253258963976727
1068,1268.000,-0.003989285209870531
1069,1269.000,0.0014127765868017755
1070,1270.000,0.004722574560036374
1071,1271.000,0.0020374521410355144
1072,1272.000,-0.004377797709887421
1073,1273.000,-0.003903402353860036
1074,1274.000,-0.0005023591653677076
1075,1275.000,0.010812256051069582
1076,1276.000,0.004672352934575696
1077,1277.000,0.006091892234574526
1078,1278.000,0.0023743096641515565
1079,1279.000,0.002260528325049178
1080,1280.000,0.009944050415336409
1081,1281.000,0.0021081014238543473
1082,1282.000,-0.005392546896424328
1083,1283.000,-0.0026753383077360916
1084,1284.000,0.0004799524192871559
1085,1285.000,0.0035267657339957967
1086,1286.000,-0.00961012238650067
1087,1287.000,-0.012594134318363545
1088,1288.000,-0.010842854134374155
1089,1289.000,-0.00962232308050296
1090,1290.000,-0.003643749911988861
1091,1291.000,-0.007143725513506252
1092,1292.000,-0.01792490006703282
1093,1293.000,-0.01867492735717539
1094,1294.000,-0.011373408482521956
1095,1295.000,-0.010939363120205426
1096,1296.000,-0.02053463631021247
1097,1297.000,-0.014632193449631665
1098,1298.000,-0.0016151830165487722
1099,1299.000,-0.0020382310581872477
1100,1300.000,-0.005241316434567724
1101,1301.000,-0.005509999057263365
1102,1302.000,-0.014221254509430464
1103,1303.000,-0.015237765753668637
1104,1304.000,-0.009570471135157436
1105,1305.000,-0.004747166374116051
1106,1306.000,-0.0034565189908377053
1107,1307.000,0.003916366212654473
1108,1308.000,0.005551694592023552
1109,1309.000,0.0044098255025385065
1110,1310.000,0.001233951460677417
1111,1311.000,0.0008548326120781955
1112,1312.000,-0.0030755907513277257
1113,1313.000,-0.006485753938450187
1114,1314.000,-0.0022678536375694345
1115,1315.000,0.004544701567332758
1116,1316.000,0.003270439305039275
1117,1317.000,0.0007066960698043772
1118,1318.000,0.0007895331914966001
1119,1319.000,0.003473689442226181
1120,1320.000,-0.00414011017271303
1121,1321.000,-0.011726822344612723
1122,1322.000,-0.015015246038323528
1123,1323.000,-0.013367089055215711
1124,1324.000,-0.017933344934172396
1125,1325.000,-0.015162331269555664
1126,1326.000,-0.019805499948086957
1127,1327.000,-0.01933839339228639
1128,1328.000,-0.018228621112518183
1129,1329.000,-0.015533453609188739
1130,1330.000,-0.01682668541847189
1131,1331.000,-0.017656850018146073
1132,1332.000,-0.01403859081270425
1133,1333.000,-0.007865700513358284
1134,1334.000,-0.0060627373564615065
1135,1335.000,0.007333731845232288
1136,1336.000,0.010285048387458641
1137,1337.000,0.008148036727602023
1138,1338.000,0.0032381088239530004
1139,1339.000,0.002089312605104108
1140,1340.000,-0.004383799621998935
1141,1341.000,-0.004103497064541693
1142,1342.000,-0.0041126748725774705
1143,1343.000,0.001550335532284456
1144,1344.000,0.0028879104926575567
1145,1345.000,0.01809948522972775
1146,1346.000,0.018753571497837313
1147,1347.000,0.014909083917127662
1148,1348.000,0.008814743059745212
1149,1349.000,0.006699616934959756
1150,1350.000,0.0019491043172559716
1151,1351.000,0.0059185599721961555
1152,1352.000,0.0031211021490275713
1153,1353.000,-0.00303466240045267
1154,1354.000,-0.006840080660254774
1155,1355.000,0.0049440502734979935
1156,1356.000,0.005111801831287247
1157,1357.000,0.00403625519177647
1158,1358.000,0.0013889737476555461
1159,1359.000,0.007793244886684638
1160,1360.000,0.003915783341243082
1161,1361.000,0.004777022150009641
1162,1362.000,0.004511669371126496
1163,1363.000,-0.0032546243690425784
1164,1364.000,-0.0005488975262868119
1165,1365.000,0.009380092871365433
1166,1366.000,0.012731511398518358
1167,1367.000,0.008314357756269172
1168,1368.000,0.016459153272052267
1169,1369.000,0.020234344378735496
1170,1370.000,0.018597294561363196
1171,1371.000,0.020567472710387138
1172,1372.000,0.0203816134303324
1173,1373.000,0.01605046695398802
1174,1374.000,0.016041702896927378
1175,1375.000,0.014703193486777238
1176,1376.000,0.014526963845710639
1177,1377.000,0.007816224177805683
1178,1378.000,0.01116121594505818
1179,1379.000,0.006893835099509563
1180,1380.000,0.006550577515841207
1181,1381.000,0.007397665086030811
1182,1382.000,0.006940363400819813
1183,1383.000,0.005706164961123057
1184,1384.000,0.0034476679133185794
1185,1385.000,0.005125113358982589
1186,1386.000,-0.0004597442218246218
1187,1387.000,-0.009319501138214793
1188,1388.000,-0.009847988521472421
1189,1389.000,-0.007620583863385367
1190,1390.000,-0.008025272771103965
1191,1391.000,0.0007152474633110545
1192,1392.000,0.004131767286022997
1193,1393.000,0.004834038275374744
1194,1394.000,0.004431203021576711
1195,1395.000,0.008554686330251958
1196,1396.000,0.004124192312245866
1197,1397.000,0.0019542856778474553
1198,1398.000,0.00312456338776373
1199,1399.000,0.002270735477064091
1200,1400.000,0.0023344858987690816
1201,1401.000,0.009169537895949655
1202,1402.000,0.006574603282180581
1203,1403.000,0.0014305502791371473
1204,1404.000,-0.0027841105731121617
1205,1405.000,-0.0002508942109422884
1206,1406.000,-0.00020173618645772374
1207,1407.000,-0.008974365317711773
1208,1408.000,-0.01684443647623057
1209,1409.000,-0.021418837261807596
1210,1410.000,-0.012244299584342823
1211,1411.000,-0.008098809556933997
1212,1412.000,-0.005983981532642011
1213,1413.000,-0.003901595260878932
1214,1414.000,-0.0014128644355624912
1215,1415.000,-0.005834221898638451
1216,1416.000,-0.012037439570192486
1217,1417.000,-0.01813805186740703
1218,1418.000,-0.023374500696179967
1219,1419.000,-0.019032567722784253
1220,1420.000,-0.012732538795987236
1221,1421.000,-0.007265326232186755
1222,1422.000,-0.003941398292516531
1223,1423.000,0.0027197349659324205
1224,1424.000,0.0012473622488239219
1225,1425.000,-0.013664875494845774
1226,1426.000,-0.02191990505343796
1227,1427.000,-0.023480357356564334
1228,1428.000,-0.016264872732689787
1229,1429.000,-0.006216032252014095
1230,1430.000,-0.001307807787847927
1231,1431.000,0.008915603855387757
1232,1432.000,0.011886078963783173
1233,1433.000,0.021842744050662024
1234,1434.000,0.02463202950899112
1235,1435.000,0.01702307866754269
1236,1436.000,0.012457432637679426
1237,1437.000,0.019249877974948326
1238,1438.000,0.026672063078308203
1239,1439.000,0.02718473444999432
1240,1440.000,0.02798692864192639
1241,1441.000,0.03342283983474616
1242,1442.000,0.028757000759705324
1243,1443.000,0.03031949204389624
1244,1444.000,0.03501417290124092
1245,1445.000,0.045351236746387955
1246,1446.000,0.049278825932393425
1247,1447.000,0.06017273971483501
1248,1448.000,0.0658875496402104
1249,1449.000,0.06118428370547412
1250,1450.000,0.061381456701217
1251,1451.000,0.06111990767318045
1252,1452.000,0.041592231926128695
1253,1453.000,0.03868202157309469
1254,1454.000,0.0372152780929959
1255,1455.000,0.03983087137213546
1256,1456.000,0.02918740758945532
1257,1457.000,0.023293922832178283
1258,1458.000,0.018603515655036422
1259,1459.000,0.012370227192509145
1260,1460.000,0.010566675222959567
1261,1461.000,0.0073781469532518806
1262,1462.000,0.0048577477508508745
1263,1463.000,0.006035965606811338
1264,1464.000,0.010887480760941683
1265,1465.000,0.015468336203151228
1266,1466.000,0.01709027801551471
1267,1467.000,0.01824415370890764
1268,1468.000,0.02354408693428716
1269,1469.000,0.020972434229425015
1270,1470.000,0.0234058629479841
1271,1471.000,0.021014917555133693
1272,1472.000,0.027398507254135077
1273,1473.000,0.017737825857010517
1274,1474.000,0.020042963314396752
1275,1475.000,0.02410906661357163
1276,1476.000,0.02160243120163177
1277,1477.000,0.019965781941476263
1278,1478.000,0.017919077055414408
1279,1479.000,0.011848419445561397
1280,1480.000,0.013365356233538158
1281,1481.000,0.00941517730512629
1282,1482.000,0.016334027455578413
1283,1483.000,0.01488472616116148
1284,1484.000,0.01680892314148124
1285,1485.000,0.01938056888982269
1286,1486.000,0.018203528924711773
1287,1487.000,0.01944711691329394
1288,1488.000,0.009204114253991076
1289,1489.000,0.004853496071817163
1290,1490.000,-0.0006770027562587693
1291,1491.000,-0.008338943665041143
1292,1492.000,-0.007518693738989835
1293,1493.000,-0.011752256998851143
1294,1494.000,-0.011855437088261169
1295,1495.000,-0.011271028351576654
1296,1496.000,-0.003926109765125759
1297,1497.000,-0.0037841894587761684
1298,1498.000,-0.00470333297666662
1299,1499.000,-0.0009567344277161751
1300,1500.000,0.003765599592741702
1301,1501.000,0.002240711811615729
1302,1502.000,0.008073680759995873
1303,1503.000,0.012765527798668049
1304,1504.000,0.019093107267412587
1305,1505.000,0.02179532755538227
1306,1506.000,0.02563766226225178
1307,1507.000,0.031256388383341896
1308,1508.000,0.029843391372525056
1309,1509.000,0.0201420115630534
1310,1510.000,0.012296363755947453
1311,1511.000,0.002572474980590725
1312,1512.000,-0.0036675896733163247
1313,1513.000,-0.006673926475410821
1314,1514.000,-0.0035715660872126793
1315,1515.000,0.0017583152752412008
1316,1516.000,0.0014328270615104437
1317,1517.000,0.0030118117404056145
1318,1518.000,0.0007584010572798803
1319,1519.000,0.005528334201479719
1320,1520.000,0.010643415822762558
1321,1521.000,0.005748802487473954
1322,1522.000,0.0048011588442898444
1323,1523.000,0.007410470801220765
1324,1524.000,0.008553419253786245
1325,1525.000,0.011242483712955385
1326,1526.000,0.004864067176180472
1327,1527.000,-0.0018164622932215298
1328,1528.000,-0.0015705448911972598
1329,1529.000,0.0013181020961385269
1330,1530.000,0.0075098037562364725
1331,1531.000,0.00822000743630324
1332,1532.000,0.01365358916611843
1333,1533.000,0.013395248072858459
1334,1534.000,0.005603901333323486
1335,1535.000,0.0084706280730249
1336,1536.000,0.005023555610957922
1337,1537.000,-0.00047457514024588985
1338,1538.000,-0.007149980087034066
1339,1539.000,-0.008558263783446155
1340,1540.000,-0.0018194917380018496
1341,1541.000,0.005614489728495983
1342,1542.000,0.005925713287757023
1343,1543.000,0.006019398181985659
1344,1544.000,0.003432771284340997
1345,1545.000,0.006680342034959683
1346,1546.000,0.010128561742520597
1347,1547.000,0.009413136944573096
1348,1548.000,0.003784202944876478
1349,1549.000,0.003973582418079049
1350,1550.000,0.0022090969002224363
1351,1551.000,-0.0031177462934796263
1352,1552.000,-0.009633083907493517
1353,1553.000,-0.007794046203321413
1354,1554.000,-0.009575539958100142
1355,1555.000,0.0004157562576964685
1356,1556.000,0.00906388430969374
1357,1557.000,0.005127180554092062
1358,1558.000,0.005146743996221411
1359,1559.000,0.004428008519913457
1360,1560.000,0.0046783356276391365
1361,1561.000,0.00587257310769601
1362,1562.000,0.006725051421101541
1363,1563.000,0.01557731249824854
1364,1564.000,0.019404331525249115
1365,1565.000,0.030457784455272585
1366,1566.000,0.02985139404442527
1367,1567.000,0.02184407800522478
1368,1568.000,0.0201362877765615
1369,1569.000,0.010130093503574994
1370,1570.000,0.008484858486332826
1371,1571.000,0.006133891092395585
1372,1572.000,0.009082700617115394
1373,1573.000,0.02145262317467909
1374,1574.000,0.02449800923449565
1375,1575.000,0.025649556422303932
1376,1576.000,0.027334552070026788
1377,1577.000,0.029561152642145986
1378,1578.000,0.03678736413079226
1379,1579.000,0.0435598427627247
1380,1580.000,0.05822290099558205
1381,1581.000,0.06258227814197595
1382,1582.000,0.06864283214307501
1383,1583.000,0.07100427766444951
1384,1584.000,0.05994043240143815
1385,1585.000,0.04742407441148344
1386,1586.000,0.03931282846897293
1387,1587.000,0.029329550338806677
1388,1588.000,0.029797091611982737
1389,1589.000,0.035689988836212126
1390,1590.000,0.049192957561318286
1391,1591.000,0.05297234498233926
1392,1592.000,0.06005823909451478
1393,1593.000,0.0690564130421799
1394,1594.000,0.0657585387518817
1395,1595.000,0.07015927592495161
1396,1596.000,0.081909095788816
1397,1597.000,0.09063738064529066
1398,1598.000,0.10637352068814315
1399,1599.000,0.12122935292476596
1400,1600.000,0.14678595897116598
1401,1601.000,0.15674051824456167
1402,1602.000,0.16395278743996058
1403,1603.000,0.15826603841800088
1404,1604.000,0.14396288032186852
1405,1605.000,0.13395988691081018
1406,1606.000,0.12293042276708549
1407,1607.000,0.10591311038768417
1408,1608.000,0.0903030869441613
1409,1609.000,0.07465944175544305
1410,1610.000,0.0657800701822654
1411,1611.000,0.04664470799774914
1412,1612.000,0.031052610003103227
1413,1613.000,0.020390282211928297
1414,1614.000,0.012239439497217963
1415,1615.000,0.009027860911908643
1416,1616.000,0.008875675269575353
1417,1617.000,0.007946166178949684
1418,1618.000,0.006666158341552162
1419,1619.000,0.0009845064040856831
1420,1620.000,-0.006903942216976151
1421,1621.000,-0.007893572091244585
1422,1622.000,-0.005027355725801317
1423,1623.000,-0.00775952577456137
1424,1624.000,-0.001920144295416932
1425,1625.000,0.002591889014658961
1426,1626.000,0.00563940883950487
1427,1627.000,0.013397608061845676
1428,1628.000,0.01741436961727281
1429,1629.000,0.011324830352433096
1430,1630.000,0.0071488325887861335
1431,1631.000,0.012668552559071726
1432,1632.000,0.011338618937147212
1433,1633.000,-0.007611757392533121
1434,1634.000,-0.006402123664988677
1435,1635.000,-0.007913614681855863
1436,1636.000,-0.011710069961724795
1437,1637.000,-0.002780805129500033
1438,1638.000,0.0022503040826011363
1439,1639.000,0.007036110753609028
1440,1640.000,0.010113185007032104
1441,1641.000,0.014930043127701298
1442,1642.000,0.0074949801914337396
1443,1643.000,-0.007624987322104395
1444,1644.000,-0.011464673445479474
1445,1645.000,-0.01270023939694238
1446,1646.000,-0.01931658615065699
1447,1647.000,-0.023227474939484585
1448,1648.000,-0.02141840889312513
1449,1649.000,-0.015486547036864225
1450,1650.000,-0.013388171085348677
1451,1651.000,-0.0039406077103113155
1452,1652.000,-0.004641403267424061
1453,1653.000,-1.0060090607115076e-05
1454,1654.000,0.008089402159962527
1455,1655.000,0.012461628145031553
1456,1656.000,0.015000884847664337
1457,1657.000,0.012876729786334907
1458,1658.000,0.018496680694189197
1459,1659.000,0.018427987469027268
1460,1660.000,0.01386020991420496
1461,1661.000,0.010083722644248514
1462,1662.000,-0.0007088699526780829
1463,1663.000,-0.004924503880995705
1464,1664.000,-0.005274742144985584
1465,1665.000,-0.004231869832481737
1466,1666.000,-0.0007949765331226315
1467,1667.000,0.007977362560794796
1468,1668.000,0.011748419769368055
1469,1669.000,0.011361711282996888
1470,1670.000,0.014576672713108056
1471,1671.000,0.014834714003591657
1472,1672.000,0.010097632080086062
1473,1673.000,0.008755502741281233
1474,1674.000,0.004509892664047513
1475,1675.000,0.020070608940568654
1476,1676.000,0.018500806792250097
1477,1677.000,0.013720833914188693
1478,1678.000,0.0002069765836820552
1479,1679.000,-0.0075439439826981425
1480,1680.000,-0.006859564163300722
1481,1681.000,-0.01033168275165217
1482,1682.000,-0.005604417170722122
1483,1683.000,0.001157698177269069
1484,1684.000,0.006180863829624556
1485,1685.000,0.022061073683425615
1486,1686.000,0.01746365411559128
1487,1687.000,0.013183162550216485
1488,1688.000,0.006740184599189787
1489,1689.000,0.0022101481253886633
1490,1690.000,-0.0005917574749319185
1491,1691.000,-0.001560952585496242
1492,1692.000,0.01321129960506001
1493,1693.000,0.00970208668503638
1494,1694.000,0.007608053428962273
1495,1695.000,0.0015942539872378777
1496,1696.000,-0.004720619641295045
1497,1697.000,-0.009313609153381922
1498,1698.000,-0.011600570338575018
1499,1699.000,-0.015985575532553385
1500,1700.000,-0.014223061143800104
1501,1701.000,-0.000553169906785972
1502,1702.000,0.012484067750958108
1503,1703.000,0.012195842108046561
1504,1704.000,0.01749051197152224
1505,1705.000,0.01468147508787124
1506,1706.000,0.011878039563378276
1507,1707.000,0.002375039559209905
1508,1708.000,-0.0019471819989071556
1509,1709.000,-0.006615578689758351
1510,1710.000,0.0017096080420678813
1511,1711.000,0.008140336671660555
1512,1712.000,0.01234829830677873
1513,1713.000,0.013507535862437553
1514,1714.000,0.012574545162322117
1515,1715.000,0.010298100261892332
1516,1716.000,0.010602321131136105
1517,1717.000,0.002193508789920806
1518,1718.000,0.0006188920276611274
1519,1719.000,0.005396913944560563
1520,1720.000,0.004657080732656575
1521,1721.000,0.0018298405808590277
1522,1722.000,0.01164063966633639
1523,1723.000,0.007325385571029721
1524,1724.000,0.005912405664045015
1525,1725.000,0.005299831691969569
1526,1726.000,0.0041978622994292905
1527,1727.000,-0.00368041523852575
1528,1728.000,-0.0096120053343043
1529,1729.000,-0.011184031229900238
1530,1730.000,-0.014032091266353842
1531,1731.000,-0.008912300819942567
1532,1732.000,-0.009062215843445673
1533,1733.000,-0.014378415068985633
1534,1734.000,-0.00642785904105352
1535,1735.000,-0.007667800084929085
1536,1736.000,-0.015321560023055358
1537,1737.000,-0.02190124759672291
1538,1738.000,-0.017245108862965593
1539,1739.000,-0.015969504526920305
1540,1740.000,-0.008118086000865077
1541,1741.000,-0.0032635238699631063
1542,1742.000,-0.004496715972993436
1543,1743.000,0.0021971026824782157
1544,1744.000,0.005373494438207933
1545,1745.000,0.0009743402974918134
1546,1746.000,-0.005113837490007164
1547,1747.000,-0.008057429562083633
1548,1748.000,-0.004674863742783062
1549,1749.000,-0.008548987138855064
1550,1750.000,-0.0029172896585719587
1551,1751.000,0.0008332267928451274
1552,1752.000,0.007142725836755238
1553,1753.000,0.005975827142570104
1554,1754.000,0.007688264993353191
1555,1755.000,0.011399147568284541
1556,1756.000,0.013046285980214659
1557,1757.000,0.006704168194468138
1558,1758.000,0.00927750191496627
1559,1759.000,0.006053025144267035
1560,1760.000,0.004580900579809062
1561,1761.000,0.006192512569205474
1562,1762.000,0.004347589258127715
1563,1763.000,0.00441018782812567
1564,1764.000,0.014238951902948948
1565,1765.000,0.018434525790276116
1566,1766.000,0.012841122287629354
1567,1767.000,0.008745379808723343
1568,1768.000,0.00822074748293635
1569,1769.000,0.002176299681179726
1570,1770.000,-0.0003995966267693224
1571,1771.000,-0.001866326124395505
1572,1772.000,-0.009606108438126402
1573,1773.000,-0.007687183922508438
1574,1774.000,-0.00030728699928652396
1575,1775.000,-0.0019974596443970245
1576,1776.000,-0.006307612472893245
1577,1777.000,-0.004899377294893695
1578,1778.000,-0.004308992572566714
1579,1779.000,-0.0008900134663098319
1580,1780.000,0.0057130615322248356
1581,1781.000,0.007863464181977366
1582,1782.000,0.010412274711408969
1583,1783.000,0.01543793258815848
1584,1784.000,0.01820719791992019
1585,1785.000,0.011928786345246791
1586,1786.000,0.014028341711444384
1587,1787.000,0.006701666928180727
1588,1788.000,-0.0013950126769594327
1589,1789.000,-0.0029870950737718536
1590,1790.000,-0.0013864266610283168
1591,1791.000,-0.0037886683709565665
1592,1792.000,-0.0036540390908960537
1593,1793.000,-0.0017519437168124576
1594,1794.000,-0.009613091987662506
1595,1795.000,-0.009090857028001146
1596,1796.000,-0.003888722898420289
1597,1797.000,-0.002991737103024429
1598,1798.000,-0.010838103493381783
1599,1799.000,-0.005859657793503089
1600,1800.000,-0.0075287111050367376
1601,1801.000,-0.007510624594617056
1602,1802.000,-0.019336337911563105
1603,1803.000,-0.017949984722161246
1604,1804.000,-0.01696287416629662
1605,1805.000,-0.010868633278294598
1606,1806.000,-0.005379340793332306
1607,1807.000,-0.0027190367193280457
1608,1808.000,-0.0012683455453303069
1609,1809.000,0.013845239740515429
1610,1810.000,0.010163021360497487
1611,1811.000,0.011792487658571564
1612,1812.000,-0.0017223516053559062
1613,1813.000,0.001976978548145612
1614,1814.000,0.01082758016378614
1615,1815.000,0.0028485332686649977
1616,1816.000,0.0023138368252603116
1617,1817.000,-0.0014594911068989995
1618,1818.000,0.0009415661710282205
1619,1819.000,0.008852775482679043
1620,1820.000,0.006559759441026335
1621,1821.000,0.007560672644471731
1622,1822.000,-0.00015872374737089766
1623,1823.000,0.004686770102630873
1624,1824.000,0.01570525940190229
1625,1825.000,0.007789881725632774
1626,1826.000,0.0045129836187955295
1627,1827.000,0.0010102484674729972
1628,1828.000,0.001043242080021184
1629,1829.000,-0.004562511965638118
1630,1830.000,-0.009896152842117756
1631,1831.000,-0.013201763783481058
1632,1832.000,-0.010594486144151287
1633,1833.000,-0.00022939905532418933
1634,1834.000,0.008325693966453477
1635,1835.000,0.0025545384568256384
1636,1836.000,-0.001956032111697792
1637,1837.000,0.002396575673764553
1638,1838.000,0.009180909081804937
1639,1839.000,-0.003679413587857415
1640,1840.000,-0.008633748108210021
1641,1841.000,-0.006755074892264307
1642,1842.000,-0.002219968672816148
1643,1843.000,0.0015229970478903663
1644,1844.000,0.00709231099639891
1645,1845.000,0.005495177876874786
1646,1846.000,0.010344476893145499
1647,1847.000,0.012816759549668844
1648,1848.000,0.01380556330573898
1649,1849.000,0.008375244852861627
1650,1850.000,0.0019603840938690097
1651,1851.000,-0.0015740770149425237
1652,1852.000,-0.0033428336245574677
1653,1853.000,-0.002667440161487655
1654,1854.000,-0.004043470234734369
1655,1855.000,0.0010356216696030677
1656,1856.000,0.0064989518657118965
1657,1857.000,0.00737764752902749
1658,1858.000,0.007338775496313644
1659,1859.000,0.008888078856819493
1660,1860.000,0.007807171503703132
1661,1861.000,0.007331717559755302
1662,1862.000,0.0029334038504219345
1663,1863.000,-0.003866058182480576
1664,1864.000,-0.009077423940253111
1665,1865.000,-0.0031058259274064242
1666,1866.000,-0.004641025883180426
1667,1867.000,0.008576477340202756
1668,1868.000,0.015019976251921039
1669,1869.000,0.01728756098908702
1670,1870.000,0.017686253518483904
1671,1871.000,0.009717684203267898
1672,1872.000,-0.004206088957044191
1673,1873.000,-0.010517833034381061
1674,1874.000,-0.014378060269376948
1675,1875.000,-0.014767972153133763
1676,1876.000,-0.021104837698152062
1677,1877.000,-0.011191522155971245
1678,1878.000,-0.006694472145739152
1679,1879.000,-0.007772727548556108
1680,1880.000,-0.007425229820571727
1681,1881.000,-0.0054155388952851985
1682,1882.000,-0.008214864642925595
1683,1883.000,0.003261601761735072
1684,1884.000,0.0020085769093293694
1685,1885.000,0.008974207920797395
1686,1886.000,0.006239917396386513
1687,1887.000,0.01025217048142433
1688,1888.000,0.016104599461444838
1689,1889.000,0.01675563080412654
1690,1890.000,0.013043683180517303
1691,1891.000,0.015565764045360893
1692,1892.000,0.00956141616373427
1693,1893.000,0.004203810988858792
1694,1894.000,0.0010829440520864363
1695,1895.000,0.007652822946801268
1696,1896.000,0.0016781838734534855
1697,1897.000,5.5246426575701526e-05
1698,1898.000,0.0028565982374200312
1699,1899.000,0.005155797213592785
1700,1900.000,0.0004458439563891122
1701,1901.000,0.0055850086606989485
1702,1902.000,0.004832276817583549
1703,1903.000,0.0025827487366320845
1704,1904.000,0.013099591617301665
1705,1905.000,0.019104992224783273
1706,1906.000,0.011901519445046346
1707,1907.000,0.012888329714552274
1708,1908.000,0.017250565881323256
1709,1909.000,0.014730390787664175
1710,1910.000,0.012993676026258406
1711,1911.000,0.012849654944452208
1712,1912.000,0.017115364676839884
1713,1913.000,0.016498456554235038
1714,1914.000,0.016087522060676943
1715,1915.000,0.013698361960623625
1716,1916.000,0.012068938809787514
1717,1917.000,0.007401322534949674
1718,1918.000,-0.003758417301219661
1719,1919.000,-0.006683098730776387
1720,1920.000,-0.0035362367378795195
1721,1921.000,-0.006603857808097871
1722,1922.000,-0.0006015877378573971
1723,1923.000,-0.002611000078912855
1724,1924.000,-0.0065471826009704465
1725,1925.000,-0.004150028662007603
1726,1926.000,-0.005612022982313317
1727,1927.000,-0.009358654385628355
1728,1928.000,-0.00407469739836134
1729,1929.000,0.00818177621169699
1730,1930.000,0.009220004116624558
1731,1931.000,0.014649623690098996
1732,1932.000,0.0193590206741378
1733,1933.000,0.013342589216790839
1734,1934.000,0.0016273278860255587
1735,1935.000,-0.008444414926748682
1736,1936.000,-0.028421502530500967
1737,1937.000,-0.036772803809575955
1738,1938.000,-0.02884494415517321
1739,1939.000,-0.023346356678725297
1740,1940.000,-0.02565681718450005
1741,1941.000,-0.017819581440110845
1742,1942.000,-0.008159799835014228
1743,1943.000,0.00048109599162610156
1744,1944.000,0.005500131525000567
1745,1945.000,0.008552854700644243
1746,1946.000,-0.00022323570467061907
1747,1947.000,-0.005583171514354721
1748,1948.000,-6.57663516055335e-05
1749,1949.000,-0.00072559117495769
1750,1950.000,-0.004014244826076874
1751,1951.000,0.0020948399609387386
1752,1952.000,0.009013299318395725
1753,1953.000,0.025771860086985905
1754,1954.000,0.03167282465585785
1755,1955.000,0.03366095335436173
1756,1956.000,0.026636416702993566
1757,1957.000,0.017730351520737025
1758,1958.000,0.006631293748340525
1759,1959.000,-0.0028565427478696955
1760,1960.000,-0.004205401159837956
1761,1961.000,-0.01417155390191167
1762,1962.000,-0.02040967692767401
1763,1963.000,-0.018841010787346027
1764,1964.000,-0.0257572428967306
1765,1965.000,-0.018193915859685956
1766,1966.000,-0.014613328517214452
1767,1967.000,-0.009526244693679738
1768,1968.000,-0.0016641686335771072
1769,1969.000,0.008921815876106262
1770,1970.000,0.01822196712799771
1771,1971.000,0.016845170682723867
1772,1972.000,0.019385726689478862
1773,1973.000,0.014264104877176689
1774,1974.000,0.00869967217769705
1775,1975.000,0.008989456333389047
1776,1976.000,0.002889486608687669
1777,1977.000,0.0028420872933707752
1778,1978.000,0.0026650187959137667
1779,1979.000,0.0031341457130318424
1780,1980.000,0.0037520643704555515
1781,1981.000,0.008484405175399263
1782,1982.000,0.015128906675518689
1783,1983.000,0.017861007349703122
1784,1984.000,0.012574724135291664
1785,1985.000,0.010533744832406712
1786,1986.000,0.007912945382587517
1787,1987.000,0.0027000154844516863
1788,1988.000,0.0005564667774699536
1789,1989.000,-0.002915021591034473
1790,1990.000,-0.006542529749583726
1791,1991.000,-0.00044923541431613005
1792,1992.000,0.007769297145197844
1793,1993.000,0.006398801976907981
1794,1994.000,0.003589738831203718
1795,1995.000,-0.0037731088364730504
1796,1996.000,-0.010773043745097338
1797,1997.000,-0.01640088248440101
1798,1998.000,-0.01911267828668002
1799,1999.000,-0.01736448438423049
1800,2000.000,-0.009612354009348574
