pixel_index,raman_shift_cm-1,intensity
0,200.000,0.9076375825630407
1,201.000,8.827534184554338
2,202.000,11.179429243948675
3,203.000,-1.2142381480820745
4,204.000,1.6915691289494816
5,205.000,-6.1794967751970376
6,206.000,0.7690173184666378
7,207.000,-5.365731381885723
8,208.000,0.39260736106137983
9,209.000,7.4277928137220215
10,210.000,6.578262271565279
11,211.000,2.5837870590719376
12,212.000,-6.976863470308899
13,213.000,-0.27210693420340704
14,214.000,1.5350890786435798
15,215.000,2.1221250083253835
16,216.000,-0.8857346762701468
17,217.000,9.499611522495854
18,218.000,10.371788130970117
19,219.000,-3.1106682958363763
20,220.000,-7.947766174291473
21,221.000,1.718055107813882
22,222.000,8.569932191223472
23,223.000,6.2624577451712184
24,224.000,3.134674467338641
25,225.000,2.423824083810814
26,226.000,4.460332349033422
27,227.000,-1.247220954231011
28,228.000,3.1583519850536277
29,229.000,-4.349027993846221
30,230.000,9.250838976522175
31,231.000,6.756621791755549
32,232.000,1.4124983755498306
33,233.000,5.84483167965783
34,234.000,21.615988683845387
35,235.000,18.233053395848003
36,236.000,-5.456704148672884
37,237.000,9.746114113827446
38,238.000,10.228693274732791
39,239.000,-3.837754546776978
40,240.000,-6.31677220376946
41,241.000,2.4397854783969137
42,242.000,-0.8729422979703827
43,243.000,4.414227697058038
44,244.000,11.283517720990858
45,245.000,4.317932058871975
46,246.000,4.234215023237425
47,247.000,9.014482954072093
48,248.000,7.966264218765673
49,249.000,8.771075212070173
50,250.000,12.640962356055411
51,251.000,7.5932931000668304
52,252.000,18.27141992068084
53,253.000,-1.3343476783375081
54,254.000,10.312306833921184
55,255.000,9.361904015467758
56,256.000,7.65391645137106
57,257.000,8.671127753714245
58,258.000,6.463532561551631
59,259.000,1.1879655408651502
60,260.000,6.253465384520894
61,261.000,10.635197812225897
62,262.000,9.348681570484416
63,263.000,7.525659432554846
64,264.000,8.585619198406107
65,265.000,0.7295906946741297
66,266.000,5.565293774618681
67,267.000,9.05442931807977
68,268.000,-4.09082876856553
69,269.000,-0.13174655244688438
70,270.000,2.7538819257561045
71,271.000,2.943650651770554
72,272.000,7.21031063768703
73,273.000,-2.5610200780847094
74,274.000,11.04664356914202
75,275.000,4.174729670286752
76,276.000,6.645261342458525
77,277.000,11.340800728912427
78,278.000,10.638388999006452
79,279.000,7.522809348157807
80,280.000,13.806642997799486
81,281.000,9.500146195337038
82,282.000,8.457308214105183
83,283.000,11.415455353323978
84,284.000,11.945783938056024
85,285.000,10.818003319162585
86,286.000,4.109338873260299
87,287.000,11.323385002677583
88,288.000,9.411160135411933
89,289.000,-6.758466274914667
90,290.000,4.942975250901895
91,291.000,-4.601463782395967
92,292.000,-11.534939844571113
93,293.000,6.01918762006494
94,294.000,2.9312181926089806
95,295.000,-2.035748520477341
96,296.000,3.319813112588008
97,297.000,6.727075748865673
98,298.000,3.026285070650374
99,299.000,7.448090785427667
100,300.000,6.3046236258308
101,301.000,5.537677349597402
102,302.000,0.07747173952509456
103,303.000,7.104026603429702
104,304.000,2.8651997741001196
105,305.000,5.292517109256323
106,306.000,-0.6170745084951932
107,307.000,1.4903278282962447
108,308.000,2.884075051881041
109,309.000,-3.611599880733479
110,310.000,5.357422012173515
111,311.000,12.673445736992903
112,312.000,11.19615832474176
113,313.000,12.590778831020657
114,314.000,-0.9265716640304618
115,315.000,5.6921909442247625
116,316.000,11.609557784875733
117,317.000,4.460970011421068
118,318.000,9.849368801725518
119,319.000,-7.08114564202333
120,320.000,9.57091890664094
121,321.000,4.918144698420747
122,322.000,2.8257100082108764
123,323.000,-0.729738864945034
124,324.000,11.914401402102499
125,325.000,0.6691781565646124
126,326.000,1.630305769671395
127,327.000,11.825146636628347
128,328.000,9.708591176572668
129,329.000,-0.7512861674699707
130,330.000,13.269662071371158
131,331.000,1.8693323837684375
132,332.000,13.580638284152428
133,333.000,7.306644310668389
134,334.000,8.928212025133234
135,335.000,8.811997012991355
136,336.000,13.359413883272168
137,337.000,14.640850268545933
138,338.000,5.958950824880731
139,339.000,9.667790231798676
140,340.000,5.267469192233193
141,341.000,0.28244143248468845
142,342.000,-4.116591297822083
143,343.000,-5.836292225781676
144,344.000,7.753083444747972
145,345.000,8.832394533103525
146,346.000,-5.246603118228563
147,347.000,6.7760833563451115
148,348.000,2.5236748454821054
149,349.000,9.54698426085929
150,350.000,6.997899537130593
151,351.000,-0.47543436811668016
152,352.000,17.76395652559438
153,353.000,-0.865833778412366
154,354.000,2.7799757459893044
155,355.000,5.398413147685687
156,356.000,15.130742498279005
157,357.000,1.641178892044536
158,358.000,6.929406445886684
159,359.000,-3.587578700704057
160,360.000,13.563720614305112
161,361.000,0.44623857544650036
162,362.000,1.6880773897078143
163,363.000,8.601142286488994
164,364.000,4.458162517559117
165,365.000,2.2299583570123787
166,366.000,14.716586101225403
167,367.000,11.446954068812829
168,368.000,12.126330600585106
169,369.000,12.223197059504173
170,370.000,1.9921868306402075
171,371.000,8.563558321128653
172,372.000,2.9744729601261497
173,373.000,-3.0551908012323565
174,374.000,12.144672510122746
175,375.000,11.929960389152143
176,376.000,4.193954352664832
177,377.000,0.08333593927375205
178,378.000,6.869611709353194
179,379.000,4.266196244995058
180,380.000,-0.935322850034936
181,381.000,15.73923904966
182,382.000,3.6554735910640375
183,383.000,11.270486442705192
184,384.000,8.100140294612174
185,385.000,11.001371858270431
186,386.000,13.108234866579437
187,387.000,10.853522073808904
188,388.000,-9.426809744444995
189,389.000,6.89468320869787
190,390.000,19.074707751357437
191,391.000,-5.536003277149916
192,392.000,10.020866983645874
193,393.000,6.923160415323878
194,394.000,4.0623119205303055
195,395.000,12.77918742293366
196,396.000,-0.00834913281767058
197,397.000,5.191384218860662
198,398.000,6.560020464445984
199,399.000,11.485731611264328
200,400.000,-4.2354283125517895
201,401.000,5.354499741891914
202,402.000,-0.4592751557908059
203,403.000,5.84204208468941
204,404.000,0.662257574253772
205,405.000,5.7281394444127045
206,406.000,10.944697847221619
207,407.000,12.478749955238186
208,408.000,-2.7551380385218636
209,409.000,-7.076711920627531
210,410.000,8.860800542724405
211,411.000,7.582142605664558
212,412.000,8.937695542608935
213,413.000,4.619159648214804
214,414.000,15.144672237337545
215,415.000,3.102187644986884
216,416.000,10.697452226284213
217,417.000,1.4415163564181057
218,418.000,2.538380430601933
219,419.000,11.92624686402985
220,420.000,10.52835309183331
221,421.000,6.118076569037953
222,422.000,6.297118770520683
223,423.000,9.104619190964627
224,424.000,8.788584344817536
225,425.000,22.53322076624727
226,426.000,14.815864009098732
227,427.000,1.4662946468506561
228,428.000,6.107226272571552
229,429.000,7.0690394988769185
230,430.000,0.8530579578855395
231,431.000,7.422780301176431
232,432.000,15.403733199744238
233,433.000,4.927415343957932
234,434.000,-5.065075556485112
235,435.000,9.697332227400011
236,436.000,6.820539443839948
237,437.000,-0.851475139738568
238,438.000,9.463455263246829
239,439.000,0.1611534584914125
240,440.000,4.510506270759265
241,441.000,12.897403543840596
242,442.000,9.691344140507795
243,443.000,6.896827942471987
244,444.000,11.959083850340107
245,445.000,7.098233783571004
246,446.000,22.215160680432064
247,447.000,6.16937949795647
248,448.000,-2.5608457881013464
249,449.000,-2.708944183308404
250,450.000,10.757555325403473
251,451.000,14.466660769693817
252,452.000,22.016219199770717
253,453.000,1.8445736843464147
254,454.000,2.95802631059496
255,455.000,-4.1798298158918215
256,456.000,9.643949428852466
257,457.000,4.23559118712501
258,458.000,2.2855946195110164
259,459.000,-3.324419095160124
260,460.000,11.185768240141556
261,461.000,2.882732840603694
262,462.000,7.491589939527898
263,463.000,7.686811788286263
264,464.000,9.39986665627805
265,465.000,12.593661830886504
266,466.000,4.638391617434877
267,467.000,8.727250339143325
268,468.000,4.051276337085824
269,469.000,7.7259899701463155
270,470.000,8.505177614975196
271,471.000,5.585307665946289
272,472.000,9.788280535113017
273,473.000,-5.77796534783397
274,474.000,10.391978464387421
275,475.000,15.682007436610661
276,476.000,10.005085051173637
277,477.000,9.42433180787873
278,478.000,6.70167422394627
279,479.000,13.492830833973017
280,480.000,6.569252189888175
281,481.000,9.037326860910298
282,482.000,6.028057433503022
283,483.000,5.377534511332669
284,484.000,-0.16574428477542824
285,485.000,-0.5036893168814913
286,486.000,-0.1181359299723681
287,487.000,7.104175547992554
288,488.000,0.05443580603935061
289,489.000,3.501668550136287
290,490.000,-3.2715424968507705
291,491.000,-6.757668595200471
292,492.000,6.090755011619763
293,493.000,2.236421096910476
294,494.000,-2.338461549302906
295,495.000,6.6874738796863085
296,496.000,7.952474207222622
297,497.000,7.456918273244469
298,498.000,3.392643934241846
299,499.000,9.402253063212129
300,500.000,1.9293675496168134
301,501.000,2.9116682993383165
302,502.000,0.6609442346359629
303,503.000,15.958892294103407
304,504.000,10.961491432624598
305,505.000,3.318040621330397
306,506.000,-8.934739152444081
307,507.000,15.01929711479545
308,508.000,2.2027944426612294
309,509.000,4.824743866838389
310,510.000,14.30202943904169
311,511.000,18.530871226973204
312,512.000,6.332745314277645
313,513.000,5.5279448004994265
314,514.000,6.289253801039649
315,515.000,4.906401447112103
316,516.000,-2.4178911143001187
317,517.000,6.01671227951249
318,518.000,6.323807806941659
319,519.000,9.211668662019065
320,520.000,9.93310805437136
321,521.000,4.246000209178078
322,522.000,17.237813367127842
323,523.000,3.5758737843739254
324,524.000,0.3503447324934541
325,525.000,8.826743498440578
326,526.000,5.568593384505448
327,527.000,11.050812708270655
328,528.000,6.967788802566133
329,529.000,5.619086015427797
330,530.000,-1.9671502899470852
331,531.000,-0.826505735243245
332,532.000,7.4752700729297885
333,533.000,9.285026542993592
334,534.000,-2.8316189016419457
335,535.000,12.457925177377092
336,536.000,1.0724272333060298
337,537.000,-0.8452432657421696
338,538.000,-3.2865228368395947
339,539.000,6.0343340177116715
340,540.000,-2.0901731896625506
341,541.000,5.1669200681477605
342,542.000,-1.4680316671073115
343,543.000,13.047662160919913
344,544.000,-3.136299876868975
345,545.000,9.146550804938329
346,546.000,2.4115188062199877
347,547.000,-3.8457932587210735
348,548.000,-4.401256761202603
349,549.000,15.227978941794618
350,550.000,-0.9823604924165465
351,551.000,0.3481946077262137
352,552.000,-1.337508072008177
353,553.000,-1.2271298316878756
354,554.000,9.735375042739065
355,555.000,-7.704606720599827
356,556.000,6.701567620456217
357,557.000,10.650014822057528
358,558.000,5.049984654299351
359,559.000,4.546360901181174
360,560.000,5.921138360560008
361,561.000,11.882804844109614
362,562.000,9.639193177275615
363,563.000,7.100800199232253
364,564.000,9.894966762840454
365,565.000,-11.963881265398527
366,566.000,12.722462994616421
367,567.000,-3.6595325634585834
368,568.000,15.006752967543775
369,569.000,8.925509508260234
370,570.000,-6.151570007248665
371,571.000,6.361874368460121
372,572.000,0.881733596167237
373,573.000,4.121571649948237
374,574.000,7.616409517130023
375,575.000,6.510301198247134
376,576.000,5.667356706998817
377,577.000,-9.241688929794691
378,578.000,2.4563313277642465
379,579.000,2.9224365326080033
380,580.000,7.719823750659316
381,581.000,13.974972060788218
382,582.000,-4.652329445230976
383,583.000,19.458478337236443
384,584.000,13.500908525642217
385,585.000,6.067632250212341
386,586.000,5.674746653902162
387,587.000,10.29275789235487
388,588.000,6.180638133856405
389,589.000,5.255406559293078
390,590.000,7.56648736210775
391,591.000,5.087310748256641
392,592.000,10.239974936165368
393,593.000,4.942980156686531
394,594.000,5.4048026530550715
395,595.000,3.9233356808458666
396,596.000,12.653551507929706
397,597.000,4.119440414430073
398,598.000,8.879546692680265
399,599.000,2.413139647178582
400,600.000,11.687309594546718
401,601.000,7.757554863484415
402,602.000,-0.34305320527209915
403,603.000,13.302623741005164
404,604.000,26.278777066993143
405,605.000,10.092194149273837
406,606.000,30.964431376291486
407,607.000,11.039274148309232
408,608.000,13.521798877364404
409,609.000,34.04161198722693
410,610.000,23.399853913354377
411,611.000,36.93036110284993
412,612.000,35.50695501441737
413,613.000,57.08561111831909
414,614.000,55.5993638963314
415,615.000,74.05727284170348
416,616.000,94.3579184591099
417,617.000,125.1803312646116
418,618.000,143.23816478560934
419,619.000,178.24610356080257
420,620.000,184.22956714014276
421,621.000,166.79309608479434
422,622.000,139.46291596708807
423,623.000,116.4730003704783
424,624.000,103.9923348895004
425,625.000,79.07777612972632
426,626.000,70.45693670772175
427,627.000,59.33673725100266
428,628.000,44.80836739799179
429,629.000,37.92978679797557
430,630.000,32.66621111105951
431,631.000,25.23307700812643
432,632.000,26.899424170791917
433,633.000,10.865167291361558
434,634.000,22.117812072787046
435,635.000,2.0760572286224033
436,636.000,16.03183648298227
437,637.000,15.441898570496278
438,638.000,11.891961236267207
439,639.000,4.474546235826438
440,640.000,8.231947335092173
441,641.000,11.540258310324134
442,642.000,11.91057194808127
443,643.000,-7.933628954822325
444,644.000,3.8775114086402027
445,645.000,8.873043855664037
446,646.000,3.480358213569616
447,647.000,13.44490931975929
448,648.000,7.584235021673976
449,649.000,11.764285176749354
450,650.000,10.859503652373178
451,651.000,9.448744325840607
452,652.000,-0.693711915687345
453,653.000,17.988910824770755
454,654.000,5.2340744539742445
455,655.000,-10.230461111581917
456,656.000,3.9129990542869564
457,657.000,17.8627258874144
458,658.000,3.4758463332377687
459,659.000,8.512846346754714
460,660.000,6.640528892481143
461,661.000,2.0301859444066395
462,662.000,5.414579485951663
463,663.000,2.925398509922843
464,664.000,4.126081018472632
465,665.000,-5.120897976948527
466,666.000,0.013860544368299088
467,667.000,3.7977426123450186
468,668.000,0.02410726607399738
469,669.000,0.9404285537736996
470,670.000,-8.342446467253922
471,671.000,-2.3190017306662867
472,672.000,-2.8485751611258365
473,673.000,-4.669883674340326
474,674.000,0.8301958228901185
475,675.000,-5.680394567366648
476,676.000,7.925410265779419
477,677.000,-8.620707558003005
478,678.000,-5.328398910308124
479,679.000,-5.477914654038159
480,680.000,-7.501008643446767
481,681.000,2.997815275818766
482,682.000,4.451354266672979
483,683.000,-2.192044499449821
484,684.000,-11.756233842641223
485,685.000,12.257507425440053
486,686.000,-3.4342684984762855
487,687.000,6.619162590684255
488,688.000,-10.706862093700693
489,689.000,-6.242153329997336
490,690.000,-3.5321098883550803
491,691.000,9.073681469247049
492,692.000,4.482024988958983
493,693.000,7.667801925014373
494,694.000,-7.831492460310301
495,695.000,6.896822103257136
496,696.000,-7.4712301060556
497,697.000,3.8980001978911787
498,698.000,3.980202309103106
499,699.000,6.725868529411173
500,700.000,-10.992978831573964
501,701.000,1.4312145434967078
502,702.000,5.221420979665481
503,703.000,4.8844758096256555
504,704.000,2.4346003736773127
505,705.000,3.4980270196840593
506,706.000,6.663407103030295
507,707.000,6.667049986576558
508,708.000,-3.6935739593820927
509,709.000,-8.080583357162368
510,710.000,6.374755178267378
511,711.000,5.385320039241378
512,712.000,6.39432662535296
513,713.000,2.5500913434127597
514,714.000,1.01234460740352
515,715.000,3.669608838438762
516,716.000,3.8309614647159833
517,717.000,10.18722592147742
518,718.000,6.481841650963588
519,719.000,-0.5440978976289443
520,720.000,-11.230582268191483
521,721.000,5.06601300225384
522,722.000,-5.792055616489051
523,723.000,3.1663653521650303
524,724.000,-4.569353608459096
525,725.000,-5.699982008341749
526,726.000,-7.728538350811277
527,727.000,-0.09300613258733392
528,728.000,3.655304156174907
529,729.000,-10.94631196815726
530,730.000,-3.1656759827385486
531,731.000,-10.388715358288891
532,732.000,13.836200440862967
533,733.000,1.775117956736267
534,734.000,8.44173973765578
535,735.000,-3.3204926617941055
536,736.000,11.78628231919015
537,737.000,-8.771997752414336
538,738.000,-7.264475303499694
539,739.000,-13.249437754869405
540,740.000,-5.0828355212843235
541,741.000,-1.5396140115039998
542,742.000,0.16976237166977626
543,743.000,-5.432918768652371
544,744.000,-2.778678823487553
545,745.000,-6.772587178027379
546,746.000,3.6946537883211477
547,747.000,-1.7163382981098039
548,748.000,8.27000519470971
549,749.000,-5.822894095538004
550,750.000,-3.6625235255601183
551,751.000,-1.4559504464975817
552,752.000,-5.700909203967512
553,753.000,-3.686437138108886
554,754.000,1.6476464163772562
555,755.000,11.42217313018159
556,756.000,1.5604906793444115
557,757.000,3.3788077452120433
558,758.000,3.97322101439363
559,759.000,3.350824178717403
560,760.000,6.976526935186712
561,761.000,2.617937985938852
562,762.000,10.723931038197406
563,763.000,-0.7152381957655507
564,764.000,3.8633810013216134
565,765.000,12.316409351690481
566,766.000,5.008210582488573
567,767.000,2.8782454257329846
568,768.000,2.600137618270992
569,769.000,12.59579290173474
570,770.000,-4.5670799775032265
571,771.000,0.031007731629415503
572,772.000,11.46762178485892
573,773.000,7.277841942522173
574,774.000,7.089900969525615
575,775.000,-4.958714364701564
576,776.000,-4.917232286248009
577,777.000,-1.438482016764965
578,778.000,7.496396226490333
579,779.000,9.749509230612148
580,780.000,12.81493878700121
581,781.000,9.542219691322316
582,782.000,16.007022743462358
583,783.000,8.41658974748293
584,784.000,26.360235511581322
585,785.000,27.88627184804477
586,786.000,33.06552057320641
587,787.000,40.118967507403795
588,788.000,40.2629384749348
589,789.000,47.06855530401276
590,790.000,60.4434618267253
591,791.000,56.95629387898953
592,792.000,75.40719030050877
593,793.000,74.4370249347296
594,794.000,98.19445762879855
595,795.000,96.08654023351687
596,796.000,92.03273560330013
597,797.000,87.72120359613245
598,798.000,68.68529607352389
599,799.000,61.12205090046723
600,800.000,63.356828945393545
601,801.000,40.09901208013139
602,802.000,45.09565317985903
603,803.000,26.566187123065447
604,804.000,25.71455279150473
605,805.000,28.3392900701524
606,806.000,35.09562384716196
607,807.000,30.695644013823994
608,808.000,25.19276646451931
609,809.000,15.165167096677578
610,810.000,21.583384810732923
611,811.000,6.744501510080909
612,812.000,16.895428101036032
613,813.000,3.536315492786798
614,814.000,5.450324597352619
615,815.000,3.962672329541647
616,816.000,8.20627360690537
617,817.000,8.421002349697346
618,818.000,12.004231480827912
619,819.000,15.014092925821387
620,820.000,0.5470456127734451
621,821.000,-1.7270575276927502
622,822.000,5.572842437528607
623,823.000,-3.7726425560149437
624,824.000,-5.508460570379157
625,825.000,5.857271334733241
626,826.000,8.330429101931031
627,827.000,-2.737368323911369
628,828.000,-2.6178749956961838
629,829.000,-1.1006929641446277
630,830.000,7.234616722157625
631,831.000,-14.108053983281252
632,832.000,-3.051381124903628
633,833.000,-1.4043007451459744
634,834.000,-7.308769884480853
635,835.000,15.976927418537116
636,836.000,-7.380009872769051
637,837.000,-12.090806793244838
638,838.000,12.724146624054129
639,839.000,-5.546320652182203
640,840.000,4.639545348438787
641,841.000,-9.920587402032425
642,842.000,9.396151070072165
643,843.000,0.4137797399905594
644,844.000,7.133730584491104
645,845.000,-1.5611574181732522
646,846.000,7.1171807116925265
647,847.000,9.282572955181195
648,848.000,3.4765002947417543
649,849.000,-9.32320328586593
650,850.000,-6.654747801613439
651,851.000,3.8555447337523674
652,852.000,4.082329307665532
653,853.000,-0.8948560913011079
654,854.000,-11.40075647348067
655,855.000,-0.48814184815500994
656,856.000,2.1521847764015547
657,857.000,9.697694392879157
658,858.000,-1.3494940051111826
659,859.000,-3.019739423080864
660,860.000,1.2759521342923108
661,861.000,-6.609163336878055
662,862.000,-5.972485839732144
663,863.000,4.8820546232948345
664,864.000,1.0349570504270105
665,865.000,-3.520196559494252
666,866.000,3.2268157929465815
667,867.000,0.9948601076939667
668,868.000,-14.36363261481938
669,869.000,3.466809626280792
670,870.000,3.9130508322700734
671,871.000,-2.978362995219868
672,872.000,6.884336145754787
673,873.000,-9.618525742590691
674,874.000,9.671924342183047
675,875.000,2.8727174026996636
676,876.000,0.2524914417219861
677,877.000,-5.780392537892567
678,878.000,-9.72710553323168
679,879.000,0.7800844586245148
680,880.000,-9.492535559438465
681,881.000,2.1177474153873845
682,882.000,-3.881186614210492
683,883.000,-0.5172656457093581
684,884.000,-2.311309676794963
685,885.000,-1.7717977054041967
686,886.000,-4.280583729768978
687,887.000,-4.400005748458625
688,888.000,3.1124002395752086
689,889.000,-16.809247765043665
690,890.000,0.020085237838884495
691,891.000,-4.195511752133143
692,892.000,-1.9869737358721977
693,893.000,-5.707036714889227
694,894.000,3.51944530866308
695,895.000,-7.897567668054307
696,896.000,-3.236376648608257
697,897.000,-0.0336646373395979
698,898.000,-6.844355639402693
699,899.000,5.306623339186444
700,900.000,-1.4193407084894716
701,901.000,-7.793704790293987
702,902.000,2.54563108492016
703,903.000,2.0511469072669115
704,904.000,4.475772665784007
705,905.000,-5.244365651610906
706,906.000,-4.5026010581627816
707,907.000,-8.911149568322344
708,908.000,4.918004802207861
709,909.000,-2.012215963567087
710,910.000,-7.315882883978475
711,911.000,2.91997102126129
712,912.000,-1.0871422689831434
713,913.000,2.125201222685064
714,914.000,-0.8429755278468747
715,915.000,-8.949229546245988
716,916.000,-3.175725859776776
717,917.000,2.291462502655577
718,918.000,-15.56489748953777
719,919.000,-1.2608258686736917
720,920.000,-0.573588668839875
721,921.000,-9.147393925938786
722,922.000,-5.624036677730146
723,923.000,-8.76597996387477
724,924.000,-3.3981258259791502
725,925.000,2.224103692363542
726,926.000,-5.462334454472511
727,927.000,-8.89015831418692
728,928.000,10.799969063401022
729,929.000,-6.732363373688258
730,930.000,0.2794663203596883
731,931.000,9.76858808911038
732,932.000,-10.209645126160922
733,933.000,1.5440086134835838
734,934.000,-0.6159037553961753
735,935.000,-7.603719298662327
736,936.000,-8.211965084642998
737,937.000,-8.177691184174819
738,938.000,-4.491139670647954
739,939.000,1.6879113799529932
740,940.000,-2.1890771109974594
741,941.000,-8.78229622480626
742,942.000,-4.074999045507411
743,943.000,15.08202634009649
744,944.000,-0.4100201576111431
745,945.000,8.129158368897606
746,946.000,-1.7671311757503645
747,947.000,-9.377383889869861
748,948.000,-5.014329874763234
749,949.000,9.265933765236468
750,950.000,3.305720922724504
751,951.000,-1.512519512821882
752,952.000,3.030880344913612
753,953.000,2.129607379045183
754,954.000,3.6084764694380738
755,955.000,9.195431492668831
756,956.000,7.546638321978207
757,957.000,0.8638408272313427
758,958.000,9.071232874870475
759,959.000,-2.0647186721243997
760,960.000,1.5889310457180272
761,961.000,-0.7046301156817663
762,962.000,-2.4640493039983085
763,963.000,14.272339329457736
764,964.000,-1.7848823703081962
765,965.000,7.162065437986257
766,966.000,15.884634591855274
767,967.000,-1.647854074999259
768,968.000,6.408382267270554
769,969.000,10.640752444612872
770,970.000,12.588259279035128
771,971.000,13.479179588559191
772,972.000,20.837976187178356
773,973.000,5.489715884813677
774,974.000,15.672849487270696
775,975.000,12.472053796195723
776,976.000,16.290881609034614
777,977.000,16.310275718983803
778,978.000,12.26316791495492
779,979.000,16.390528981524085
780,980.000,11.689051698891717
781,981.000,15.164488842840228
782,982.000,30.442291184687974
783,983.000,32.92620949124739
784,984.000,37.88649752478136
785,985.000,32.664432042960016
786,986.000,39.5610297988153
787,987.000,48.57811954070257
788,988.000,61.5159160122505
789,989.000,54.938164952322495
790,990.000,72.08821009497206
791,991.000,91.4623921693983
792,992.000,102.22987789990475
793,993.000,116.09142200585234
794,994.000,162.74706620161987
795,995.000,202.6521261965588
796,996.000,265.1438326949492
797,997.000,361.75524439595756
798,998.000,500.12574199359256
799,999.000,692.7226321766623
800,1000.000,889.3417856287301
801,1001.000,998.5467540280724
802,1002.000,895.7478610476333
803,1003.000,689.0092903549835
804,1004.000,501.8734566122746
805,1005.000,364.04089047619755
806,1006.000,280.0018935979383
807,1007.000,203.13632862313466
808,1008.000,154.8546391918319
809,1009.000,129.87931093844168
810,1010.000,104.04024249169606
811,1011.000,96.03305247460548
812,1012.000,71.86387950441531
813,1013.000,62.49620119256201
814,1014.000,54.54432214462963
815,1015.000,74.88398296030641
816,1016.000,65.15998123334293
817,1017.000,59.13185755150562
818,1018.000,53.36358549653619
819,1019.000,57.800963644107014
820,1020.000,55.22159956377686
821,1021.000,59.67557981895038
822,1022.000,68.40298596683056
823,1023.000,85.83794155837859
824,1024.000,101.7882551382686
825,1025.000,111.69387224484626
826,1026.000,147.4446054100831
827,1027.000,185.83464215953427
828,1028.000,243.38590601229453
829,1029.000,324.93597048095603
830,1030.000,393.82310007156343
831,1031.000,425.4087232835716
832,1032.000,390.00591360980115
833,1033.000,322.1154985363962
834,1034.000,243.83015154277996
835,1035.000,188.65031310161226
836,1036.000,141.02727567874445
837,1037.000,113.69986273317863
838,1038.000,90.39236871702133
839,1039.000,65.52441807544255
840,1040.000,47.673668246630996
841,1041.000,48.90661766175003
842,1042.000,43.800569744897075
843,1043.000,28.918556913056364
844,1044.000,37.87142257605865
845,1045.000,22.176575136536258
846,1046.000,21.119737989879468
847,1047.000,14.234460524194446
848,1048.000,18.79386112025918
849,1049.000,22.44624615147859
850,1050.000,17.452102983843588
851,1051.000,11.369759975886609
852,1052.000,11.958045478636905
853,1053.000,8.439333835579191
854,1054.000,17.706921382609835
855,1055.000,9.397719447990994
856,1056.000,-3.5397106476880253
857,1057.000,22.785333408440238
858,1058.000,5.633921921482397
859,1059.000,6.836017188738879
860,1060.000,2.85700549966009
861,1061.000,3.143962135804486
862,1062.000,7.70365937079373
863,1063.000,-3.8894435297297605
864,1064.000,5.857745691853552
865,1065.000,7.443754285096475
866,1066.000,5.085278491441613
867,1067.000,1.1502765441794054
868,1068.000,4.656522668402658
869,1069.000,12.166257080964442
870,1070.000,12.825327990434062
871,1071.000,12.978180597054006
872,1072.000,3.5310990926971044
873,1073.000,4.71331266082143
874,1074.000,16.980561476427738
875,1075.000,5.775451706016838
876,1076.000,1.1651575075463825
877,1077.000,1.1927510303842155
878,1078.000,-1.1907365847307574
879,1079.000,-8.842717205733834
880,1080.000,-7.980661709279502
881,1081.000,1.0496650192174002
882,1082.000,9.629333085538747
883,1083.000,2.3103815866163586
884,1084.000,-12.81908038950769
885,1085.000,-2.789296763727407
886,1086.000,4.484291534086651
887,1087.000,-5.0156644349592625
888,1088.000,0.39675538117694487
889,1089.000,-0.6529159745714423
890,1090.000,-1.2051774684223346
891,1091.000,-5.739191075789677
892,1092.000,-3.7221427813256014
893,1093.000,5.854278421034678
894,1094.000,2.988295528031813
895,1095.000,-0.0406864729627614
896,1096.000,0.8665413960088699
897,1097.000,6.4866591034497105
898,1098.000,9.978615608364407
899,1099.000,0.15164186021320347
900,1100.000,6.373875798871495
901,1101.000,-2.2326356454145753
902,1102.000,7.574362447927115
903,1103.000,0.8956199897529586
904,1104.000,-1.250012118839095
905,1105.000,-6.357547986556483
906,1106.000,9.028473268049538
907,1107.000,1.7805845165341907
908,1108.000,4.596049620522763
909,1109.000,2.4163134316622745
910,1110.000,-6.752093208420547
911,1111.000,-4.7569884681622625
912,1112.000,-3.5546405261070504
913,1113.000,4.987004429051694
914,1114.000,1.7829391984257654
915,1115.000,-5.359475427110283
916,1116.000,0.5356183330372914
917,1117.000,11.67295724913879
918,1118.000,10.46748608109715
919,1119.000,-2.4593074215972592
920,1120.000,1.458462480092976
921,1121.000,10.569558514707069
922,1122.000,9.070528400243347
923,1123.000,8.48654484411577
924,1124.000,-0.33117745689105504
925,1125.000,-0.4360318166629895
926,1126.000,3.785326440199924
927,1127.000,13.36471397833725
928,1128.000,2.614705451588634
929,1129.000,7.861732502948598
930,1130.000,0.3042957645222941
931,1131.000,-2.241412142516765
932,1132.000,8.756464392029557
933,1133.000,11.330920967340717
934,1134.000,9.587416171533732
935,1135.000,8.74180558162061
936,1136.000,-7.669958236536104
937,1137.000,5.8028552717325965
938,1138.000,28.737919649862306
939,1139.000,3.2702014300073188
940,1140.000,14.657530133000364
941,1141.000,27.17750926830672
942,1142.000,31.723906333983223
943,1143.000,26.179579816634032
944,1144.000,26.196197191365854
945,1145.000,27.656009921746545
946,1146.000,27.713691459760184
947,1147.000,40.87840924576403
948,1148.000,34.05857070844604
949,1149.000,61.997579264779915
950,1150.000,58.70809331998407
951,1151.000,79.93845626747452
952,1152.000,101.05735748882489
953,1153.000,131.6861413537206
954,1154.000,142.3230622199187
955,1155.000,146.95948343319924
956,1156.000,131.7366133273281
957,1157.000,121.94243122400735
958,1158.000,121.01748943283701
959,1159.000,89.04895325126813
960,1160.000,79.73593196456204
961,1161.000,48.420901845744766
962,1162.000,48.65449015556419
963,1163.000,38.739212142447286
964,1164.000,51.287599042456804
965,1165.000,33.60226807924596
966,1166.000,36.39849046401855
967,1167.000,20.57437339548187
968,1168.000,21.184314059804592
969,1169.000,32.61847463057484
970,1170.000,18.52869326875407
971,1171.000,21.060843122636697
972,1172.000,28.44378432780377
973,1173.000,19.964536007081733
974,1174.000,26.514801270497856
975,1175.000,27.097204215236616
976,1176.000,43.9806449255982
977,1177.000,46.168862472951105
978,1178.000,58.484373915694505
979,1179.000,64.70216429920924
980,1180.000,89.08083065581695
981,1181.000,114.13689400473845
982,1182.000,104.74895635204575
983,1183.000,123.21822669062249
984,1184.000,118.67053000011947
985,1185.000,96.54715924691072
986,1186.000,91.80808838405096
987,1187.000,62.85837835122902
988,1188.000,47.982914074731525
989,1189.000,56.69685346739152
990,1190.000,39.366513428548615
991,1191.000,36.85660984400738
992,1192.000,22.54012858599026
993,1193.000,20.814917513096816
994,1194.000,8.146393470259227
995,1195.000,25.83602728869937
996,1196.000,0.8515647858835109
997,1197.000,1.6084047654819642
998,1198.000,9.845473017323911
999,1199.000,9.83079631735427
1000,1200.000,16.25780942758911
1001,1201.000,-9.40970090392375
1002,1202.000,7.352615056844797
1003,1203.000,1.7490910298695326
1004,1204.000,-7.020261278978069
1005,1205.000,-14.668455177970827
1006,1206.000,7.44677601042963
1007,1207.000,4.937701949531629
1008,1208.000,-5.000954711633312
1009,1209.000,0.4872696616482699
1010,1210.000,6.218430689728848
1011,1211.000,-2.8501760214453498
1012,1212.000,5.244189119624252
1013,1213.000,0.055473689942118654
1014,1214.000,0.933947251979589
1015,1215.000,-2.9612046463737443
1016,1216.000,-3.09476747184749
1017,1217.000,-1.4780827058393697
1018,1218.000,3.2415091555440085
1019,1219.000,5.47018360144375
1020,1220.000,9.803612106205946
1021,1221.000,0.8256791293351853
1022,1222.000,6.468783115453334
1023,1223.000,1.6027734942592815
1024,1224.000,9.563264680476323
1025,1225.000,-4.203514926178968
1026,1226.000,-0.7827359410518966
1027,1227.000,1.8358640054152602
1028,1228.000,-6.596549732363428
1029,1229.000,-8.90088781516215
1030,1230.000,-0.8351859189838251
1031,1231.000,-1.370416735106346
1032,1232.000,-1.9333489701236886
1033,1233.000,-11.320498345989336
1034,1234.000,-4.91606560006403
1035,1235.000,-0.45887148515157605
1036,1236.000,-7.09933776954972
1037,1237.000,-2.0126872370894944
1038,1238.000,-10.071629687178984
1039,1239.000,10.227305065152905
1040,1240.000,4.367377189211311
1041,1241.000,1.0432768385960571
1042,1242.000,2.2072901511537566
1043,1243.000,3.455265248936712
1044,1244.000,6.455687238159271
1045,1245.000,1.6486922091553424
1046,1246.000,-0.7532857636679182
1047,1247.000,-7.481036621870544
1048,1248.000,1.7269916769762403
1049,1249.000,5.24506315924441
1050,1250.000,1.2751028352083722
1051,1251.000,-0.23233830099911756
1052,1252.000,-7.145534271430961
1053,1253.000,-2.955981114369706
1054,1254.000,-1.1668898843688567
1055,1255.000,-7.353837652298353
1056,1256.000,2.9009534946121676
1057,1257.000,-0.14893254726734995
1058,1258.000,0.1835631019853281
1059,1259.000,-9.420806694197154
1060,1260.000,-15.454617088912983
1061,1261.000,-0.8775642518376117
1062,1262.000,-1.7482243692670636
1063,1263.000,-0.9994636441585953
1064,1264.000,0.5914957038239663
1065,1265.000,-7.766327561735579
1066,1266.000,2.955568305956831
1067,1267.000,5.438553036856774
1068,1268.000,-3.428297655960023
1069,1269.000,-14.767678076341554
1070,1270.000,7.070237454898461
1071,1271.000,1.9712435999335867
1072,1272.000,5.3580560038865315
1073,1273.000,-9.293292705219073
1074,1274.000,0.41324408349987607
1075,1275.000,-10.45907703625653
1076,1276.000,-8.351007488016421
1077,1277.000,0.22500928742238102
1078,1278.000,-4.223611168053594
1079,1279.000,-2.0645903299159727
1080,1280.000,-4.070530691034264
1081,1281.000,10.216909238273502
1082,1282.000,10.18622293020394
1083,1283.000,-3.9035691605772627
1084,1284.000,7.307460403018013
1085,1285.000,-1.276210959538048
1086,1286.000,9.52366015356597
1087,1287.000,4.2144701264342075
1088,1288.000,-5.984916674577107
1089,1289.000,4.238156099097523
1090,1290.000,-6.110213221812046
1091,1291.000,-15.815672324455363
1092,1292.000,2.7159110860973215
1093,1293.000,-0.6294237131914997
1094,1294.000,-2.832746463367357
1095,1295.000,1.3730290764731308
1096,1296.000,-1.7072558708646284
1097,1297.000,-8.555563100714153
1098,1298.000,9.940599573410964
1099,1299.000,3.8666703197684456
1100,1300.000,-9.501432711653706
1101,1301.000,0.5156306108240187
1102,1302.000,0.5991604005196223
1103,1303.000,5.706394752353162
1104,1304.000,-9.42565625719726
1105,1305.000,7.295506429860097
1106,1306.000,1.3385078529852308
1107,1307.000,1.875670033065262
1108,1308.000,4.754521972373141
1109,1309.000,-6.738606345482594
1110,1310.000,-1.2128649555941138
1111,1311.000,1.4649370881991217
1112,1312.000,-0.19424028673347493
1113,1313.000,-2.658138171856308
1114,1314.000,-9.71676267750945
1115,1315.000,-1.817492932957066
1116,1316.000,-1.0017460864237364
1117,1317.000,-11.313777305143049
1118,1318.000,-7.945061775401427
1119,1319.000,-7.379817702575565
1120,1320.000,-2.0716763111827277
1121,1321.000,9.248666155078809
1122,1322.000,-11.162367566714238
1123,1323.000,-7.072258758750195
1124,1324.000,4.546061277467288
1125,1325.000,0.9712552210826289
1126,1326.000,-6.266676268160609
1127,1327.000,1.3235194500427951
1128,1328.000,-5.591871003490041
1129,1329.000,-5.70103002746896
1130,1330.000,-6.858877040176139
1131,1331.000,-5.78463047950936
1132,1332.000,2.019921196974792
1133,1333.000,2.5800975120189378
1134,1334.000,-2.882885031381875
1135,1335.000,-0.3329539500205101
1136,1336.000,-12.273779780521863
1137,1337.000,0.3617039206112622
1138,1338.000,-4.18660642304053
1139,1339.000,-7.818469407859766
1140,1340.000,2.8638303497630204
1141,1341.000,2.753594213388851
1142,1342.000,-8.342264473513751
1143,1343.000,1.4751566123875364
1144,1344.000,8.722987774243393
1145,1345.000,-0.04607470501559874
1146,1346.000,3.899170437272005
1147,1347.000,1.316812443457593
1148,1348.000,-3.5809304644578788
1149,1349.000,1.6892279151270486
1150,1350.000,1.5843937633719634
1151,1351.000,7.758349240957386
1152,1352.000,-0.8296305119665703
1153,1353.000,-2.510175375819699
1154,1354.000,-0.16319925163520566
1155,1355.000,-4.165803061103816
1156,1356.000,0.6828452533820837
1157,1357.000,-1.0929482713122525
1158,1358.000,-4.891106619109678
1159,1359.000,10.166187205232745
1160,1360.000,4.967314176088621
1161,1361.000,5.043645246911183
1162,1362.000,-9.880588649809624
1163,1363.000,0.27450339741562857
1164,1364.000,-5.567539720974082
1165,1365.000,4.8159458643679045
1166,1366.000,-3.719298998345039
1167,1367.000,-4.622928482077441
1168,1368.000,4.209392218981748
1169,1369.000,-6.228107110619703
1170,1370.000,1.3108532923577059
1171,1371.000,-15.965821830199047
1172,1372.000,1.6147362422000242
1173,1373.000,-6.605203791390522
1174,1374.000,0.9997727465988646
1175,1375.000,-11.1292214877883
1176,1376.000,1.3984011399245446
1177,1377.000,-0.7642547573996126
1178,1378.000,1.9158944114451515
1179,1379.000,-5.7078967840323
1180,1380.000,6.104364203933073
1181,1381.000,7.94418390131932
1182,1382.000,1.2481418122749801
1183,1383.000,7.100118419077944
1184,1384.000,-10.793698817914446
1185,1385.000,-7.58505646030153
1186,1386.000,-3.7756620916852626
1187,1387.000,1.398515682281868
1188,1388.000,-2.6514467661393155
1189,1389.000,8.430610913177361
1190,1390.000,1.0521980481805713
1191,1391.000,7.633144944599508
1192,1392.000,0.23795688590007558
1193,1393.000,-6.49421686676078
1194,1394.000,-2.234376074577085
1195,1395.000,-1.5888395211325133
1196,1396.000,1.0396259875467422
1197,1397.000,-0.5203143770452243
1198,1398.000,5.6653385340637215
1199,1399.000,0.32059484727710696
1200,1400.000,-3.859229333615076
1201,1401.000,10.286971072525603
1202,1402.000,-3.588230875860745
1203,1403.000,-0.6767001430787332
1204,1404.000,0.7347572837873031
1205,1405.000,-0.9422176051778024
1206,1406.000,-0.4192358427617364
1207,1407.000,2.3332515153338136
1208,1408.000,-7.911576609549684
1209,1409.000,7.617378680924048
1210,1410.000,-5.7871187379514595
1211,1411.000,16.263316986028485
1212,1412.000,5.2499696819345445
1213,1413.000,-1.7841258443359038
1214,1414.000,-6.553524810105046
1215,1415.000,-2.8807224559584483
1216,1416.000,7.13967395421173
1217,1417.000,-5.320649866831445
1218,1418.000,3.3164837702781824
1219,1419.000,0.9021995314703872
1220,1420.000,11.15714305920028
1221,1421.000,3.100129972395507
1222,1422.000,18.38664786641857
1223,1423.000,4.998039313022218
1224,1424.000,17.821218860308136
1225,1425.000,14.677904032678953
1226,1426.000,7.666888330796382
1227,1427.000,0.9237802315442423
1228,1428.000,24.44935218797309
1229,1429.000,21.72212762926688
1230,1430.000,13.495395960695532
1231,1431.000,27.994453563570914
1232,1432.000,18.519780795205406
1233,1433.000,10.323758988867667
1234,1434.000,23.412209453737205
1235,1435.000,28.759680474865718
1236,1436.000,50.254159313129094
1237,1437.000,47.729161205184255
1238,1438.000,44.639547363430665
1239,1439.000,54.92861797596129
1240,1440.000,70.72788820651976
1241,1441.000,72.8474631944614
1242,1442.000,97.99691305470697
1243,1443.000,93.47289587769546
1244,1444.000,124.3657827293489
1245,1445.000,133.42497565102167
1246,1446.000,170.70317065946074
1247,1447.000,176.88854374676112
1248,1448.000,202.8700068803223
1249,1449.000,210.06114100280888
1250,1450.000,211.93590803209577
1251,1451.000,215.1794538612396
1252,1452.000,188.53841835842672
1253,1453.000,191.42845936692743
1254,1454.000,165.15402370506126
1255,1455.000,140.75256516614672
1256,1456.000,123.74723251845876
1257,1457.000,109.22893850518813
1258,1458.000,82.39636684439711
1259,1459.000,75.47207922897019
1260,1460.000,65.04809232658204
1261,1461.000,56.079524779645226
1262,1462.000,35.66653120526894
1263,1463.000,39.91328419521324
1264,1464.000,49.318620315856606
1265,1465.000,26.561047108135426
1266,1466.000,36.42609408751309
1267,1467.000,28.917629743935322
1268,1468.000,22.551703541781308
1269,1469.000,20.402611919821993
1270,1470.000,20.76837429118291
1271,1471.000,13.158054043292168
1272,1472.000,16.391511537839506
1273,1473.000,4.220467110738809
1274,1474.000,0.6573180720772598
1275,1475.000,16.15892570607366
1276,1476.000,4.807876271037912
1277,1477.000,8.314627999325012
1278,1478.000,12.411946097290866
1279,1479.000,7.067673745253842
1280,1480.000,0.12575609744453686
1281,1481.000,-0.6362447180331401
1282,1482.000,19.534400400754066
1283,1483.000,7.802249529524033
1284,1484.000,7.8034827177355055
1285,1485.000,6.17500998854689
1286,1486.000,7.583828338772264
1287,1487.000,0.45660473883640407
1288,1488.000,-3.6229428672706945
1289,1489.000,1.349203437973756
1290,1490.000,4.831500545566087
1291,1491.000,-1.1859186800579664
1292,1492.000,1.3955045989364407
1293,1493.000,-4.296596806269463
1294,1494.000,-0.19340311118662612
1295,1495.000,1.3243724419414775
1296,1496.000,3.2761635840904546
1297,1497.000,3.547290019412003
1298,1498.000,4.369620425193261
1299,1499.000,3.8665064518143026
1300,1500.000,4.449456722696823
1301,1501.000,0.7741298342696155
1302,1502.000,-7.043638644076282
1303,1503.000,-4.569098170036796
1304,1504.000,1.648249771567862
1305,1505.000,8.456127668748877
1306,1506.000,0.10307598229996984
1307,1507.000,-9.190948854238286
1308,1508.000,8.184930565373861
1309,1509.000,3.3939596200311826
1310,1510.000,6.784500661242419
1311,1511.000,10.796560013087628
1312,1512.000,-7.775530027829291
1313,1513.000,0.28578080757642965
1314,1514.000,-19.2119022391646
1315,1515.000,2.58740804586796
1316,1516.000,-3.398003151051171
1317,1517.000,-0.26389467133685685
1318,1518.000,-0.8446553841381501
1319,1519.000,-1.2148731863849207
1320,1520.000,-4.301500002824923
1321,1521.000,-2.1527947860711265
1322,1522.000,-4.1152995166471555
1323,1523.000,-5.620118203024504
1324,1524.000,-9.885376881669345
1325,1525.000,-3.2008886170904134
1326,1526.000,-2.1972015018750426
1327,1527.000,-4.02024565673355
1328,1528.000,10.298512769451236
1329,1529.000,2.9064025995853626
1330,1530.000,-7.1871903716767065
1331,1531.000,6.300743622014579
1332,1532.000,2.4931713186720117
1333,1533.000,4.794562427920255
1334,1534.000,6.372371630956877
1335,1535.000,-11.37765241949819
1336,1536.000,8.269417900766712
1337,1537.000,-6.68934581260055
1338,1538.000,-7.095668992556057
1339,1539.000,0.3727398993034967
1340,1540.000,3.732004372686788
1341,1541.000,-13.886984091429213
1342,1542.000,-0.1878960408414514
1343,1543.000,7.259095947830474
1344,1544.000,1.1495342691034693
1345,1545.000,4.0714122885920006
1346,1546.000,7.765454342958492
1347,1547.000,3.1967357398677905
1348,1548.000,-0.498888242047542
1349,1549.000,7.646460646767309
1350,1550.000,13.230933626735805
1351,1551.000,-10.86258311088045
1352,1552.000,5.884998595971638
1353,1553.000,1.2085858800844562
1354,1554.000,9.788742844957596
1355,1555.000,8.100270564751781
1356,1556.000,4.673531084237084
1357,1557.000,-0.7729675812372534
1358,1558.000,9.973527554204566
1359,1559.000,10.721965446921786
1360,1560.000,11.537397023715812
1361,1561.000,20.31977218179418
1362,1562.000,11.48998778870964
1363,1563.000,21.695053682331945
1364,1564.000,25.570764670799235
1365,1565.000,27.146623532475814
1366,1566.000,11.10663601590295
1367,1567.000,12.747457839765502
1368,1568.000,18.647826692841818
1369,1569.000,22.644525233958575
1370,1570.000,21.003409091953017
1371,1571.000,30.558483865630024
1372,1572.000,32.02849112370723
1373,1573.000,45.81193840478841
1374,1574.000,47.43445121730815
1375,1575.000,60.97393603949058
1376,1576.000,80.68974631930928
1377,1577.000,89.23237147444434
1378,1578.000,108.54194289222914
1379,1579.000,129.20848892962294
1380,1580.000,157.5358999131529
1381,1581.000,192.1305281388793
1382,1582.000,197.80955087234452
1383,1583.000,224.9780283485452
1384,1584.000,220.4760027718687
1385,1585.000,209.97231131605872
1386,1586.000,176.99598912418128
1387,1587.000,154.39434930856305
1388,1588.000,142.85662695076053
1389,1589.000,126.4451041015152
1390,1590.000,129.9731277807059
1391,1591.000,120.53886497730764
1392,1592.000,133.87669564934936
1393,1593.000,137.81158372386994
1394,1594.000,153.7012800968712
1395,1595.000,173.762991633281
1396,1596.000,202.52392716690588
1397,1597.000,247.65504150038464
1398,1598.000,315.1461874051529
1399,1599.000,409.5108876213942
1400,1600.000,509.5997138579944
1401,1601.000,594.0982597925047
1402,1602.000,616.0723730710954
1403,1603.000,587.9960833085077
1404,1604.000,497.6519600880192
1405,1605.000,393.4725849613951
1406,1606.000,316.45028144884486
1407,1607.000,243.77370303897442
1408,1608.000,194.82325718875973
1409,1609.000,148.44933532348227
1410,1610.000,122.32273283669315
1411,1611.000,103.73145609018161
1412,1612.000,85.97217841391239
1413,1613.000,85.85949010599325
1414,1614.000,61.05169243263117
1415,1615.000,62.933165628087636
1416,1616.000,62.063323894632276
1417,1617.000,46.348974402504155
1418,1618.000,40.18949028986867
1419,1619.000,33.290519662764154
1420,1620.000,17.467912595075404
1421,1621.000,22.863957128475477
1422,1622.000,28.91265627238772
1423,1623.000,24.84125500394407
1424,1624.000,14.50426126794082
1425,1625.000,16.202385976789856
1426,1626.000,21.455040010485618
1427,1627.000,8.101318216553182
1428,1628.000,10.249805410004456
1429,1629.000,16.78133537330291
1430,1630.000,6.720496856311684
1431,1631.000,12.796140576255084
1432,1632.000,14.49449721766996
1433,1633.000,3.2931284323738055
1434,1634.000,12.493296839405502
1435,1635.000,8.83919902499224
1436,1636.000,2.697842542504304
1437,1637.000,11.514598912414158
1438,1638.000,-5.950737377757605
1439,1639.000,-1.3430738734718943
1440,1640.000,3.8570568467782778
1441,1641.000,-0.8365598285781743
1442,1642.000,-9.726881544225762
1443,1643.000,-5.7182369780125555
1444,1644.000,4.3592821590068525
1445,1645.000,12.431266122531497
1446,1646.000,2.5343831349716766
1447,1647.000,-8.847706614605386
1448,1648.000,7.491861029496249
1449,1649.000,-0.7595948104508352
1450,1650.000,7.6448499543571415
1451,1651.000,-3.410942620781043
1452,1652.000,8.183079485880853
1453,1653.000,-0.8106007375092759
1454,1654.000,5.6846176635567645
1455,1655.000,-3.0026113900858036
1456,1656.000,6.2662209886602795
1457,1657.000,7.337923653126381
1458,1658.000,1.6574584228385447
1459,1659.000,-5.161989916542552
1460,1660.000,4.480174386746739
1461,1661.000,1.5508440505293493
1462,1662.000,13.932938758643104
1463,1663.000,-8.64559483910989
1464,1664.000,-12.073114126996643
1465,1665.000,1.6971784766014935
1466,1666.000,-3.6530514808623593
1467,1667.000,-1.3246884861366652
1468,1668.000,-2.6344550602109393
1469,1669.000,2.5177122416243947
1470,1670.000,7.8643568297525235
1471,1671.000,0.20153308018029747
1472,1672.000,0.7869233344890745
1473,1673.000,5.906627899798423
1474,1674.000,-0.8568269512752522
1475,1675.000,11.304902019324345
1476,1676.000,-9.622231984931886
1477,1677.000,-0.04423079521325235
1478,1678.000,1.72213472262888
1479,1679.000,-6.083212331985351
1480,1680.000,-5.099080894392273
1481,1681.000,12.625059065250298
1482,1682.000,-5.125461458069594
1483,1683.000,-4.978559504256509
1484,1684.000,4.9373018518410845
1485,1685.000,8.579258500386914
1486,1686.000,0.430204296520742
1487,1687.000,-3.35939793969078
1488,1688.000,11.83561957670031
1489,1689.000,-5.082265404513464
1490,1690.000,-5.181867168738336
1491,1691.000,5.886818963365613
1492,1692.000,-4.488046364143884
1493,1693.000,-5.330172542541959
1494,1694.000,-5.035438998482277
1495,1695.000,-5.043388194037561
1496,1696.000,-7.179457626737303
1497,1697.000,-5.095521829626023
1498,1698.000,0.41490462870956435
1499,1699.000,0.7254901440869617
1500,1700.000,-8.341278923309801
1501,1701.000,-14.219629248985939
1502,1702.000,8.43618545584718
1503,1703.000,-7.859169555802055
1504,1704.000,-3.598066066734191
1505,1705.000,3.0921381044083773
1506,1706.000,5.279437103072269
1507,1707.000,3.9520660387713633
1508,1708.000,2.7223619850349223
1509,1709.000,4.984672979367588
1510,1710.000,-0.36233097680292303
1511,1711.000,-0.7222969181557346
1512,1712.000,-11.416188915528892
1513,1713.000,-0.29882207596506305
1514,1714.000,9.080082457252956
1515,1715.000,0.3202165045552192
1516,1716.000,2.4685548500376626
1517,1717.000,-0.580040758575251
1518,1718.000,-6.590981609976552
1519,1719.000,0.62542597067727
1520,1720.000,3.700971621726012
1521,1721.000,-6.509720055036269
1522,1722.000,-14.412924494411072
1523,1723.000,3.4759068321679933
1524,1724.000,5.644569416592503
1525,1725.000,-6.467216285974928
1526,1726.000,2.585246142865117
1527,1727.000,-4.5206449152881305
1528,1728.000,11.812839884301638
1529,1729.000,-11.594982150523265
1530,1730.000,11.455947251151656
1531,1731.000,2.086859323248291
1532,1732.000,0.48326526266305336
1533,1733.000,4.474679229227604
1534,1734.000,18.76098534566154
1535,1735.000,2.775374697525649
1536,1736.000,-7.479554666819695
1537,1737.000,-8.505943736247673
1538,1738.000,-6.597390536931016
1539,1739.000,2.8555138676370007
1540,1740.000,3.510470376591684
1541,1741.000,3.3536038516440385
1542,1742.000,-8.682914882949262
1543,1743.000,-7.645858040431676
1544,1744.000,9.416354128396506
1545,1745.000,9.308817335155709
1546,1746.000,-2.132423746170616
1547,1747.000,0.6404045207200397
1548,1748.000,13.778215734415653
1549,1749.000,-0.14883754426045925
1550,1750.000,2.1196812077062077
1551,1751.000,6.724350475473784
1552,1752.000,9.360268706323495
1553,1753.000,5.290038309582769
1554,1754.000,-1.7166873433961882
1555,1755.000,2.8703270807172885
1556,1756.000,3.8200328771845307
1557,1757.000,10.727677303153087
1558,1758.000,-0.7935714223806372
1559,1759.000,-1.9106851186152198
1560,1760.000,6.169096357000171
1561,1761.000,-5.972768891258966
1562,1762.000,3.6987142025520825
1563,1763.000,-2.288882333997435
1564,1764.000,2.8711724882525687
1565,1765.000,-5.28788937999775
1566,1766.000,-0.6718470265541328
1567,1767.000,-3.9554505777632585
1568,1768.000,-4.289167198557834
1569,1769.000,10.297782907489818
1570,1770.000,-1.841222501863058
1571,1771.000,-5.835856707576113
1572,1772.000,-3.2174240293757066
1573,1773.000,2.1073261742039904
1574,1774.000,3.3460265057917695
1575,1775.000,2.2621445291119926
1576,1776.000,5.8928447689525
1577,1777.000,-2.0991042888649645
1578,1778.000,5.011734802444835
1579,1779.000,2.661555450605192
1580,1780.000,2.5541160242325986
1581,1781.000,8.496446852790314
1582,1782.000,-1.6098627734595539
1583,1783.000,9.690952396508692
1584,1784.000,-5.542936425558537
1585,1785.000,-2.4338250672501545
1586,1786.000,1.4687466044799748
1587,1787.000,7.331497683266434
1588,1788.000,-3.1152247767179233
1589,1789.000,7.558606239200799
1590,1790.000,1.4930677061581719
1591,1791.000,7.053764559693491
1592,1792.000,3.3459366957224574
1593,1793.000,1.6063919704859018
1594,1794.000,2.9133772005020546
1595,1795.000,3.588433162533647
1596,1796.000,4.373468593539656
1597,1797.000,11.85196719062833
1598,1798.000,10.506101611014401
1599,1799.000,2.1682074719878983
1600,1800.000,-2.7538256491482116
1601,1801.000,15.785117784887461
1602,1802.000,9.376273271318041
1603,1803.000,3.0329052672582293
1604,1804.000,5.473314189661323
1605,1805.000,6.993503415296573
1606,1806.000,0.9056582806917959
1607,1807.000,-1.8293799179116377
1608,1808.000,-5.02944792459175
1609,1809.000,5.653371476203802
1610,1810.000,5.11479945961014
1611,1811.000,-0.30883683968772857
1612,1812.000,2.3466386724958284
1613,1813.000,4.981502049804476
1614,1814.000,18.024701305291956
1615,1815.000,8.991836411385748
1616,1816.000,8.113083299841037
1617,1817.000,-2.6186481383015234
1618,1818.000,8.29587394723535
1619,1819.000,4.017873365927926
1620,1820.000,5.553494886408316
1621,1821.000,1.568432236416811
1622,1822.000,13.775687102760003
1623,1823.000,6.175509131268882
1624,1824.000,-1.5697180732429388
1625,1825.000,9.731586052970442
1626,1826.000,-4.338662967450546
1627,1827.000,13.027653346985517
1628,1828.000,4.7137104365785945
1629,1829.000,-3.0609352996123107
1630,1830.000,6.802452496190654
1631,1831.000,4.500547140445633
1632,1832.000,9.393501908242115
1633,1833.000,0.3360050332580613
1634,1834.000,7.282192707715694
1635,1835.000,0.17256508234459034
1636,1836.000,5.880623266328939
1637,1837.000,0.674034327271329
1638,1838.000,3.673170291142469
1639,1839.000,8.316798142249127
1640,1840.000,16.183229823178408
1641,1841.000,4.287362234756756
1642,1842.000,0.3314372360177913
1643,1843.000,3.908010644142223
1644,1844.000,9.831528234426514
1645,1845.000,4.166830740232399
1646,1846.000,4.993863852952472
1647,1847.000,11.279639221955676
1648,1848.000,-1.9976375454521076
1649,1849.000,6.456792115934604
1650,1850.000,3.0367377291718185
1651,1851.000,9.666290775116977
1652,1852.000,-0.1476763075997951
1653,1853.000,4.515846877368176
1654,1854.000,7.220864684045182
1655,1855.000,10.702321424092133
1656,1856.000,4.203791366757287
1657,1857.000,6.56301173883935
1658,1858.000,9.638890724640078
1659,1859.000,-0.45950253408182107
1660,1860.000,1.6656530618568013
1661,1861.000,-2.4819324309942203
1662,1862.000,10.618921001249191
1663,1863.000,10.571655329755231
1664,1864.000,6.74260948293886
1665,1865.000,-3.03179465358744
1666,1866.000,1.2173027629437456
1667,1867.000,10.513480532418725
1668,1868.000,1.101865411787685
1669,1869.000,6.4441851150306775
1670,1870.000,-3.6016436868915207
1671,1871.000,6.480909633923602
1672,1872.000,23.886771662271485
1673,1873.000,20.32467293980585
1674,1874.000,7.8350979649815145
1675,1875.000,7.783789193025541
1676,1876.000,9.49779703588706
1677,1877.000,9.863405862188074
1678,1878.000,12.527631997196067
1679,1879.000,8.397091722763207
1680,1880.000,23.33348627729174
1681,1881.000,3.38058185568957
1682,1882.000,3.258765609328293
1683,1883.000,6.342118645996607
1684,1884.000,15.20800402985742
1685,1885.000,13.999345781405736
1686,1886.000,-1.5576671225721839
1687,1887.000,6.350124250950103
1688,1888.000,7.252065791201858
1689,1889.000,3.7191513435727757
1690,1890.000,12.308673709565483
1691,1891.000,0.3228916467517138
1692,1892.000,12.00281686873359
1693,1893.000,8.100386045098958
1694,1894.000,10.74942680137201
1695,1895.000,3.8571597189768454
1696,1896.000,9.49626333519268
1697,1897.000,2.2472441431091283
1698,1898.000,3.4130475915801526
1699,1899.000,-3.12142291481382
1700,1900.000,-1.5353360158119358
1701,1901.000,12.237492604484032
1702,1902.000,18.14569421756346
1703,1903.000,2.3667170504681962
1704,1904.000,17.165849285746617
1705,1905.000,13.462746061408097
1706,1906.000,-4.0166995291167495
1707,1907.000,3.2949215629832906
1708,1908.000,-1.1112086581547373
1709,1909.000,17.186375766899573
1710,1910.000,2.3729037528221397
1711,1911.000,-7.567604830504251
1712,1912.000,14.588363841955925
1713,1913.000,4.751027550357321
1714,1914.000,3.2813080299283683
1715,1915.000,5.197196970925688
1716,1916.000,7.488016018591225
1717,1917.000,4.741314773106524
1718,1918.000,9.529592789559274
1719,1919.000,16.560791577885084
1720,1920.000,7.6923546028363035
1721,1921.000,16.58712728392993
1722,1922.000,-2.9656040045854297
1723,1923.000,-7.025220933786159
1724,1924.000,11.930360779893135
1725,1925.000,22.89883537461492
1726,1926.000,11.440469043087887
1727,1927.000,10.763439932532947
1728,1928.000,6.856870144631785
1729,1929.000,10.720090735494296
1730,1930.000,11.09778571560264
1731,1931.000,12.29571004977197
1732,1932.000,5.2090786571136505
1733,1933.000,12.43004341098549
1734,1934.000,15.071450138947739
1735,1935.000,3.5412956227196446
1736,1936.000,9.889842598144696
1737,1937.000,4.518244755132855
1738,1938.000,4.807259737629238
1739,1939.000,10.562271143563748
1740,1940.000,11.423912524812295
1741,1941.000,12.362551387149551
1742,1942.000,13.433726190204197
1743,1943.000,13.993545347426334
1744,1944.000,8.175385226028084
1745,1945.000,12.320316146953246
1746,1946.000,12.998047384823167
1747,1947.000,1.2847471679081082
1748,1948.000,6.775935678067981
1749,1949.000,10.199323050713701
1750,1950.000,2.3956963747737063
1751,1951.000,10.316218692635175
1752,1952.000,-1.5588639998873077
1753,1953.000,0.947689246396294
1754,1954.000,8.102956334015516
1755,1955.000,0.37654311878986846
1756,1956.000,6.045939409789753
1757,1957.000,9.380882969288905
1758,1958.000,4.659562512726097
1759,1959.000,15.81387570865786
1760,1960.000,-0.1440778212877376
1761,1961.000,8.10786649755778
1762,1962.000,2.4774591928446625
1763,1963.000,9.420790745169143
1764,1964.000,4.7732445880290015
1765,1965.000,4.483651107783999
1766,1966.000,23.516577643605615
1767,1967.000,16.621413487434893
1768,1968.000,9.988509883947927
1769,1969.000,10.644289030497475
1770,1970.000,6.554106077083134
1771,1971.000,7.893117126298193
1772,1972.000,6.3552232332936
1773,1973.000,5.08084740573122
1774,1974.000,2.462032603736361
1775,1975.000,9.40446773986173
1776,1976.000,8.452427679043694
1777,1977.000,5.155726238549278
1778,1978.000,9.943230187941026
1779,1979.000,4.043226249038526
1780,1980.000,0.08585509586146145
1781,1981.000,9.64964935459443
1782,1982.000,12.924488603542159
1783,1983.000,7.222268373089037
1784,1984.000,-1.8335698543494345
1785,1985.000,4.954059355631216
1786,1986.000,-5.2203596106157875
1787,1987.000,11.276076585165583
1788,1988.000,-1.9703127669115474
1789,1989.000,5.914929575084216
1790,1990.000,-3.353034195141163
1791,1991.000,5.403640067845799
1792,1992.000,13.32518846116318
1793,1993.000,3.878725033573801
1794,1994.000,8.432999785442462
1795,1995.000,5.425657668683016
1796,1996.000,6.332812586724913
1797,1997.000,11.171769394469266
1798,1998.000,10.120404898240167
1799,1999.000,-0.6753481442563043
1800,2000.000,0.9267719760216551
