pixel_index,raman_shift_cm-1,intensity
0,200.0,-12.347642138647075
1,201.0,-12.058101011963316
2,202.0,-11.771408477503684
3,203.0,-11.487551568151162
4,204.0,-11.206518344513682
5,205.0,-10.92829689489443
6,206.0,-10.652876335262363
7,207.0,-10.38024380922289
8,208.0,-10.110388487988388
9,209.0,-9.84329657034857
10,210.0,-9.578958282641224
11,211.0,-9.317360878722695
12,212.0,-9.058492639938237
13,213.0,-8.802341875092793
14,214.0,-8.548896920421498
15,215.0,-8.298146139559975
16,216.0,-8.050077923515175
17,217.0,-7.80467969063568
18,218.0,-7.561941886582531
19,219.0,-7.3218519842994
20,220.0,-7.084397483983281
21,221.0,-6.849567913055068
22,222.0,-6.617350826130149
23,223.0,-6.3877368049887195
24,224.0,-6.160712458546499
25,225.0,-5.93626642282527
26,226.0,-5.714389360923349
27,227.0,-5.495066962985987
28,228.0,-5.278289946176216
29,229.0,-5.064047054645158
30,230.0,-4.852325059502505
31,231.0,-4.643115758787417
32,232.0,-4.436404977438542
33,233.0,-4.232183567264968
34,234.0,-4.030438406916602
35,235.0,-3.8311604018545324
36,236.0,-3.6343374843220317
37,237.0,-3.4399586133145306
38,238.0,-3.2480127745505456
39,239.0,-3.058488980442121
40,240.0,-2.871376270065184
41,241.0,-2.686663709130329
42,242.0,-2.5043393899533157
43,243.0,-2.324393431425392
44,244.0,-2.146814978983997
45,245.0,-1.9715932045833142
46,246.0,-1.7987163066648009
47,247.0,-1.6281735101277093
48,248.0,-1.4599550662994432
49,249.0,-1.2940502529062314
50,250.0,-1.1304473740439676
51,251.0,-0.9691357601482196
52,252.0,-0.8101047679649866
53,253.0,-0.6533437805213396
54,254.0,-0.4988432070958311
55,255.0,-0.3465904831890896
56,256.0,-0.19657707049429973
57,257.0,-0.04879145686768993
58,258.0,0.09677784370066433
59,259.0,0.2401402911166315
60,260.0,0.38130631921151803
61,261.0,0.5202863357709475
62,262.0,0.6570917225651556
63,263.0,0.791732835377843
64,264.0,0.9242180040360211
65,265.0,1.0545605324389555
66,266.0,1.182768698588518
67,267.0,1.3088537546174734
68,268.0,1.4328259268201862
69,269.0,1.5546944156811264
70,270.0,1.6744713959048454
71,271.0,1.7921650164451535
72,272.0,1.9077874005349145
73,273.0,2.0213476457151387
74,274.0,2.132855823864645
75,275.0,2.2423229812297336
76,276.0,2.3497581384531827
77,277.0,2.455171290603971
78,278.0,2.558573407206893
79,279.0,2.6599744322716106
80,280.0,2.75938328432278
81,281.0,2.856811856428635
82,282.0,2.9522680162311303
83,283.0,3.0457626059753693
84,284.0,3.1373064425386588
85,285.0,3.2269083174602997
86,286.0,3.314577996970854
87,287.0,3.4003252220219906
88,288.0,3.4841607083154713
89,289.0,3.5660931463328893
90,290.0,3.646133201365103
91,291.0,3.7242905135415185
92,292.0,3.800574697859986
93,293.0,3.8749953442157903
94,294.0,3.9475620174312667
95,295.0,4.0182842572854724
96,296.0,4.087172578543573
97,297.0,4.154234470985784
98,298.0,4.219482399437879
99,299.0,4.282923803799406
100,300.0,4.344569099074533
101,301.0,4.4044266754001455
102,302.0,4.462507898076353
103,303.0,4.518820107595161
104,304.0,4.573374619670858
105,305.0,4.626180725268512
106,306.0,4.677245690633981
107,307.0,4.7265817573234585
108,308.0,4.774196142232597
109,309.0,4.820099037625937
110,310.0,4.864299611166757
111,311.0,4.906807005946575
112,312.0,4.947630340514024
113,313.0,4.986779708904635
114,314.0,5.024263180670744
115,315.0,5.060090800910302
116,316.0,5.09427159029633
117,317.0,5.126813545107382
118,318.0,5.157727637255505
119,319.0,5.187021814316722
120,320.0,5.214705999560579
121,321.0,5.240788091978914
122,322.0,5.265277966315807
123,323.0,5.288183473096922
124,324.0,5.309515438659105
125,325.0,5.3292816651792805
126,326.0,5.347491930705189
127,327.0,5.364153989183023
128,328.0,5.379277570488796
129,329.0,5.392871380456199
130,330.0,5.4049431009071895
131,331.0,5.415504389680962
132,332.0,5.424560880663364
133,333.0,5.432124183816654
134,334.0,5.438200885208687
135,335.0,5.442800547042566
136,336.0,5.44593270768587
137,337.0,5.4476048817004425
138,338.0,5.447826559871828
139,339.0,5.446606209238325
140,340.0,5.443951273120888
141,341.0,5.439873171152271
142,342.0,5.434377299306959
143,343.0,5.427475029930122
144,344.0,5.41917271176726
145,345.0,5.4094806699938545
146,346.0,5.398407206244656
147,347.0,5.385959598643069
148,348.0,5.372147101830649
149,349.0,5.356977946997006
150,350.0,5.340461341908394
151,351.0,5.322604470938302
152,352.0,5.303417495095687
153,353.0,5.282907552055349
154,354.0,5.261082756187307
155,355.0,5.237952198585617
156,356.0,5.213524947098449
157,357.0,5.187808046357702
158,358.0,5.1608095178077065
159,359.0,5.132539359735517
160,360.0,5.103004547299463
161,361.0,5.072213032559773
162,362.0,5.040174744507112
163,363.0,5.006896589092094
164,364.0,4.972386449255566
165,365.0,4.9366541849569785
166,366.0,4.899705633204803
167,367.0,4.861551608085335
168,368.0,4.822197900792389
169,369.0,4.781654279656948
170,370.0,4.739928490176169
171,371.0,4.697028255043449
172,372.0,4.6529612741774145
173,373.0,4.607736224751591
174,374.0,4.561361761223623
175,375.0,4.513844515365463
176,376.0,4.465194096291725
177,377.0,4.415417090490166
178,378.0,4.364522061850266
179,379.0,4.312517551693759
180,380.0,4.259410078802944
181,381.0,4.205209139451142
182,382.0,4.149922207431416
183,383.0,4.093556734086349
184,384.0,4.036121148337713
185,385.0,3.9776238567155247
186,386.0,3.9180712433877147
187,387.0,3.8574726701896225
188,388.0,3.7958344766536243
189,389.0,3.733165980038109
190,390.0,3.6694744753572763
191,391.0,3.6047682354105746
192,392.0,3.5390545108123774
193,393.0,3.4723405300208015
194,394.0,3.404635499368055
195,395.0,3.335947603089153
196,396.0,3.266282003351705
197,397.0,3.19564884028523
198,398.0,3.1240552320111306
199,399.0,3.0515092746712753
200,400.0,2.9780180424582454
201,401.0,2.9035895876446034
202,402.0,2.8282319406117153
203,403.0,2.7519521098805626
204,404.0,2.674759082139815
205,405.0,2.596659822276081
206,406.0,2.517661273403121
207,407.0,2.437773356891512
208,408.0,2.3570009723978274
209,409.0,2.2753539978942854
210,410.0,2.192840289698154
211,411.0,2.109465682501309
212,412.0,2.0252399893996653
213,413.0,1.9401690019223565
214,414.0,1.8542624900620126
215,415.0,1.7675262023029177
216,416.0,1.6799698656516853
217,417.0,1.5915991856661549
218,418.0,1.5024228464848761
219,419.0,1.4124485108569615
220,420.0,1.3216848201707876
221,421.0,1.2301383944844702
222,422.0,1.137816832554222
223,423.0,1.0447287118647068
224,424.0,0.9508815886581488
225,425.0,0.8562829979636035
226,426.0,0.7609414536270265
227,427.0,0.6648634483401565
228,428.0,0.5680584536701758
229,429.0,0.47053292008882863
230,430.0,0.3722942770029931
231,431.0,0.2733529327828137
232,432.0,0.173714274791962
233,433.0,0.07338766941677477
234,434.0,-0.027620537904056164
235,435.0,-0.12930102265033838
236,436.0,-0.2316454811901849
237,437.0,-0.33464663075176304
238,438.0,-0.43829720939277195
239,439.0,-0.5425879759715144
240,440.0,-0.6475117101169872
241,441.0,-0.753059212199787
242,442.0,-0.859223303302656
243,443.0,-0.9659958251908165
244,444.0,-1.0733676402828678
245,445.0,-1.1813316316205373
246,446.0,-1.2898787028401557
247,447.0,-1.3990007781427494
248,448.0,-1.5086898022642572
249,449.0,-1.6189367404466566
250,450.0,-1.7297335784081724
251,451.0,-1.8410713223141784
252,452.0,-1.95294199874661
253,453.0,-2.06533665467623
254,454.0,-2.178247357432042
255,455.0,-2.2916631946717416
256,456.0,-2.4055782743524787
257,457.0,-2.519981724701779
258,458.0,-2.634864694187854
259,459.0,-2.750218351489707
260,460.0,-2.866034885468139
261,461.0,-2.9823025051362038
262,462.0,-3.0990144396295136
263,463.0,-3.2161599381771566
264,464.0,-3.3337292700721264
265,465.0,-3.4517147246410786
266,466.0,-3.570104611216493
267,467.0,-3.688889259105622
268,468.0,-3.808060017561843
269,469.0,-3.9276052557548837
270,470.0,-4.047517362741587
271,471.0,-4.167782747436604
272,472.0,-4.2883938385822375
273,473.0,-4.409338084719479
274,474.0,-4.530605954158318
275,475.0,-4.652186934949327
276,476.0,-4.774068534852063
277,477.0,-4.896240281307655
278,478.0,-5.018690721408234
279,479.0,-5.141408421867595
280,480.0,-5.264380968992327
281,481.0,-5.387596968651792
282,482.0,-5.511044046248003
283,483.0,-5.6347108466883356
284,484.0,-5.758583034353592
285,485.0,-5.882647293069795
286,486.0,-6.0068923260787415
287,487.0,-6.131303856008458
288,488.0,-6.255867624843177
289,489.0,-6.380570393894345
290,490.0,-6.5053969437715295
291,491.0,-6.630333074352166
292,492.0,-6.755363604752802
293,493.0,-6.880472373298858
294,494.0,-7.005645237495855
295,495.0,-7.130864073999533
296,496.0,-7.256113778586723
297,497.0,-7.381376266125812
298,498.0,-7.506633470546944
299,499.0,-7.631868344812574
300,500.0,-7.757062860888709
301,501.0,-7.882196009714676
302,502.0,-8.00724980117377
303,503.0,-8.13220226406429
304,504.0,-8.257033446069386
305,505.0,-8.3817214137282
306,506.0,-8.506244252405963
307,507.0,-8.630578066264889
308,508.0,-8.75469897823416
309,509.0,-8.878583129981166
310,510.0,-9.002203681881724
311,511.0,-9.125535812990279
312,512.0,-9.248549721010818
313,513.0,-9.37121762226775
314,514.0,-9.493510751675103
315,515.0,-9.615397362709018
316,516.0,-9.736845727376817
317,517.0,-9.857822136187565
318,518.0,-9.978291898123643
319,519.0,-10.098218340610288
320,520.0,-10.21756480948659
321,521.0,-10.336289668975951
322,522.0,-10.454354301656167
323,523.0,-10.571714108431024
324,524.0,-10.688324508500045
325,525.0,-10.804138939328709
326,526.0,-10.919105856619808
327,527.0,-11.033175734283873
328,528.0,-11.146293064408724
329,529.0,-11.258401357231378
330,530.0,-11.36944014110793
331,531.0,-11.479346962483532
332,532.0,-11.588054385864325
333,533.0,-11.6954939937865
334,534.0,-11.801592386787433
335,535.0,-11.906270183376819
336,536.0,-12.009447020006064
337,537.0,-12.111035551040118
338,538.0,-12.21094444872665
339,539.0,-12.309076403167182
340,540.0,-12.405330122288206
341,541.0,-12.499594331810954
342,542.0,-12.591755775222168
343,543.0,-12.68169221374444
344,544.0,-12.76927042630723
345,545.0,-12.854355209516825
346,546.0,-12.936796377627388
347,547.0,-13.016436762511262
348,548.0,-13.09311021362953
349,549.0,-13.166635598002244
350,550.0,-13.2368218001792
351,551.0,-13.30346372221129
352,552.0,-13.366340283619138
353,553.0,-13.4252174213658
354,554.0,-13.479840089825643
355,555.0,-13.52993726075556
356,556.0,-13.575214923265662
357,557.0,-13.615358083789147
358,558.0,-13.650026766053884
359,559.0,-13.678852011051958
360,560.0,-13.701436877010451
361,561.0,-13.717350439362576
362,562.0,-13.72612579071722
363,563.0,-13.727256040830639
364,564.0,-13.720188316575673
365,565.0,-13.704324761913313
366,566.0,-13.679007537863185
367,567.0,-13.643524822473182
368,568.0,-13.597090810790974
369,569.0,-13.538850714833984
370,570.0,-13.467860763560452
371,571.0,-13.383088202839303
372,572.0,-13.283391295420984
373,573.0,-13.167511320908488
374,574.0,-13.034056575726595
375,575.0,-12.881484373094281
376,576.0,-12.708081042993513
377,577.0,-12.511939932140422
378,578.0,-12.290933403956274
379,579.0,-12.042683838537641
380,580.0,-11.764525632626373
381,581.0,-11.453461199581056
382,582.0,-11.106114969347686
383,583.0,-10.718672388428672
384,584.0,-10.28680891985482
385,585.0,-9.805611043156091
386,586.0,-9.269473254330137
387,587.0,-8.671985065815647
388,588.0,-8.005783006460433
389,589.0,-7.2623836214933135
390,590.0,-6.431974472493721
391,591.0,-5.503158137363471
392,592.0,-4.4626452102968415
393,593.0,-3.294865301749951
394,594.0,-1.9814980384129512
395,595.0,-0.5008780631796981
396,596.0,1.1727399648816572
397,597.0,3.0701183705583617
398,598.0,5.228211462521585
399,599.0,7.691671533356725
400,600.0,10.514767859593007
401,601.0,13.763864701732246
402,602.0,17.520623304278615
403,603.0,21.88615189576842
404,604.0,26.98640268879933
405,605.0,32.979178880059294
406,606.0,40.06318165035714
407,607.0,48.48955216465163
408,608.0,58.576209572079506
409,609.0,70.72476700598793
410,610.0,85.43840358396028
411,611.0,103.33567840784895
412,612.0,125.14796456380304
413,613.0,151.67345612229826
414,614.0,183.6343291381654
415,615.0,221.34649665062193
416,616.0,264.0902826833001
417,617.0,309.16455624427556
418,618.0,351.0081593260991
419,619.0,381.5005139058237
420,620.0,392.69567594503565
421,621.0,381.18824438988395
422,622.0,350.3836261711085
423,623.0,308.2277722040702
424,624.0,262.84126638878183
425,625.0,219.78527160993576
426,626.0,181.76092773693313
427,627.0,149.48791562391466
428,628.0,122.65032710978983
429,629.0,100.52599301826672
430,630.0,82.31672815787874
431,631.0,67.29116232201795
432,632.0,54.830743288962935
433,633.0,44.432298821906556
434,634.0,35.69422166898903
435,635.0,28.298598563323253
436,636.0,21.994295223027734
437,637.0,16.582616351254387
438,638.0,11.905765636217666
439,639.0,7.8377947512262836
440,640.0,4.277604354708615
441,641.0,1.1435380902469205
442,642.0,-1.6307614133975221
443,643.0,-4.099558542250975
444,644.0,-6.307497697101212
445,645.0,-8.291528293466172
446,646.0,-10.082404761564476
447,647.0,-11.70586854628732
448,648.0,-13.183577107167253
449,649.0,-14.533845918349584
450,650.0,-15.772237468563617
451,651.0,-16.912035261091205
452,652.0,-17.964631813740084
453,653.0,-18.939832658811724
454,654.0,-19.84611534307294
455,655.0,-20.690834427727395
456,656.0,-21.480397488384597
457,657.0,-22.22040311503065
458,658.0,-22.915756912000234
459,659.0,-23.570778497944957
460,660.0,-24.189276505805765
461,661.0,-24.77461958278286
462,662.0,-25.32979839030577
463,663.0,-25.85747260400376
464,664.0,-26.360013913677903
465,665.0,-26.83954402326981
466,666.0,-27.297962650833142
467,667.0,-27.73697852850387
468,668.0,-28.158125402470887
469,669.0,-28.56279003294594
470,670.0,-28.9522261941363
471,671.0,-29.32756667421154
472,672.0,-29.689840275277675
473,673.0,-30.039981813346458
474,674.0,-30.378843118304758
475,675.0,-30.707199033886354
476,676.0,-31.02576041764337
477,677.0,-31.335174140913296
478,678.0,-31.636035088794642
479,679.0,-31.9288871601118
480,680.0,-32.21423226739057
481,681.0,-32.49253133682646
482,682.0,-32.764206308253506
483,683.0,-33.029651135118684
484,684.0,-33.28922578444917
485,685.0,-33.54326423682505
486,686.0,-33.792076486348606
487,687.0,-34.035948540614754
488,688.0,-34.27514542068161
489,689.0,-34.509916161043066
490,690.0,-34.74048780959606
491,691.0,-34.967075427612826
492,692.0,-35.189877089712354
493,693.0,-35.40907788382924
494,694.0,-35.62485091118515
495,695.0,-35.83735728625766
496,696.0,-36.04674913675467
497,697.0,-36.2531656035801
498,698.0,-36.45674084080861
499,699.0,-36.657597015652755
500,700.0,-36.85585130843651
501,701.0,-37.051610912563774
502,702.0,-37.244980034489345
503,703.0,-37.43605389368895
504,704.0,-37.62492172263228
505,705.0,-37.81166976675013
506,706.0,-37.99637728440712
507,707.0,-38.17911954687156
508,708.0,-38.359968838285795
509,709.0,-38.538989455636965
510,710.0,-38.71624670872802
511,711.0,-38.89179992014738
512,712.0,-39.065703425240144
513,713.0,-39.23801357207776
514,714.0,-39.40877772142994
515,715.0,-39.578044246733725
516,716.0,-39.74585953406495
517,717.0,-39.912264982109264
518,718.0,-40.07730000213019
519,719.0,-40.241005017943735
520,720.0,-40.40341446588445
521,721.0,-40.56456379477868
522,722.0,-40.72448446591602
523,723.0,-40.883207953016154
524,724.0,-41.0407637422029
525,725.0,-41.19718033197296
526,726.0,-41.35248223316739
527,727.0,-41.506696968941014
528,728.0,-41.65984607473479
529,729.0,-41.81195309824329
530,730.0,-41.963040599388705
531,731.0,-42.11312815028964
532,732.0,-42.2622353352308
533,733.0,-42.410379750635
534,734.0,-42.55758100503408
535,735.0,-42.703854719037736
536,736.0,-42.84921652530488
537,737.0,-42.99368306851488
538,738.0,-43.13726700533607
539,739.0,-43.2799830043989
540,740.0,-43.421843746264585
541,741.0,-43.562861923396895
542,742.0,-43.70305024013123
543,743.0,-43.84241841264679
544,744.0,-43.98097816893505
545,745.0,-44.118739248772954
546,746.0,-44.255711403691066
547,747.0,-44.39190439694539
548,748.0,-44.5273270034877
549,749.0,-44.66198700993664
550,750.0,-44.795892214545574
551,751.0,-44.92905042717689
552,752.0,-45.06146846927004
553,753.0,-45.19315417381313
554,754.0,-45.32411238531381
555,755.0,-45.454350959767
556,756.0,-45.58387376462929
557,757.0,-45.71268767878769
558,758.0,-45.8407975925295
559,759.0,-45.96820840751434
560,760.0,-46.094924036742896
561,761.0,-46.22095040452996
562,762.0,-46.34628944647102
563,763.0,-46.47094610941804
564,764.0,-46.5949243514458
565,765.0,-46.71822714182326
566,766.0,-46.8408574609864
567,767.0,-46.962818300504296
568,768.0,-47.084112663055976
569,769.0,-47.2047425623939
570,770.0,-47.32471102332033
571,771.0,-47.444020081654344
572,772.0,-47.56267178420376
573,773.0,-47.68066618873536
574,774.0,-47.798007363946
575,775.0,-47.91469638943181
576,776.0,-48.030732355658984
577,777.0,-48.14611936393749
578,778.0,-48.26085552638733
579,779.0,-48.374943965909324
580,780.0,-48.488384816159396
581,781.0,-48.60117722151563
582,782.0,-48.71332333705004
583,783.0,-48.824822328499295
584,784.0,-48.9356743722351
585,785.0,-49.045879655233875
586,786.0,-49.155438375048334
587,787.0,-49.26434973977848
588,788.0,-49.372612968039675
589,789.0,-49.48022828893704
590,790.0,-49.58719494203183
591,791.0,-49.69351217731514
592,792.0,-49.799177255176346
593,793.0,-49.9041924463761
594,794.0,-50.0085530320132
595,795.0,-50.112260303498715
596,796.0,-50.21531156252513
597,797.0,-50.3177061210356
598,798.0,-50.41944130119623
599,799.0,-50.52051543536709
600,800.0,-50.62092686607025
601,801.0,-50.72067394596206
602,802.0,-50.81975403780348
603,803.0,-50.91816551443185
604,804.0,-51.015904758728084
605,805.0,-51.112970163590035
606,806.0,-51.209358131902945
607,807.0,-51.305067076508294
608,808.0,-51.40009242017527
609,809.0,-51.49443259557279
610,810.0,-51.5880840452362
611,811.0,-51.6810442215417
612,812.0,-51.77330758667631
613,813.0,-51.86487161260493
614,814.0,-51.95573278104462
615,815.0,-52.04588658343596
616,816.0,-52.13532952090782
617,817.0,-52.2240581042538
618,818.0,-52.312065853901004
619,819.0,-52.399350299878506
620,820.0,-52.485904981791464
621,821.0,-52.57172644878801
622,822.0,-52.65681025953131
623,823.0,-52.741148982172945
624,824.0,-52.82473919431732
625,825.0,-52.90757448299905
626,826.0,-52.9896494446466
627,827.0,-53.07095768505974
628,828.0,-53.15149381937408
629,829.0,-53.2312504720353
630,830.0,-53.31022227676863
631,831.0,-53.388402876549435
632,832.0,-53.46578392357287
633,833.0,-53.542358079226005
634,834.0,-53.618119014057584
635,835.0,-53.693059407748024
636,836.0,-53.7671699490802
637,837.0,-53.84044333591078
638,838.0,-53.91287127514056
639,839.0,-53.984444482683784
640,840.0,-54.05515368343981
641,841.0,-54.12499161126448
642,842.0,-54.19394600893702
643,843.0,-54.262008628135845
644,844.0,-54.329169229405124
645,845.0,-54.3954165821267
646,846.0,-54.46074046448916
647,847.0,-54.52512966346262
648,848.0,-54.588571974763454
649,849.0,-54.65105520282964
650,850.0,-54.712567160787785
651,851.0,-54.7730956704263
652,852.0,-54.83262656216493
653,853.0,-54.891146675024174
654,854.0,-54.94864185659844
655,855.0,-55.00509796302299
656,856.0,-55.060497858949475
657,857.0,-55.11482741750956
658,858.0,-55.168070520292304
659,859.0,-55.22021005731108
660,860.0,-55.271228926974345
661,861.0,-55.32110803605724
662,862.0,-55.36982929967144
663,863.0,-55.417373641234235
664,864.0,-55.463720992443314
665,865.0,-55.5088512932432
666,866.0,-55.552741491795814
667,867.0,-55.59537054445491
668,868.0,-55.63671441573183
669,869.0,-55.67675107827063
670,870.0,-55.71545251281327
671,871.0,-55.752795708176336
672,872.0,-55.78875266121577
673,873.0,-55.823296376801636
674,874.0,-55.85639686778586
675,875.0,-55.88802415497457
676,876.0,-55.91814826709856
677,877.0,-55.946736240782
678,878.0,-55.973755120514625
679,879.0,-55.99916795862305
680,880.0,-56.02293981523894
681,881.0,-56.04503175827017
682,882.0,-56.065405863373144
683,883.0,-56.08402021392203
684,884.0,-56.100831900978164
685,885.0,-56.115796023263556
686,886.0,-56.128867687128604
687,887.0,-56.13999600652323
688,888.0,-56.149132102968906
689,889.0,-56.15622310552817
690,890.0,-56.16121315077385
691,891.0,-56.16404538276197
692,892.0,-56.164659953000864
693,893.0,-56.16299302042239
694,894.0,-56.158979751352945
695,895.0,-56.152552319480264
696,896.0,-56.14363790582979
697,897.0,-56.13216169873135
698,898.0,-56.118044893789374
699,899.0,-56.101204693856744
700,900.0,-56.081555309003306
701,901.0,-56.05900595648359
702,902.0,-56.03346186071326
703,903.0,-56.00482425323412
704,904.0,-55.97298637268932
705,905.0,-55.937838464790275
706,906.0,-55.89926678228835
707,907.0,-55.85714858494566
708,908.0,-55.81135613950664
709,909.0,-55.761754719666214
710,910.0,-55.708203606041025
711,911.0,-55.65055108614365
712,912.0,-55.588641454346316
713,913.0,-55.522309011856805
714,914.0,-55.45137606668732
715,915.0,-55.37565893362557
716,916.0,-55.29496193420346
717,917.0,-55.2090773966695
718,918.0,-55.11778565595887
719,919.0,-55.020855053664036
720,920.0,-54.918038938004656
721,921.0,-54.809076663798805
722,922.0,-54.69369159243274
723,923.0,-54.57158909183295
724,924.0,-54.442457536434176
725,925.0,-54.30596330715366
726,926.0,-54.16175279135723
727,927.0,-54.00944938283328
728,928.0,-53.848651481761635
729,929.0,-53.67892849468535
730,930.0,-53.499822834479346
731,931.0,-53.310844920323916
732,932.0,-53.11147117767018
733,933.0,-52.9011390382168
734,934.0,-52.679246939876066
735,935.0,-52.44514832674622
736,936.0,-52.19815064908312
737,937.0,-51.93750636326604
738,938.0,-51.66241293177495
739,939.0,-51.37200282315575
740,940.0,-51.06534251199332
741,941.0,-50.74142247887971
742,942.0,-50.39914921038917
743,943.0,-50.037339199044254
744,944.0,-49.65471094328768
745,945.0,-49.24986894745439
746,946.0,-48.821298721738685
747,947.0,-48.36734778216987
748,948.0,-47.88621465057872
749,949.0,-47.37593385456671
750,950.0,-46.83434992748289
751,951.0,-46.25910240838721
752,952.0,-45.64759884202681
753,953.0,-44.99698877880314
754,954.0,-44.30412877474305
755,955.0,-43.5655483914702
756,956.0,-42.77740719617418
757,957.0,-41.935447761584555
758,958.0,-41.03493866593544
759,959.0,-40.07060949294214
760,960.0,-39.03657583176687
761,961.0,-37.9262532769942
762,962.0,-36.73225442859507
763,963.0,-35.44626589190398
764,964.0,-34.05890927758537
765,965.0,-32.55957320160542
766,966.0,-30.936214285203278
767,967.0,-29.17511815485932
768,968.0,-27.260618442269333
769,969.0,-25.174754784311062
770,970.0,-22.896858823016828
771,971.0,-20.403060205545444
772,972.0,-17.665673584149317
773,973.0,-14.65245461614768
774,974.0,-11.325683963896154
775,975.0,-7.6410322947563145
776,976.0,-3.5461442810706103
777,977.0,1.0211273998747856
778,978.0,6.1349470658724385
779,979.0,11.884315029824847
780,980.0,18.376653599777455
781,981.0,25.742396078944694
782,982.0,34.14089776573928
783,983.0,43.76806995380184
784,984.0,54.8662809320349
785,985.0,67.73722798462404
786,986.0,82.758640391075
787,987.0,100.405849426239
788,988.0,121.2792963603415
789,989.0,146.13870045901876
790,990.0,175.9433889833358
791,991.0,211.8948871898251
792,992.0,255.46986433051325
793,993.0,308.4140986529501
794,994.0,372.6330334002364
795,995.0,449.8517858110581
796,996.0,540.8289551197099
797,997.0,643.8583555561308
798,998.0,752.5171063459275
799,999.0,853.5739877104088
800,1000.0,927.7053848666128
801,1001.0,956.0052270273359
802,1002.0,930.380327401162
803,1003.0,858.9561941924967
804,1004.0,760.672131601591
805,1005.0,654.8868488245712
806,1006.0,554.8695690534714
807,1007.0,467.0852804762626
808,1008.0,393.2877842768794
809,1009.0,332.77330363525243
810,1010.0,283.8808497273358
811,1011.0,244.78103472513794
812,1012.0,213.8194037967496
813,1013.0,189.63013910637483
814,1014.0,171.14760681435928
815,1015.0,157.5805230772212
816,1016.0,148.37859604767982
817,1017.0,143.20408187468274
818,1018.0,141.91276170343963
819,1019.0,144.54523967544947
820,1020.0,151.32756192853003
821,1021.0,162.6779265968462
822,1022.0,179.2119278109426
823,1023.0,201.72931269776927
824,1024.0,231.14612738071492
825,1025.0,268.3017749796336
826,1026.0,313.52197261087304
827,1027.0,365.79105338731006
828,1028.0,421.5105264183735
829,1029.0,473.3463538100773
830,1030.0,510.62082866504807
831,1031.0,522.8914920825569
832,1032.0,505.66725215854467
833,1033.0,463.3804479856576
834,1034.0,406.4131356532712
835,1035.0,345.37922524752184
836,1036.0,287.5436758513365
837,1037.0,236.4284365444646
838,1038.0,192.96261540349997
839,1039.0,156.72083450191803
840,1040.0,126.74711591010328
841,1041.0,101.9871426953755
842,1042.0,81.47514592202333
843,1043.0,64.39399665133169
844,1044.0,50.07844594161088
845,1045.0,37.996928848228436
846,1046.0,27.728084423632936
847,1047.0,18.93852171739354
848,1048.0,11.363980776217886
849,1049.0,4.7941666439896835
850,1050.0,-0.9391446382051072
851,1051.0,-5.971329032048288
852,1052.0,-10.412008501959463
853,1053.0,-14.35052801506663
854,1054.0,-17.860165541179867
855,1055.0,-21.001405052754308
856,1056.0,-23.82447152486975
857,1057.0,-26.371318935194267
858,1058.0,-28.677190263958437
859,1059.0,-30.771850493924376
860,1060.0,-32.68056861035711
861,1061.0,-34.424902600993846
862,1062.0,-36.023333456016644
863,1063.0,-37.49177016802014
864,1064.0,-38.843968731985115
865,1065.0,-40.09187314524797
866,1066.0,-41.24589140746639
867,1067.0,-42.31512352060054
868,1068.0,-43.30756148887258
869,1069.0,-44.230237318744
870,1070.0,-45.089365018883655
871,1071.0,-45.89044760013985
872,1072.0,-46.63837307550784
873,1073.0,-47.337493460102905
874,1074.0,-47.99169577113298
875,1075.0,-48.60445602786194
876,1076.0,-49.178891251587174
877,1077.0,-49.71780046560889
878,1078.0,-50.22370269519706
879,1079.0,-50.69886896756498
880,1080.0,-51.145347311840396
881,1081.0,-51.564988759032985
882,1082.0,-51.959467342006974
883,1083.0,-52.33029709545235
884,1084.0,-52.67884905585288
885,1085.0,-53.006364261461385
886,1086.0,-53.31396475226393
887,1087.0,-53.60266556995293
888,1088.0,-53.87338475790102
889,1089.0,-54.126947361127804
890,1090.0,-54.36409542627143
891,1091.0,-54.58549200155767
892,1092.0,-54.79173013677382
893,1093.0,-54.98333188323613
894,1094.0,-55.16075429376224
895,1095.0,-55.324394422640125
896,1096.0,-55.474589325600846
897,1097.0,-55.61161705978657
898,1098.0,-55.73569968372203
899,1099.0,-55.84700525728749
900,1100.0,-55.94564284168473
901,1101.0,-56.031670499409756
902,1102.0,-56.10508329422464
903,1103.0,-56.16582129112794
904,1104.0,-56.213764556321166
905,1105.0,-56.24872515718607
906,1106.0,-56.27045116225008
907,1107.0,-56.27861764115414
908,1108.0,-56.272819664635335
909,1109.0,-56.25256930448313
910,1110.0,-56.21728663351769
911,1111.0,-56.1662887255593
912,1112.0,-56.098778655401475
913,1113.0,-56.01383349877142
914,1114.0,-55.910389332314935
915,1115.0,-55.78721923355624
916,1116.0,-55.64291828087198
917,1117.0,-55.475871553463094
918,1118.0,-55.28422513132273
919,1119.0,-55.06585309520824
920,1120.0,-54.818313526612656
921,1121.0,-54.53879550773081
922,1122.0,-54.22405912143995
923,1123.0,-53.87036045125569
924,1124.0,-53.47336358131588
925,1125.0,-53.028031596343226
926,1126.0,-52.52849258161723
927,1127.0,-51.9678766229481
928,1128.0,-51.33811880664325
929,1129.0,-50.629706219481704
930,1130.0,-49.83137294867947
931,1131.0,-48.92970908186453
932,1132.0,-47.90867570704495
933,1133.0,-46.74898691258204
934,1134.0,-45.42732178715687
935,1135.0,-43.915317419745406
936,1136.0,-42.17827489958472
937,1137.0,-40.173478316146884
938,1138.0,-37.84802275910897
939,1139.0,-35.13599031831927
940,1140.0,-31.954773083775308
941,1141.0,-28.200340145588143
942,1142.0,-23.741190593954798
943,1143.0,-18.41084251913162
944,1144.0,-11.998970011399706
945,1145.0,-4.242049161040086
946,1146.0,5.18388794170005
947,1147.0,16.66190020663089
948,1148.0,30.610051543657846
949,1149.0,47.406586862801305
950,1150.0,67.21694907423398
951,1151.0,89.66413008830932
952,1152.0,113.33321781558516
953,1153.0,135.31119416685715
954,1154.0,151.34439105319188
955,1155.0,157.27061838594864
956,1156.0,151.3060640768158
957,1157.0,135.23448703783743
958,1158.0,113.21802218143876
959,1159.0,89.51028442046527
960,1160.0,67.02423766820266
961,1161.0,47.174740838410344
962,1162.0,30.33874584535306
963,1163.0,16.350754603824043
964,1164.0,4.832465029184277
965,1165.0,-4.63424096261906
966,1166.0,-12.432483455017973
967,1167.0,-18.88628653079013
968,1168.0,-24.259234272034973
969,1169.0,-28.761713760145085
970,1170.0,-32.560268075773365
971,1171.0,-35.78646129880144
972,1172.0,-38.54439050831843
973,1173.0,-40.91672778257998
974,1174.0,-42.96946119899303
975,1175.0,-44.755564834072175
976,1176.0,-46.31782576341902
977,1177.0,-47.691017061688854
978,1178.0,-48.90357880256579
979,1179.0,-49.97891105872577
980,1180.0,-50.936379901814234
981,1181.0,-51.79211040241216
982,1182.0,-52.55959763001101
983,1183.0,-53.25019965297588
984,1184.0,-53.873522538525776
985,1185.0,-54.437730352695326
986,1186.0,-54.949794160309466
987,1187.0,-55.41569002495726
988,1188.0,-55.84056800895223
989,1189.0,-56.228878173315024
990,1190.0,-56.584485577734995
991,1191.0,-56.910755280546255
992,1192.0,-57.21062933869598
993,1193.0,-57.48668980771026
994,1194.0,-57.74120674167534
995,1195.0,-57.97618519319985
996,1196.0,-58.19340021338576
997,1197.0,-58.39442585180541
998,1198.0,-58.58066415646044
999,1199.0,-58.75336717376831
1000,1200.0,-58.91365394851482
1001,1201.0,-59.06252852383841
1002,1202.0,-59.20089194119737
1003,1203.0,-59.3295582403357
1004,1204.0,-59.449259459256155
1005,1205.0,-59.5606606341953
1006,1206.0,-59.66436179958828
1007,1207.0,-59.7609099880392
1008,1208.0,-59.85080123029866
1009,1209.0,-59.9344895552249
1010,1210.0,-60.01238698976067
1011,1211.0,-60.08487155890316
1012,1212.0,-60.15229028567046
1013,1213.0,-60.214959191077924
1014,1214.0,-60.27317129410221
1015,1215.0,-60.32719361165937
1016,1216.0,-60.377274158567616
1017,1217.0,-60.423641947525994
1018,1218.0,-60.46650598907809
1019,1219.0,-60.50606129158086
1020,1220.0,-60.542488861185575
1021,1221.0,-60.57595570180138
1022,1222.0,-60.60661781506087
1023,1223.0,-60.63461820030534
1024,1224.0,-60.66009285453674
1025,1225.0,-60.68316477240478
1026,1226.0,-60.70395294616765
1027,1227.0,-60.72256436566522
1028,1228.0,-60.73910101829006
1029,1229.0,-60.75365788895533
1030,1230.0,-60.766324960073234
1031,1231.0,-60.777185211514734
1032,1232.0,-60.78631562058672
1033,1233.0,-60.793791162001526
1034,1234.0,-60.79967980784659
1035,1235.0,-60.80404652755578
1036,1236.0,-60.8069512878792
1037,1237.0,-60.808453052854475
1038,1238.0,-60.8086047837769
1039,1239.0,-60.807458439168386
1040,1240.0,-60.80505997475166
1041,1241.0,-60.80145734341704
1042,1242.0,-60.79669149519805
1043,1243.0,-60.790803377233715
1044,1244.0,-60.783830933745776
1045,1245.0,-60.77581210601056
1046,1246.0,-60.76677883232105
1047,1247.0,-60.75676504796684
1048,1248.0,-60.74580168519742
1049,1249.0,-60.733916673197655
1050,1250.0,-60.721138938058175
1051,1251.0,-60.70749440273994
1052,1252.0,-60.693007987053534
1053,1253.0,-60.67770360761915
1054,1254.0,-60.6616031778517
1055,1255.0,-60.64472860791466
1056,1256.0,-60.6270998047039
1057,1257.0,-60.608736671812494
1058,1258.0,-60.58965710949951
1059,1259.0,-60.569879014664366
1060,1260.0,-60.54941928081598
1061,1261.0,-60.52829279804337
1062,1262.0,-60.506515452986605
1063,1263.0,-60.484101128804014
1064,1264.0,-60.46106470514815
1065,1265.0,-60.437417058135
1066,1266.0,-60.413172060306806
1067,1267.0,-60.388340580618205
1068,1268.0,-60.36293448438937
1069,1269.0,-60.33696463328897
1070,1270.0,-60.31043988529973
1071,1271.0,-60.283371094688846
1072,1272.0,-60.25576711198073
1073,1273.0,-60.22763678392312
1074,1274.0,-60.19898695346501
1075,1275.0,-60.169827459720636
1076,1276.0,-60.14016313794173
1077,1277.0,-60.11000381948952
1078,1278.0,-60.07935333180285
1079,1279.0,-60.04822049837276
1080,1280.0,-60.01660813870694
1081,1281.0,-59.984525068306084
1082,1282.0,-59.95197309863215
1083,1283.0,-59.918960037078705
1084,1284.0,-59.88548768694045
1085,1285.0,-59.851562847384685
1086,1286.0,-59.81718631342483
1087,1287.0,-59.782364875884014
1088,1288.0,-59.74709932137284
1089,1289.0,-59.711393432257864
1090,1290.0,-59.675248986625775
1091,1291.0,-59.63867075826602
1092,1292.0,-59.60165851662941
1093,1293.0,-59.564214026804166
1094,1294.0,-59.52634104949084
1095,1295.0,-59.48803834096316
1096,1296.0,-59.44930865304559
1097,1297.0,-59.41015073308199
1098,1298.0,-59.37056732390465
1099,1299.0,-59.33055716380659
1100,1300.0,-59.29012098651265
1101,1301.0,-59.24925752114768
1102,1302.0,-59.207966492210744
1103,1303.0,-59.16624661954029
1104,1304.0,-59.12409761828894
1105,1305.0,-59.08151719889247
1106,1306.0,-59.038504067043505
1107,1307.0,-58.99505492365461
1108,1308.0,-58.95116946483631
1109,1309.0,-58.90684338186429
1110,1310.0,-58.86207436115046
1111,1311.0,-58.816859084213775
1112,1312.0,-58.7711942276469
1113,1313.0,-58.725075463096346
1114,1314.0,-58.67849845722276
1115,1315.0,-58.63145887167684
1116,1316.0,-58.583952363067965
1117,1317.0,-58.5359725829353
1118,1318.0,-58.48751417772155
1119,1319.0,-58.43857078873452
1120,1320.0,-58.38913705212963
1121,1321.0,-58.33920459887122
1122,1322.0,-58.28876705470384
1123,1323.0,-58.23781704013072
1124,1324.0,-58.186346170376055
1125,1325.0,-58.134345055356334
1126,1326.0,-58.08180629965682
1127,1327.0,-58.02871750249142
1128,1328.0,-57.97507125768834
1129,1329.0,-57.920855153645334
1130,1330.0,-57.86605777331306
1131,1331.0,-57.81066869415099
1132,1332.0,-57.75467448811514
1133,1333.0,-57.69806172161407
1134,1334.0,-57.64081695549112
1135,1335.0,-57.58292574498182
1136,1336.0,-57.52437263969841
1137,1337.0,-57.465141183588
1138,1338.0,-57.40521491491654
1139,1339.0,-57.34457536622267
1140,1340.0,-57.283204064302936
1141,1341.0,-57.221082530174954
1142,1342.0,-57.15818827904877
1143,1343.0,-57.09450082030071
1144,1344.0,-57.02999665744164
1145,1345.0,-56.96465228808165
1146,1346.0,-56.89844220391251
1147,1347.0,-56.831338890668576
1148,1348.0,-56.763315828102805
1149,1349.0,-56.69434348995355
1150,1350.0,-56.62439034391946
1151,1351.0,-56.553423851620664
1152,1352.0,-56.48140946858348
1153,1353.0,-56.40831164420024
1154,1354.0,-56.334091821701804
1155,1355.0,-56.25871043813049
1156,1356.0,-56.1821239243086
1157,1357.0,-56.10428770481121
1158,1358.0,-56.02515619793621
1159,1359.0,-55.944677815669365
1160,1360.0,-55.862800963662266
1161,1361.0,-55.77946904120154
1162,1362.0,-55.69462444117471
1163,1363.0,-55.60820355004307
1164,1364.0,-55.520140747818914
1165,1365.0,-55.43036740802245
1166,1366.0,-55.33880789766499
1167,1367.0,-55.24538457721383
1168,1368.0,-55.15001380056083
1169,1369.0,-55.05260691500098
1170,1370.0,-54.953070261188714
1171,1371.0,-54.8513041731253
1172,1372.0,-54.747202978121095
1173,1373.0,-54.64065099675963
1174,1374.0,-54.531529542880435
1175,1375.0,-54.41970992354027
1176,1376.0,-54.305054438993466
1177,1377.0,-54.187416382650554
1178,1378.0,-54.066639041054714
1179,1379.0,-53.94255469385689
1180,1380.0,-53.81498361377453
1181,1381.0,-53.68373306657804
1182,1382.0,-53.54859731104352
1183,1383.0,-53.40935359893729
1184,1384.0,-53.26576417498336
1185,1385.0,-53.117572276826195
1186,1386.0,-52.96450113501078
1187,1387.0,-52.80625297294955
1188,1388.0,-52.642506006891836
1189,1389.0,-52.472911445892805
1190,1390.0,-52.297094491791995
1191,1391.0,-52.11464533917524
1192,1392.0,-51.92512117534898
1193,1393.0,-51.72804318030785
1194,1394.0,-51.522885526711434
1195,1395.0,-51.30908037984864
1196,1396.0,-51.086004897611474
1197,1397.0,-50.85297923046528
1198,1398.0,-50.6092605214144
1199,1399.0,-50.354032905984695
1200,1400.0,-50.08640051217617
1201,1401.0,-49.80538046045285
1202,1402.0,-49.50988586369931
1203,1403.0,-49.198720827198485
1204,1404.0,-48.87055944859458
1205,1405.0,-48.52393281787454
1206,1406.0,-48.15721101733516
1207,1407.0,-47.76857812154003
1208,1408.0,-47.35600819731144
1209,1409.0,-46.91723630368688
1210,1410.0,-46.44972449189481
1211,1411.0,-45.95061880532194
1212,1412.0,-45.41670327948759
1213,1413.0,-44.84434494201287
1214,1414.0,-44.22942581258667
1215,1415.0,-43.56726490294204
1216,1416.0,-42.85252321683038
1217,1417.0,-42.07909374998053
1218,1418.0,-41.239963490072114
1219,1419.0,-40.32705341671681
1220,1420.0,-39.331014501418395
1221,1421.0,-38.240992707545956
1222,1422.0,-37.04432699030258
1223,1423.0,-35.726189296700795
1224,1424.0,-34.26912956553042
1225,1425.0,-32.652510727324625
1226,1426.0,-30.851810704341915
1227,1427.0,-28.837730410522454
1228,1428.0,-26.575071751470205
1229,1429.0,-24.021306624416866
1230,1430.0,-21.124746918193523
1231,1431.0,-17.822183513207165
1232,1432.0,-14.035840281400851
1233,1433.0,-9.669422086230043
1234,1434.0,-4.602967782633641
1235,1435.0,1.3138147829931768
1236,1436.0,8.270170772835627
1237,1437.0,16.5052863576866
1238,1438.0,26.32194571696982
1239,1439.0,38.102645038775336
1240,1440.0,52.326608519887486
1241,1441.0,69.58294436581673
1242,1442.0,90.56820779082318
1243,1443.0,116.04258901795401
1244,1444.0,146.69388127906313
1245,1445.0,182.82296381484957
1246,1446.0,223.74443787488326
1247,1447.0,266.8858057176358
1248,1448.0,306.95073661050446
1249,1449.0,336.2053548298536
1250,1450.0,347.0821046610263
1251,1451.0,336.3377573983935
1252,1452.0,307.2155703453691
1253,1453.0,267.2831238144445
1254,1454.0,224.2743211272218
1255,1455.0,183.4855206144348
1256,1456.0,147.48924661598448
1257,1457.0,116.97092648096805
1258,1458.0,91.62970756770665
1259,1459.0,70.77782524377653
1260,1460.0,53.65511788603544
1261,1461.0,39.56505888065749
1262,1462.0,27.918569623155236
1263,1463.0,18.236454518417304
1264,1464.0,10.13624798073215
1265,1465.0,3.3151974338170476
1266,1466.0,-2.465852689145322
1267,1467.0,-7.396115945488418
1268,1468.0,-11.625851883020005
1269,1469.0,-15.274987040003907
1270,1470.0,-18.439783945125782
1271,1471.0,-21.197982117460924
1272,1472.0,-23.61275406644654
1273,1473.0,-25.735753291853143
1274,1474.0,-27.60946628376223
1275,1475.0,-29.2690545225214
1276,1476.0,-30.743774478724845
1277,1477.0,-32.05810861318332
1278,1478.0,-33.23264837689749
1279,1479.0,-34.284798211017005
1280,1480.0,-35.22934154682389
1281,1481.0,-36.078890805695664
1282,1482.0,-36.84425039907819
1283,1483.0,-37.53471472845558
1284,1484.0,-38.158312185325485
1285,1485.0,-38.72199715115585
1286,1486.0,-39.23181899737574
1287,1487.0,-39.693056085326134
1288,1488.0,-40.110325766246206
1289,1489.0,-40.48767738123206
1290,1490.0,-40.82867726121367
1291,1491.0,-41.13646772692755
1292,1492.0,-41.413826088876704
1293,1493.0,-41.66321164731471
1294,1494.0,-41.88680669220321
1295,1495.0,-42.086548503197264
1296,1496.0,-42.26416134959982
1297,1497.0,-42.421178490343664
1298,1498.0,-42.55896917395694
1299,1499.0,-42.678750638540805
1300,1500.0,-42.78160811172074
1301,1501.0,-42.868508810646745
1302,1502.0,-42.94031194193303
1303,1503.0,-42.997782701653705
1304,1504.0,-43.04159527529919
1305,1505.0,-43.07234683774823
1306,1506.0,-43.090562553244126
1307,1507.0,-43.09669957535789
1308,1508.0,-43.09115204696809
1309,1509.0,-43.07426010021936
1310,1510.0,-43.04630585650102
1311,1511.0,-43.007526426421464
1312,1512.0,-42.95810490976601
1313,1513.0,-42.89818339548037
1314,1514.0,-42.82785796163262
1315,1515.0,-42.747181675386855
1316,1516.0,-42.656166592970294
1317,1517.0,-42.55478275965561
1318,1518.0,-42.44296020971251
1319,1519.0,-42.3205869664007
1320,1520.0,-42.18750904191438
1321,1521.0,-42.0435304373741
1322,1522.0,-41.88841014279387
1323,1523.0,-41.72186313704333
1324,1524.0,-41.54355538781783
1325,1525.0,-41.35310285162268
1326,1526.0,-41.15007047372819
1327,1527.0,-40.93396518815189
1328,1528.0,-40.704231917621655
1329,1529.0,-40.46025457354699
1330,1530.0,-40.201342055994246
1331,1531.0,-39.92673025365184
1332,1532.0,-39.63556804380369
1333,1533.0,-39.32691729230373
1334,1534.0,-38.999733853530415
1335,1535.0,-38.6528645703811
1336,1536.0,-38.28503427422129
1337,1537.0,-37.89482878486979
1338,1538.0,-37.480679910560866
1339,1539.0,-37.040849447917026
1340,1540.0,-36.57340718192245
1341,1541.0,-36.07620488588509
1342,1542.0,-35.546851321420036
1343,1543.0,-34.982674238411164
1344,1544.0,-34.3806883749794
1345,1545.0,-33.73754845746498
1346,1546.0,-33.04949420038247
1347,1547.0,-32.31229330640417
1348,1548.0,-31.521164466328628
1349,1549.0,-30.67069535903829
1350,1550.0,-29.754735651489682
1351,1551.0,-28.766277998669466
1352,1552.0,-27.697307043574256
1353,1553.0,-26.5386224171707
1354,1554.0,-25.279624738378516
1355,1555.0,-23.908047614026145
1356,1556.0,-22.40963863883826
1357,1557.0,-20.767757395393346
1358,1558.0,-18.962885454103343
1359,1559.0,-16.972007373170527
1360,1560.0,-14.767843698575234
1361,1561.0,-12.31787596403501
1362,1562.0,-9.583112690977032
1363,1563.0,-6.516516388512173
1364,1564.0,-3.0609845534045235
1365,1565.0,0.8532503299657037
1366,1566.0,5.311990789617994
1367,1567.0,10.421429366008852
1368,1568.0,16.31380561206879
1369,1569.0,23.15468609321215
1370,1570.0,31.152244387387327
1371,1571.0,40.56877408509445
1372,1572.0,51.73429578941068
1373,1573.0,65.06097011604015
1374,1574.0,81.0544076933129
1375,1575.0,100.31222516224716
1376,1576.0,123.48860217655329
1377,1577.0,151.18292440267396
1378,1578.0,183.6814035198131
1379,1579.0,220.4639722199654
1380,1580.0,259.4628492079437
1381,1581.0,296.3744532014143
1382,1582.0,324.8984259309145
1383,1583.0,338.88948013989284
1384,1584.0,335.79247458473765
1385,1585.0,318.43233003480145
1386,1586.0,293.2382062724337
1387,1587.0,266.8234980930074
1388,1588.0,243.85100130495448
1389,1589.0,226.81375672979084
1390,1590.0,216.74652520214295
1391,1591.0,213.99393956978656
1392,1592.0,218.73135869366251
1393,1593.0,231.24473444792238
1394,1594.0,252.0390557199462
1395,1595.0,281.8065934103761
1396,1596.0,321.21805443314315
1397,1597.0,370.42422871550116
1398,1598.0,428.1129391980485
1399,1599.0,490.0994718347756
1400,1600.0,548.0183695930682
1401,1601.0,589.7581204537537
1402,1602.0,603.4900314111328
1403,1603.0,584.1076324729966
1404,1604.0,536.5737916606686
1405,1605.0,472.566094009022
1406,1606.0,404.02942556652306
1407,1607.0,339.1380373952461
1408,1608.0,281.85028157091165
1409,1609.0,233.20437618292
1410,1610.0,192.713746334367
1411,1611.0,159.29530814208465
1412,1612.0,131.7563887366705
1413,1613.0,109.00511226250637
1414,1614.0,90.11793287780529
1415,1615.0,74.34311575462198
1416,1616.0,61.08009707889505
1417,1617.0,49.852912050473606
1418,1618.0,40.28505188314284
1419,1619.0,32.07816180466307
1420,1620.0,24.99489905678729
1421,1621.0,18.845480895292894
1422,1622.0,13.477262590023201
1423,1623.0,8.76670942490182
1424,1624.0,4.613206697969872
1425,1625.0,0.9342967214161035
1426,1626.0,-2.338020178404804
1427,1627.0,-5.260157660920413
1428,1628.0,-7.879187371332591
1429,1629.0,-10.234608940579164
1430,1630.0,-12.359737985303582
1431,1631.0,-14.28282510783174
1432,1632.0,-16.027937896132244
1433,1633.0,-17.61567492378981
1434,1634.0,-19.063748749990737
1435,1635.0,-20.387448919466806
1436,1636.0,-21.600028962494434
1437,1637.0,-22.713020394840896
1438,1638.0,-23.736496717744558
1439,1639.0,-24.679280417892187
1440,1640.0,-25.54913496738027
1441,1641.0,-26.352901823689535
1442,1642.0,-27.09663742965131
1443,1643.0,-27.7857142134244
1444,1644.0,-28.424912588459847
1445,1645.0,-29.018495953475394
1446,1646.0,-29.570278692424836
1447,1647.0,-30.08368017446719
1448,1648.0,-30.561770753940436
1449,1649.0,-31.007318770326492
1450,1650.0,-31.422821548231695
1451,1651.0,-31.81053739734125
1452,1652.0,-32.172511612408925
1453,1653.0,-32.51060447320651
1454,1654.0,-32.826505244523105
1455,1655.0,-33.121753176102175
1456,1656.0,-33.397755502636755
1457,1657.0,-33.65579744372735
1458,1658.0,-33.897054203861444
1459,1659.0,-34.12260697237434
1460,1660.0,-34.33344592343019
1461,1661.0,-34.530483215980894
1462,1662.0,-34.7145579937478
1463,1663.0,-34.886445385181105
1464,1664.0,-35.046860503442986
1465,1665.0,-35.196464446371465
1466,1666.0,-35.33586829644264
1467,1667.0,-35.465641120761575
1468,1668.0,-35.586307971009774
1469,1669.0,-35.698356883435736
1470,1670.0,-35.80224387881026
1471,1671.0,-35.898391962407004
1472,1672.0,-35.98719412396986
1473,1673.0,-36.069018337676425
1474,1674.0,-36.14420756212439
1475,1675.0,-36.21308274028797
1476,1676.0,-36.27594379949369
1477,1677.0,-36.33306965138945
1478,1678.0,-36.384725191915095
1479,1679.0,-36.43115530128125
1480,1680.0,-36.47259084392317
1481,1681.0,-36.50924966848652
1482,1682.0,-36.541334607786666
1483,1683.0,-36.56903847879221
1484,1684.0,-36.59254108258301
1485,1685.0,-36.61201120432361
1486,1686.0,-36.627608613242955
1487,1687.0,-36.63948606258964
1488,1688.0,-36.6477842896129
1489,1689.0,-36.65263701553977
1490,1690.0,-36.65417094551958
1491,1691.0,-36.65250776862649
1492,1692.0,-36.64775815780831
1493,1693.0,-36.64003076986228
1494,1694.0,-36.629425245416314
1495,1695.0,-36.61603920887501
1496,1696.0,-36.59996326842429
1497,1697.0,-36.58128201596173
1498,1698.0,-36.56007802710792
1499,1699.0,-36.53642886114994
1500,1700.0,-36.51040806101719
1501,1701.0,-36.482085153255866
1502,1702.0,-36.45152564799719
1503,1703.0,-36.41879303893347
1504,1704.0,-36.38394680327838
1505,1705.0,-36.347044401743005
1506,1706.0,-36.30813827851489
1507,1707.0,-36.26728186120636
1508,1708.0,-36.22452156084637
1509,1709.0,-36.17990677184662
1510,1710.0,-36.133478871963234
1511,1711.0,-36.08528122227199
1512,1712.0,-36.03535516714601
1513,1713.0,-35.98373603421442
1514,1714.0,-35.93046313434479
1515,1715.0,-35.875569761597944
1516,1716.0,-35.81908819321325
1517,1717.0,-35.76105168957474
1518,1718.0,-35.70148949418399
1519,1719.0,-35.64042983361742
1520,1720.0,-35.577899917515424
1521,1721.0,-35.51392693853995
1522,1722.0,-35.44853407235223
1523,1723.0,-35.381746477581146
1524,1724.0,-35.31358629578608
1525,1725.0,-35.24407365144634
1526,1726.0,-35.17323165190464
1527,1727.0,-35.101077387368605
1528,1728.0,-35.02763093085741
1529,1729.0,-34.95291033817739
1530,1730.0,-34.876930647902554
1531,1731.0,-34.799709881333
1532,1732.0,-34.721263042473765
1533,1733.0,-34.64160411800276
1534,1734.0,-34.560748077235075
1535,1735.0,-34.47870787210741
1536,1736.0,-34.39549543713292
1537,1737.0,-34.31112268938523
1538,1738.0,-34.22560252846051
1539,1739.0,-34.13894483644526
1540,1740.0,-34.05116047790398
1541,1741.0,-33.962258299827226
1542,1742.0,-33.87224913161572
1543,1743.0,-33.78114078505041
1544,1744.0,-33.688942054256586
1545,1745.0,-33.59566071568497
1546,1746.0,-33.5013045280657
1547,1747.0,-33.40588023239434
1548,1748.0,-33.30939455189946
1549,1749.0,-33.211854192004466
1550,1750.0,-33.113265840309396
1551,1751.0,-33.01363316655352
1552,1752.0,-32.91296382258679
1553,1753.0,-32.81126144234804
1554,1754.0,-32.708530641826655
1555,1755.0,-32.60477601902858
1556,1756.0,-32.50000115396779
1557,1757.0,-32.39421160861821
1558,1758.0,-32.28740892688256
1559,1759.0,-32.179596634579866
1560,1760.0,-32.07077923939869
1561,1761.0,-31.960957230880922
1562,1762.0,-31.850135080382643
1563,1763.0,-31.73831524104662
1564,1764.0,-31.62549814778049
1565,1765.0,-31.51168621721081
1566,1766.0,-31.396881847677832
1567,1767.0,-31.281085419183
1568,1768.0,-31.164299293369368
1569,1769.0,-31.046522813498996
1570,1770.0,-30.92775930440439
1571,1771.0,-30.808008072478515
1572,1772.0,-30.68726940564011
1573,1773.0,-30.565544573288207
1574,1774.0,-30.442832826306585
1575,1775.0,-30.31913539699326
1576,1776.0,-30.19445049906517
1577,1777.0,-30.068779327610173
1578,1778.0,-29.94212205906115
1579,1779.0,-29.814475851173484
1580,1780.0,-29.68584184298379
1581,1781.0,-29.55621815478844
1582,1782.0,-29.425605888120117
1583,1783.0,-29.294001125692375
1584,1784.0,-29.16140493141029
1585,1785.0,-29.027815350300443
1586,1786.0,-28.893230408509226
1587,1787.0,-28.75764911326951
1588,1788.0,-28.62107045285211
1589,1789.0,-28.483491396563295
1590,1790.0,-28.344910894694294
1591,1791.0,-28.205326878496635
1592,1792.0,-28.06473726017066
1593,1793.0,-27.923139932806407
1594,1794.0,-27.780532770370883
1595,1795.0,-27.63691362768168
1596,1796.0,-27.492280340371508
1597,1797.0,-27.346629724858758
1598,1798.0,-27.199958578316
1599,1799.0,-27.052266678646447
1600,1800.0,-26.90354878445214
1601,1801.0,-26.753802635003012
1602,1802.0,-26.603026950206186
1603,1803.0,-26.45121643058428
1604,1804.0,-26.2983697572281
1605,1805.0,-26.144483591794597
1606,1806.0,-25.989553576452636
1607,1807.0,-25.833577333865833
1608,1808.0,-25.676552467157308
1609,1809.0,-25.518473559887752
1610,1810.0,-25.359338176017445
1611,1811.0,-25.199142859883978
1612,1812.0,-25.037884136165303
1613,1813.0,-24.87555750986212
1614,1814.0,-24.71216046624795
1615,1815.0,-24.547688470865978
1616,1816.0,-24.382137969480027
1617,1817.0,-24.21550538804695
1618,1818.0,-24.04778513270503
1619,1819.0,-23.878975589711445
1620,1820.0,-23.709071125449555
1621,1821.0,-23.538068086372732
1622,1822.0,-23.365961798985154
1623,1823.0,-23.192748569817923
1624,1824.0,-23.018424685381433
1625,1825.0,-22.84298441215924
1626,1826.0,-22.666423996560297
1627,1827.0,-22.488739664900095
1628,1828.0,-22.309926623362117
1629,1829.0,-22.129979057976925
1630,1830.0,-21.948894134588954
1631,1831.0,-21.76666699882935
1632,1832.0,-21.58329177608175
1633,1833.0,-21.398765571454533
1634,1834.0,-21.21308146975298
1635,1835.0,-21.02623653545561
1636,1836.0,-20.83822481266816
1637,1837.0,-20.64904232511344
1638,1838.0,-20.458683076085435
1639,1839.0,-20.267143048429716
1640,1840.0,-20.074416204519366
1641,1841.0,-19.88049848620176
1642,1842.0,-19.685384814795725
1643,1843.0,-19.489069091050624
1644,1844.0,-19.2915471951128
1645,1845.0,-19.09281298650876
1646,1846.0,-18.892862304096525
1647,1847.0,-18.6916889660597
1648,1848.0,-18.489287769855764
1649,1849.0,-18.285653492201163
1650,1850.0,-18.08078088903767
1651,1851.0,-17.874663695499294
1652,1852.0,-17.667297625893298
1653,1853.0,-17.45867737365097
1654,1854.0,-17.24879561132002
1655,1855.0,-17.037647990528058
1656,1856.0,-16.825229141942145
1657,1857.0,-16.611532675256967
1658,1858.0,-16.396553179142757
1659,1859.0,-16.180285221244958
1660,1860.0,-15.962722348134776
1661,1861.0,-15.743859085272561
1662,1862.0,-15.523689937012023
1663,1863.0,-15.30220838652258
1664,1864.0,-15.079409895808567
1665,1865.0,-14.855286905648427
1666,1866.0,-14.629834835569454
1667,1867.0,-14.403046083832123
1668,1868.0,-14.174916027383915
1669,1869.0,-13.945438021835798
1670,1870.0,-13.714606401446872
1671,1871.0,-13.482414479072759
1672,1872.0,-13.248856546139905
1673,1873.0,-13.013926872635238
1674,1874.0,-12.777617707058198
1675,1875.0,-12.539924276390593
1676,1876.0,-12.300839786083088
1677,1877.0,-12.060357420008586
1678,1878.0,-11.818471340439828
1679,1879.0,-11.57517568802632
1680,1880.0,-11.330462581749998
1681,1881.0,-11.084327118914189
1682,1882.0,-10.836762375092803
1683,1883.0,-10.587762404117711
1684,1884.0,-10.33731923805226
1685,1885.0,-10.085426887136236
1686,1886.0,-9.832079339787924
1687,1887.0,-9.57726956255101
1688,1888.0,-9.320991500082528
1689,1889.0,-9.06323807510762
1690,1890.0,-8.80400218840623
1691,1891.0,-8.543277718766149
1692,1892.0,-8.281057522966876
1693,1893.0,-8.017335435743007
1694,1894.0,-7.752103269768668
1695,1895.0,-7.485355815597359
1696,1896.0,-7.2170858416720876
1697,1897.0,-6.947285094260224
1698,1898.0,-6.675948297450304
1699,1899.0,-6.4030681531066875
1700,1900.0,-6.128637340849309
1701,1901.0,-5.852649518006729
1702,1902.0,-5.575096319623299
1703,1903.0,-5.295971358389579
1704,1904.0,-5.015268224637111
1705,1905.0,-4.732978486296815
1706,1906.0,-4.4490966888770345
1707,1907.0,-4.163614355429672
1708,1908.0,-3.8765249865264195
1709,1909.0,-3.587820060226477
1710,1910.0,-3.2974940320391397
1711,1911.0,-3.0055393349011865
1712,1912.0,-2.711947379157209
1713,1913.0,-2.416712552510944
1714,1914.0,-2.119826220014147
1715,1915.0,-1.821281724016444
1716,1916.0,-1.5210703841521536
1717,1917.0,-1.2191864973146949
1718,1918.0,-0.9156223376085109
1719,1919.0,-0.6103691563339453
1720,1920.0,-0.30342018195642595
1721,1921.0,0.005232379936387588
1722,1922.0,0.31559534663938393
1723,1923.0,0.6276765583888846
1724,1924.0,0.9414838783559389
1725,1925.0,1.2570251927163554
1726,1926.0,1.5743084106525203
1727,1927.0,1.8933404643876202
1728,1928.0,2.2141293092263368
1729,1929.0,2.536682923570879
1730,1930.0,2.861008308950659
1731,1931.0,3.1871144900687796
1732,1932.0,3.5150085148115977
1733,1933.0,3.8446994542873654
1734,1934.0,4.176193402855461
1735,1935.0,4.509498478159003
1736,1936.0,4.844623821138157
1737,1937.0,5.1815765960845965
1738,1938.0,5.520365990649225
1739,1939.0,5.860998215888685
1740,1940.0,6.203481506282515
1741,1941.0,6.547826119761339
1742,1942.0,6.894037337748159
1743,1943.0,7.242124465181405
1744,1944.0,7.592096830541777
1745,1945.0,7.943960785883974
1746,1946.0,8.297724706871122
1747,1947.0,8.653397992794453
1748,1948.0,9.010989066609
1749,1949.0,9.370504374961456
1750,1950.0,9.731953388223701
1751,1951.0,10.095344600516
1752,1952.0,10.46068552973793
1753,1953.0,10.827985717602132
1754,1954.0,11.19725272965843
1755,1955.0,11.568495155325763
1756,1956.0,11.941721607924592
1757,1957.0,12.316940724701453
1758,1958.0,12.694161166853519
1759,1959.0,13.073390619577367
1760,1960.0,13.454637792075118
1761,1961.0,13.837911417604118
1762,1962.0,14.223221253488191
1763,1963.0,14.610575081157549
1764,1964.0,14.999980706181304
1765,1965.0,15.391447958288154
1766,1966.0,15.784984691400496
1767,1967.0,16.180600783666705
1768,1968.0,16.5783041374807
1769,1969.0,16.978104679524222
1770,1970.0,17.380009360782424
1771,1971.0,17.784028156592285
1772,1972.0,18.190170066649443
1773,1973.0,18.598444115054917
1774,1974.0,19.008858350335686
1775,1975.0,19.421422845479356
1776,1976.0,19.836144697957934
1777,1977.0,20.253035029768398
1778,1978.0,20.672102987444305
1779,1979.0,21.093355742101267
1780,1980.0,21.516802489458314
1781,1981.0,21.94245444986882
1782,1982.0,22.37031886835757
1783,1983.0,22.800406014634063
1784,1984.0,23.23272418313536
1785,1985.0,23.667283693052923
1786,1986.0,24.10409188835547
1787,1987.0,24.543160137829545
1788,1988.0,24.984496835103528
1789,1989.0,25.42811139866626
1790,1990.0,25.874012271921856
1791,1991.0,26.322209923187984
1792,1992.0,26.77271384575579
1793,1993.0,27.225532557898987
1794,1994.0,27.680676602908534
1795,1995.0,28.13815454912583
1796,1996.0,28.597975989965562
1797,1997.0,29.06015154394936
1798,1998.0,29.524689854735698
1799,1999.0,29.991599591154227
1800,2000.0,30.460891447220092
