pixel_index,raman_shift_cm-1,intensity
0,200.000,1.9588829999999997
1,201.000,-3.260721
2,202.000,-0.5129474999999999
3,203.000,0.405011
4,204.000,0.07222899999999988
5,205.000,3.7008115000000004
6,206.000,2.907495
7,207.000,-3.7166580000000007
8,208.000,1.3645265
9,209.000,0.05870350000000002
10,210.000,-5.606222499999999
11,211.000,1.8658735000000002
12,212.000,3.4313275
13,213.000,1.8986435000000002
14,214.000,3.111771
15,215.000,4.6706185
16,216.000,-5.2795375
17,217.000,-3.4108625
18,218.000,2.3464515
19,219.000,1.0530545
20,220.000,4.8429125
21,221.000,4.3569105
22,222.000,-14.034333
23,223.000,-8.5206095
24,224.000,7.193225
25,225.000,5.272871500000001
26,226.000,4.066033
27,227.000,1.5773994999999998
28,228.000,1.5058855000000002
29,229.000,-5.3212265
30,230.000,2.6872325000000004
31,231.000,5.961698
32,232.000,-7.6806605
33,233.000,-4.007313
34,234.000,0.40341750000000004
35,235.000,4.3524735
36,236.000,5.99387
37,237.000,-5.53765
38,238.000,-1.823271
39,239.000,-0.649534
40,240.000,-1.7917895000000001
41,241.000,2.7683365
42,242.000,0.788154
43,243.000,-9.264431
44,244.000,0.03539449999999977
45,245.000,8.927704499999999
46,246.000,-0.3308789999999999
47,247.000,4.954908
48,248.000,-4.0597695
49,249.000,-4.344459
50,250.000,3.7944674999999997
51,251.000,0.2868115
52,252.000,-1.8431929999999999
53,253.000,-4.5580035
54,254.000,-0.11290349999999999
55,255.000,4.613693
56,256.000,2.1627544999999997
57,257.000,-3.9008145
58,258.000,-4.7824975
59,259.000,5.1204525
60,260.000,1.4499045000000002
61,261.000,-1.1457424999999999
62,262.000,2.1365535
63,263.000,1.0877124999999999
64,264.000,-7.5367445
65,265.000,-3.91208
66,266.000,5.8362765
67,267.000,-5.698487500000001
68,268.000,-0.25850700000000004
69,269.000,5.8006435000000005
70,270.000,-0.7279605
71,271.000,-2.4930000000000003
72,272.000,-3.4592704999999997
73,273.000,-1.2948934999999997
74,274.000,7.0155525
75,275.000,3.0942454999999995
76,276.000,-1.0867730000000002
77,277.000,-0.5590009999999999
78,278.000,2.0835730000000003
79,279.000,0.07399699999999987
80,280.000,-4.4031135
81,281.000,2.960065
82,282.000,0.2795635000000001
83,283.000,-4.8750230000000006
84,284.000,-1.1886279999999998
85,285.000,6.035453
86,286.000,8.7653855
87,287.000,-4.439610500000001
88,288.000,-6.786739
89,289.000,5.315742
90,290.000,-0.9999225
91,291.000,3.8631025000000005
92,292.000,-0.570498
93,293.000,-4.138863000000001
94,294.000,3.731672
95,295.000,-2.145878
96,296.000,2.3312945000000003
97,297.000,1.3913479999999998
98,298.000,-3.9682820000000003
99,299.000,1.9821170000000006
100,300.000,1.595848
101,301.000,1.1747125
102,302.000,-5.7821560000000005
103,303.000,-6.403018
104,304.000,1.4691240000000003
105,305.000,1.9590625
106,306.000,2.413249
107,307.000,-0.4187655
108,308.000,-1.9690394999999998
109,309.000,4.84715
110,310.000,-2.231225
111,311.000,-10.749576000000001
112,312.000,3.6344369999999997
113,313.000,7.1018215
114,314.000,0.802658
115,315.000,0.38200199999999995
116,316.000,-2.574005
117,317.000,-1.02375
118,318.000,-1.1857345000000001
119,319.000,-2.573131
120,320.000,0.8640075
121,321.000,2.9659135
122,322.000,3.4645265
123,323.000,3.906549
124,324.000,1.317458
125,325.000,-4.2583535
126,326.000,-9.141693
127,327.000,-1.2645795
128,328.000,8.381928
129,329.000,1.2777145
130,330.000,-1.4088595
131,331.000,4.199543
132,332.000,3.716066
133,333.000,-6.724418
134,334.000,-6.471876
135,335.000,-2.0057935000000002
136,336.000,5.993982
137,337.000,2.170233
138,338.000,0.6445449999999999
139,339.000,1.6949335
140,340.000,-6.6415880000000005
141,341.000,0.28174
142,342.000,4.4572804999999995
143,343.000,-0.3619915
144,344.000,-1.2780425
145,345.000,-1.5367644999999999
146,346.000,4.508126
147,347.000,-3.532838
148,348.000,-5.924211499999999
149,349.000,5.557473
150,350.000,-2.3694705000000003
151,351.000,-2.2549975
152,352.000,6.42913
153,353.000,2.081502
154,354.000,-4.57362
155,355.000,-1.167176
156,356.000,1.238638
157,357.000,-0.1632245
158,358.000,5.3497840000000005
159,359.000,0.5907155000000001
160,360.000,-4.004767
161,361.000,-2.0259785
162,362.000,-2.3371155000000003
163,363.000,-4.3292335
164,364.000,3.7359264999999997
165,365.000,2.2580599999999995
166,366.000,-2.3349534999999997
167,367.000,0.9666595000000004
168,368.000,2.1823289999999997
169,369.000,6.635745
170,370.000,-1.708234
171,371.000,-5.5554735
172,372.000,-4.9764415
173,373.000,1.7804905
174,374.000,4.178817
175,375.000,0.337328
176,376.000,1.6702890000000001
177,377.000,0.9115965
178,378.000,1.576185
179,379.000,-0.196152
180,380.000,-6.274623500000001
181,381.000,-1.3352765
182,382.000,0.7497280000000002
183,383.000,0.5450200000000001
184,384.000,2.8443484999999997
185,385.000,-2.5988415000000002
186,386.000,-0.6300945
187,387.000,3.9835305
188,388.000,0.9252595
189,389.000,-5.172447
190,390.000,-3.4477265000000004
191,391.000,4.2098225000000005
192,392.000,0.41759650000000015
193,393.000,-2.1023075
194,394.000,7.929697000000001
195,395.000,3.488706
196,396.000,-6.01905
197,397.000,0.8802799999999997
198,398.000,-3.376489
199,399.000,-4.859913499999999
200,400.000,7.7099235
201,401.000,5.2075885
202,402.000,3.8988145
203,403.000,3.1481584999999996
204,404.000,-11.119098
205,405.000,-8.3932135
206,406.000,4.1971745
207,407.000,-0.20822399999999996
208,408.000,-5.7585245
209,409.000,5.475419
210,410.000,7.614624000000001
211,411.000,-5.168072
212,412.000,-5.2049185
213,413.000,2.1203275
214,414.000,2.605367
215,415.000,3.2802105
216,416.000,0.2711575
217,417.000,-7.069176499999999
218,418.000,-3.008795
219,419.000,5.1290985
220,420.000,7.517841000000001
221,421.000,-6.3956005000000005
222,422.000,-4.2305005
223,423.000,2.8307645
224,424.000,-2.390518
225,425.000,3.3067325
226,426.000,-1.744809
227,427.000,-1.8842395
228,428.000,5.3665665
229,429.000,8.18063
230,430.000,0.2728854999999999
231,431.000,-13.808773500000001
232,432.000,-1.6577335
233,433.000,6.67967
234,434.000,-0.8717945
235,435.000,1.654592
236,436.000,0.08862249999999999
237,437.000,-3.2165655
238,438.000,5.4667185
239,439.000,3.4959095
240,440.000,-4.4489244999999995
241,441.000,0.017911999999999928
242,442.000,-1.3985485
243,443.000,-6.837596
244,444.000,-1.034647
245,445.000,2.8756759999999995
246,446.000,5.5474155
247,447.000,3.9698339999999996
248,448.000,-4.882550999999999
249,449.000,-4.193213
250,450.000,7.3777945
251,451.000,3.0077875
252,452.000,-7.8809625
253,453.000,0.825528
254,454.000,2.511308
255,455.000,-2.2983075
256,456.000,5.34862
257,457.000,2.864165
258,458.000,-2.4392264999999997
259,459.000,-4.197094
260,460.000,-2.1891965000000004
261,461.000,0.528392
262,462.000,0.5643170000000002
263,463.000,1.785922
264,464.000,-5.259895500000001
265,465.000,1.627057
266,466.000,0.5729475000000002
267,467.000,-2.527968
268,468.000,2.8908199999999997
269,469.000,1.1596075
270,470.000,-2.2589300000000003
271,471.000,-0.6772060000000001
272,472.000,-3.3001324999999997
273,473.000,3.215045
274,474.000,4.136295
275,475.000,-1.16972
276,476.000,0.767563
277,477.000,-2.9248315
278,478.000,-2.7065704999999998
279,479.000,5.2751304999999995
280,480.000,0.05824499999999988
281,481.000,0.01160199999999989
282,482.000,2.5646055
283,483.000,-1.974675
284,484.000,-1.8951705
285,485.000,-2.678984
286,486.000,1.3962175000000001
287,487.000,-1.8191955000000002
288,488.000,3.2570825
289,489.000,-1.6550119999999997
290,490.000,-4.755695
291,491.000,7.538409
292,492.000,5.83063
293,493.000,-2.4172339999999997
294,494.000,-4.0002925000000005
295,495.000,-2.05713
296,496.000,1.9960365
297,497.000,-0.5139854999999999
298,498.000,-1.7638530000000001
299,499.000,0.8191774999999999
300,500.000,1.0230365
301,501.000,-8.1911125
302,502.000,6.1963799999999996
303,503.000,14.418558
304,504.000,-8.3167715
305,505.000,-6.378042000000001
306,506.000,1.671654
307,507.000,4.5361325
308,508.000,3.7470999999999997
309,509.000,-4.7545969999999995
310,510.000,-5.647492
311,511.000,-3.7473919999999996
312,512.000,0.4658525
313,513.000,2.4204215
314,514.000,4.810753500000001
315,515.000,6.4468925
316,516.000,-1.9214470000000001
317,517.000,-4.2480775
318,518.000,-4.6307825000000005
319,519.000,-6.4420205
320,520.000,4.0390055
321,521.000,1.340935
322,522.000,0.5644020000000001
323,523.000,0.20643849999999997
324,524.000,-1.315627
325,525.000,2.537713
326,526.000,1.9321355
327,527.000,1.120662
328,528.000,-0.16032400000000013
329,529.000,-1.3517469999999998
330,530.000,-1.7412344999999998
331,531.000,4.1897035
332,532.000,-1.966904
333,533.000,-1.702505
334,534.000,2.200311
335,535.000,1.5125585
336,536.000,-6.2020285
337,537.000,-3.7353804999999998
338,538.000,5.461158
339,539.000,2.0630895
340,540.000,-3.0315420000000004
341,541.000,-2.107459
342,542.000,6.495171
343,543.000,3.533541
344,544.000,-6.0445335
345,545.000,-1.3849585
346,546.000,12.0663755
347,547.000,2.4941405000000003
348,548.000,-9.639645999999999
349,549.000,-7.130667000000001
350,550.000,-3.3587415
351,551.000,4.8506395
352,552.000,2.5635915000000002
353,553.000,-3.2768610000000002
354,554.000,3.0221095
355,555.000,-3.9925539999999997
356,556.000,-1.3277314999999996
357,557.000,8.018017
358,558.000,8.7601
359,559.000,-1.1125895
360,560.000,-12.994447999999998
361,561.000,-1.1465165
362,562.000,7.030998
363,563.000,-2.6020654999999997
364,564.000,2.2151540000000005
365,565.000,4.351818499999999
366,566.000,-7.6369635
367,567.000,-0.5407230000000001
368,568.000,4.5729245
369,569.000,-3.835985
370,570.000,-2.1109305000000003
371,571.000,4.557972
372,572.000,-2.801431
373,573.000,0.529647
374,574.000,2.9822965000000003
375,575.000,7.194573999999999
376,576.000,2.9128974999999997
377,577.000,-3.2201864999999996
378,578.000,-6.7009205000000005
379,579.000,-8.1875585
380,580.000,-0.8314995000000001
381,581.000,0.8059090000000002
382,582.000,3.8353255
383,583.000,4.1950035
384,584.000,0.3532095
385,585.000,-2.6340285000000003
386,586.000,2.8330189999999997
387,587.000,1.9444145
388,588.000,-4.5471045
389,589.000,2.6925220000000003
390,590.000,0.4197135000000001
391,591.000,3.126484
392,592.000,4.2523064999999995
393,593.000,-7.319212
394,594.000,3.3542759999999996
395,595.000,9.3337575
396,596.000,-2.980968
397,597.000,-9.637837000000001
398,598.000,4.2169625
399,599.000,6.399656500000001
400,600.000,-2.3013899999999996
401,601.000,4.4047365
402,602.000,3.2957780000000003
403,603.000,-7.372896500000001
404,604.000,-7.052294000000001
405,605.000,3.7434815
406,606.000,13.926700499999999
407,607.000,4.666313
408,608.000,-7.152735
409,609.000,5.765725
410,610.000,10.8954085
411,611.000,4.144121500000001
412,612.000,7.256058499999998
413,613.000,11.288969000000002
414,614.000,9.926786
415,615.000,22.687466999999998
416,616.000,26.430459500000005
417,617.000,15.644737000000006
418,618.000,21.8063845
419,619.000,18.873667999999995
420,620.000,-0.11916050000000666
421,621.000,-17.7448785
422,622.000,-20.813325999999996
423,623.000,-19.863834500000003
424,624.000,-24.218438
425,625.000,-16.2141175
426,626.000,-17.6481305
427,627.000,-10.5271285
428,628.000,-2.609953000000001
429,629.000,-7.115835000000001
430,630.000,-3.783628
431,631.000,-2.773226499999998
432,632.000,-8.118763
433,633.000,-3.1905894999999997
434,634.000,2.9769135
435,635.000,-4.945135500000001
436,636.000,-0.024768500000000415
437,637.000,-3.3707689999999997
438,638.000,-4.2267529999999995
439,639.000,2.3317395
440,640.000,-4.574714
441,641.000,-4.799762
442,642.000,-4.4781960000000005
443,643.000,3.3434445000000004
444,644.000,-0.3405005000000001
445,645.000,-1.4947045
446,646.000,4.9993545
447,647.000,5.267571
448,648.000,4.3264499999999995
449,649.000,-5.422197000000001
450,650.000,-0.44306350000000005
451,651.000,0.8885009999999998
452,652.000,-6.7589675
453,653.000,-4.1813804999999995
454,654.000,-2.6176809999999997
455,655.000,4.439464
456,656.000,4.8960875
457,657.000,-6.9938835
458,658.000,1.4225824999999999
459,659.000,3.125341
460,660.000,-2.3774984999999997
461,661.000,-2.167203
462,662.000,1.022834
463,663.000,3.7743685
464,664.000,-3.6526325
465,665.000,-1.405129
466,666.000,4.3091
467,667.000,3.056686
468,668.000,-2.8607544999999996
469,669.000,-3.394349
470,670.000,-5.7703795
471,671.000,2.1220145
472,672.000,5.860243
473,673.000,-1.4448444999999999
474,674.000,-2.0775875
475,675.000,-1.1903865
476,676.000,3.0399395
477,677.000,4.708666999999999
478,678.000,-6.9635685
479,679.000,-2.7695869999999996
480,680.000,7.6087755
481,681.000,4.265528
482,682.000,-2.5533885
483,683.000,-1.7850605000000002
484,684.000,1.667434
485,685.000,-5.875837499999999
486,686.000,-5.044954000000001
487,687.000,2.512847
488,688.000,7.0143895
489,689.000,3.229545
490,690.000,-2.288666
491,691.000,-6.04819
492,692.000,-3.5613360000000003
493,693.000,-0.4108505
494,694.000,4.0719465
495,695.000,6.2015875000000005
496,696.000,-0.7337130000000001
497,697.000,-2.419868
498,698.000,-3.6027465000000003
499,699.000,-1.9517889999999998
500,700.000,2.8863445000000003
501,701.000,3.3821689999999998
502,702.000,0.12424299999999988
503,703.000,-6.182153
504,704.000,4.08603
505,705.000,7.5792905
506,706.000,-4.6275975
507,707.000,-0.37110449999999995
508,708.000,2.8479975
509,709.000,-0.13168299999999977
510,710.000,-0.855416
511,711.000,-0.22408200000000011
512,712.000,1.8693275
513,713.000,-1.5788885
514,714.000,-4.0061545
515,715.000,4.031728
516,716.000,4.3156105
517,717.000,-5.911119
518,718.000,-5.7884045
519,719.000,0.642981
520,720.000,0.5237194999999999
521,721.000,3.2845515
522,722.000,3.37745
523,723.000,-4.288024
524,724.000,-3.5181364999999998
525,725.000,4.0445020000000005
526,726.000,3.048173
527,727.000,-5.6281645000000005
528,728.000,-2.3121485
529,729.000,-0.845351
530,730.000,8.422535
531,731.000,4.1507435
532,732.000,-8.136944999999999
533,733.000,-2.5669675
534,734.000,-2.5645695
535,735.000,-0.9289065000000001
536,736.000,5.6274055
537,737.000,-1.2885369999999998
538,738.000,-1.9449675
539,739.000,4.7195405
540,740.000,1.964887
541,741.000,-1.195608
542,742.000,2.6712
543,743.000,1.884489
544,744.000,-3.5634064999999997
545,745.000,-1.807417
546,746.000,0.9839645000000001
547,747.000,3.434149
548,748.000,2.9221540000000004
549,749.000,-2.9324795
550,750.000,-7.4004415
551,751.000,-0.6740235
552,752.000,0.8459244999999997
553,753.000,1.6657865
554,754.000,4.0888985
555,755.000,-3.6060925
556,756.000,-2.045641
557,757.000,9.861371
558,758.000,0.24099349999999997
559,759.000,-4.016164
560,760.000,5.3831809999999995
561,761.000,-2.94572
562,762.000,-1.4078244999999998
563,763.000,0.33052499999999996
564,764.000,1.8379685000000001
565,765.000,-3.934278
566,766.000,0.6028595000000001
567,767.000,6.891334499999999
568,768.000,-4.5425645
569,769.000,-3.155541
570,770.000,4.731844
571,771.000,1.7932275
572,772.000,-3.3133375
573,773.000,0.6288225000000001
574,774.000,0.1025125
575,775.000,-1.1943394999999999
576,776.000,2.7948165000000005
577,777.000,5.7037775
578,778.000,0.5394304999999999
579,779.000,-0.5169320000000006
580,780.000,-0.8872490000000006
581,781.000,6.373693500000001
582,782.000,2.3731384999999996
583,783.000,-1.887410000000001
584,784.000,3.8222855000000013
585,785.000,6.530549500000001
586,786.000,10.937069499999998
587,787.000,1.2423809999999982
588,788.000,0.0171605000000028
589,789.000,12.640296
590,790.000,14.484551500000002
591,791.000,11.3869525
592,792.000,3.9811104999999998
593,793.000,2.0354825000000005
594,794.000,14.072761
595,795.000,3.2494935
596,796.000,-9.157404500000005
597,797.000,-10.416717999999996
598,798.000,-10.890353999999995
599,799.000,-8.729917500000003
600,800.000,-13.018478500000004
601,801.000,-6.948348499999998
602,802.000,-2.2150064999999977
603,803.000,-6.7286225
604,804.000,-5.014848500000001
605,805.000,-4.411579500000002
606,806.000,-6.030136499999999
607,807.000,1.2291385000000012
608,808.000,-3.0420365
609,809.000,-11.308293
610,810.000,3.8429505000000006
611,811.000,3.181699
612,812.000,-8.6417955
613,813.000,-6.0423265
614,814.000,5.4899819999999995
615,815.000,12.395726
616,816.000,-2.6869994999999998
617,817.000,-10.18827
618,818.000,-0.27954500000000015
619,819.000,5.8641175
620,820.000,1.3186700000000005
621,821.000,-6.197568499999999
622,822.000,-0.6253000000000002
623,823.000,0.5973820000000001
624,824.000,0.07466799999999996
625,825.000,0.6631255
626,826.000,-0.9073994999999999
627,827.000,-2.7591015
628,828.000,-2.9895880000000004
629,829.000,5.5788705
630,830.000,2.1884829999999997
631,831.000,-0.6055494999999995
632,832.000,1.7154430000000005
633,833.000,1.1360384999999997
634,834.000,-3.1335915000000005
635,835.000,-6.092752
636,836.000,-6.0159895
637,837.000,3.1796875
638,838.000,7.8897365
639,839.000,-0.9799724999999999
640,840.000,-1.0281585
641,841.000,2.810054
642,842.000,-0.7606615000000001
643,843.000,-7.500904
644,844.000,1.1694349999999998
645,845.000,9.892642
646,846.000,-2.277781
647,847.000,-2.8391690000000005
648,848.000,1.5758634999999999
649,849.000,-2.0108895
650,850.000,-3.988755
651,851.000,1.7879380000000002
652,852.000,3.637671
653,853.000,-5.478242
654,854.000,0.2630220000000001
655,855.000,-0.016644000000000103
656,856.000,-0.602387
657,857.000,5.6204825
658,858.000,-7.5539995
659,859.000,-0.22542300000000015
660,860.000,6.1807255
661,861.000,-7.7831775
662,862.000,7.268172
663,863.000,9.334913499999999
664,864.000,-11.274311
665,865.000,-2.9208659999999997
666,866.000,9.548243
667,867.000,-4.8877025
668,868.000,-8.562225
669,869.000,2.2829295
670,870.000,5.3675405000000005
671,871.000,1.003978
672,872.000,-6.329641499999999
673,873.000,-2.362558
674,874.000,6.026345
675,875.000,3.4730555
676,876.000,-2.3883455000000002
677,877.000,-5.1774284999999995
678,878.000,4.0804475
679,879.000,-0.8559804999999998
680,880.000,-1.5207185
681,881.000,3.2915764999999997
682,882.000,-0.748262
683,883.000,1.4516040000000001
684,884.000,-7.992891
685,885.000,1.0092565000000002
686,886.000,10.0376945
687,887.000,3.8645005
688,888.000,0.5907814999999998
689,889.000,-6.283843
690,890.000,-2.6409005
691,891.000,4.362413500000001
692,892.000,-0.568595
693,893.000,-3.3092525
694,894.000,-3.1579734999999998
695,895.000,3.472361
696,896.000,4.544073
697,897.000,-8.492419
698,898.000,-5.291806
699,899.000,1.8201205000000003
700,900.000,-2.1181349999999997
701,901.000,4.3627875000000005
702,902.000,2.5999464999999997
703,903.000,-1.8380480000000001
704,904.000,5.846368
705,905.000,3.5931370000000005
706,906.000,-4.0660705
707,907.000,-3.1206500000000004
708,908.000,4.512081
709,909.000,5.9640189999999995
710,910.000,-0.5898780000000001
711,911.000,-5.416513
712,912.000,0.6854709999999997
713,913.000,0.8240660000000001
714,914.000,-2.5706365
715,915.000,-2.4204075
716,916.000,5.729049
717,917.000,1.759431
718,918.000,-2.5067984999999995
719,919.000,-0.6833855
720,920.000,-0.812897
721,921.000,1.2590965
722,922.000,-3.441676
723,923.000,1.7654255
724,924.000,2.4339
725,925.000,-2.0899025
726,926.000,-2.9964245
727,927.000,-1.1203565
728,928.000,1.320449
729,929.000,2.941034
730,930.000,0.4669225
731,931.000,1.1829955
732,932.000,1.442964
733,933.000,-3.286236
734,934.000,-3.5044795
735,935.000,1.028422
736,936.000,0.8982645
737,937.000,-3.6589725
738,938.000,3.9940819999999997
739,939.000,0.9790585
740,940.000,-4.411612
741,941.000,-0.24114950000000013
742,942.000,9.309595000000002
743,943.000,4.481189
744,944.000,-11.707088500000001
745,945.000,-7.3389555
746,946.000,5.4591625
747,947.000,5.0949385000000005
748,948.000,-2.6903725
749,949.000,0.847184
750,950.000,-2.992722
751,951.000,6.671259
752,952.000,3.721263
753,953.000,-7.5018934999999995
754,954.000,4.6962600000000005
755,955.000,-0.9721045
756,956.000,0.9090414999999998
757,957.000,5.7936505
758,958.000,-3.911237
759,959.000,-0.5711184999999999
760,960.000,0.8941379999999999
761,961.000,6.316776
762,962.000,2.387568
763,963.000,-10.1004915
764,964.000,-1.6996320000000003
765,965.000,2.20373
766,966.000,3.1706485000000004
767,967.000,-3.7987115
768,968.000,-4.728091
769,969.000,1.5473035
770,970.000,1.9245264999999998
771,971.000,7.2484485
772,972.000,5.797736
773,973.000,-3.036282000000001
774,974.000,-10.111269
775,975.000,1.8547540000000007
776,976.000,3.157475
777,977.000,2.470338
778,978.000,1.8810149999999997
779,979.000,-0.3283535000000004
780,980.000,5.7367420000000005
781,981.000,2.8538905000000003
782,982.000,2.3817319999999995
783,983.000,9.0012265
784,984.000,4.356172500000001
785,985.000,-3.406853999999999
786,986.000,1.2633894999999988
787,987.000,9.676834499999998
788,988.000,8.0541175
789,989.000,14.6145375
790,990.000,17.252512
791,991.000,10.295172
792,992.000,21.978879
793,993.000,20.583817999999994
794,994.000,35.6008635
795,995.000,65.67732250000002
796,996.000,82.7847235
797,997.000,115.96578449999998
798,998.000,163.704601
799,999.000,195.72843749999998
800,1000.000,147.56883449999998
801,1001.000,5.925366999999994
802,1002.000,-150.8435935
803,1003.000,-205.68860449999997
804,1004.000,-159.59592099999998
805,1005.000,-113.758253
806,1006.000,-81.449959
807,1007.000,-51.74154100000001
808,1008.000,-34.461957
809,1009.000,-28.859713499999998
810,1010.000,-22.9240335
811,1011.000,-15.819651999999998
812,1012.000,-13.162844
813,1013.000,-6.099072499999998
814,1014.000,-6.1124595
815,1015.000,-5.652836500000003
816,1016.000,5.284298
817,1017.000,-3.833335999999999
818,1018.000,-1.7688044999999981
819,1019.000,7.089131999999999
820,1020.000,4.308700499999997
821,1021.000,3.738832500000001
822,1022.000,10.750855000000001
823,1023.000,14.335953500000002
824,1024.000,17.171462
825,1025.000,22.0752715
826,1026.000,38.997434
827,1027.000,54.010707499999995
828,1028.000,59.18992500000002
829,1029.000,75.06994449999999
830,1030.000,54.03460849999999
831,1031.000,-2.278917999999976
832,1032.000,-55.88780349999999
833,1033.000,-74.10375700000002
834,1034.000,-63.64378000000001
835,1035.000,-46.46355
836,1036.000,-38.48533150000001
837,1037.000,-32.0859355
838,1038.000,-20.800964999999998
839,1039.000,-18.567307500000002
840,1040.000,-10.8386915
841,1041.000,-8.601023999999999
842,1042.000,-12.814286
843,1043.000,-4.879569
844,1044.000,-2.2432105
845,1045.000,-3.746174
846,1046.000,3.3557144999999995
847,1047.000,2.7329965000000005
848,1048.000,-2.8257440000000003
849,1049.000,-1.8534000000000006
850,1050.000,-6.852918
851,1051.000,-6.891447
852,1052.000,2.5002379999999995
853,1053.000,5.688747500000001
854,1054.000,0.9166315000000003
855,1055.000,-2.441192
856,1056.000,-4.42688
857,1057.000,-7.461353000000001
858,1058.000,3.2263019999999996
859,1059.000,6.6359175
860,1060.000,1.513113500000001
861,1061.000,-1.4365215000000005
862,1062.000,-7.648559500000001
863,1063.000,-0.24239699999999953
864,1064.000,-0.058128999999999986
865,1065.000,-5.119282
866,1066.000,3.7018264999999997
867,1067.000,2.292414
868,1068.000,-5.5667865
869,1069.000,0.8942394999999999
870,1070.000,2.480616
871,1071.000,-5.3091015
872,1072.000,3.2674234999999996
873,1073.000,3.8440364999999996
874,1074.000,-2.2595655
875,1075.000,4.161137
876,1076.000,1.4016045000000001
877,1077.000,-1.1990319999999999
878,1078.000,2.1045524999999996
879,1079.000,0.03195799999999949
880,1080.000,-0.3049254999999995
881,1081.000,-4.8302765
882,1082.000,-0.011382000000000225
883,1083.000,0.5027445
884,1084.000,-5.9230045
885,1085.000,2.004383
886,1086.000,-0.3903309999999999
887,1087.000,-1.547388
888,1088.000,-0.03347050000000018
889,1089.000,0.3674565000000001
890,1090.000,2.238944
891,1091.000,0.7217214999999997
892,1092.000,1.3600535
893,1093.000,-1.8380684999999999
894,1094.000,-1.1452579999999999
895,1095.000,5.5493875
896,1096.000,-0.7398920000000001
897,1097.000,-4.215312
898,1098.000,-0.6323565
899,1099.000,2.8777244999999994
900,1100.000,0.16177599999999998
901,1101.000,-7.2827225
902,1102.000,2.474798
903,1103.000,6.7110715
904,1104.000,-0.7288789999999998
905,1105.000,-4.160278
906,1106.000,0.4951000000000001
907,1107.000,1.562173
908,1108.000,0.4162140000000001
909,1109.000,-2.3039775000000002
910,1110.000,-3.2474115
911,1111.000,3.4452689999999997
912,1112.000,4.1141760000000005
913,1113.000,-4.5377495
914,1114.000,-4.6710955
915,1115.000,6.58227
916,1116.000,5.3056355
917,1117.000,-2.5295085000000004
918,1118.000,-3.0881365
919,1119.000,-1.081222
920,1120.000,1.6861420000000003
921,1121.000,0.8156439999999999
922,1122.000,-0.17917900000000042
923,1123.000,3.5199330000000004
924,1124.000,1.6684325000000007
925,1125.000,-1.3632985000000004
926,1126.000,1.3956804999999992
927,1127.000,3.5838105
928,1128.000,0.2927970000000002
929,1129.000,-3.0248004999999996
930,1130.000,-4.627422
931,1131.000,1.4814910000000001
932,1132.000,1.1317070000000002
933,1133.000,-1.6468690000000006
934,1134.000,5.1771069999999995
935,1135.000,-3.7715089999999996
936,1136.000,-0.841259
937,1137.000,2.321023
938,1138.000,2.8798710000000005
939,1139.000,10.252484
940,1140.000,-1.4831819999999993
941,1141.000,-0.8154560000000011
942,1142.000,5.255274499999999
943,1143.000,0.6382565000000007
944,1144.000,3.7794860000000003
945,1145.000,7.220879499999999
946,1146.000,5.435676999999998
947,1147.000,5.978616000000002
948,1148.000,0.8204985000000029
949,1149.000,10.496815000000002
950,1150.000,18.134025499999996
951,1151.000,21.744047499999994
952,1152.000,19.532118000000004
953,1153.000,14.67711150000001
954,1154.000,16.685942999999995
955,1155.000,-1.8805130000000077
956,1156.000,-16.634783499999998
957,1157.000,-15.3022955
958,1158.000,-18.004527500000002
959,1159.000,-19.0799605
960,1160.000,-12.923961999999996
961,1161.000,-11.579957
962,1162.000,-6.5120460000000016
963,1163.000,-2.5638819999999996
964,1164.000,-8.070468499999999
965,1165.000,-11.345627
966,1166.000,2.3634509999999995
967,1167.000,6.479157000000001
968,1168.000,-10.5163565
969,1169.000,-2.8710900000000006
970,1170.000,6.5958045
971,1171.000,-4.779622
972,1172.000,5.9832515000000015
973,1173.000,7.639461500000001
974,1174.000,-4.1366080000000025
975,1175.000,5.439830499999999
976,1176.000,6.882013500000003
977,1177.000,10.529701499999998
978,1178.000,14.373169499999996
979,1179.000,7.130620499999999
980,1180.000,13.032087500000003
981,1181.000,17.785522
982,1182.000,13.1958925
983,1183.000,3.7403340000000043
984,1184.000,-12.4212785
985,1185.000,-17.953410500000004
986,1186.000,-17.169251000000003
987,1187.000,-15.105918499999998
988,1188.000,-8.355524499999998
989,1189.000,-9.684413
990,1190.000,-12.8718855
991,1191.000,-7.664584000000001
992,1192.000,2.4746515000000002
993,1193.000,2.0192034999999997
994,1194.000,-2.914651000000001
995,1195.000,-3.083947
996,1196.000,-4.731546999999999
997,1197.000,-1.9450330000000005
998,1198.000,-4.3370645
999,1199.000,-3.5027504999999994
1000,1200.000,7.327676
1001,1201.000,2.924676
1002,1202.000,-10.902098500000001
1003,1203.000,-9.0170845
1004,1204.000,1.135398
1005,1205.000,-0.4376850000000001
1006,1206.000,5.3010415
1007,1207.000,3.2047135
1008,1208.000,-2.324975
1009,1209.000,3.8600545000000004
1010,1210.000,2.6900485
1011,1211.000,0.5763699999999998
1012,1212.000,-5.9855705
1013,1213.000,-8.4431265
1014,1214.000,-1.6102125
1015,1215.000,2.7169765000000003
1016,1216.000,1.882383
1017,1217.000,3.5244370000000003
1018,1218.000,2.332755
1019,1219.000,-0.9657325000000001
1020,1220.000,-5.816829
1021,1221.000,-2.6862695000000003
1022,1222.000,-0.779369
1023,1223.000,0.94219
1024,1224.000,7.914310500000001
1025,1225.000,0.22109800000000002
1026,1226.000,-1.2312555000000005
1027,1227.000,-0.9212615
1028,1228.000,-5.009421
1029,1229.000,1.938638
1030,1230.000,-1.8173579999999998
1031,1231.000,-1.0528975
1032,1232.000,-2.4694755
1033,1233.000,1.5112854999999998
1034,1234.000,4.371943
1035,1235.000,-4.2650825
1036,1236.000,4.489145
1037,1237.000,0.4274494999999999
1038,1238.000,-2.282222
1039,1239.000,1.7255764999999998
1040,1240.000,-1.9767295
1041,1241.000,-4.722174
1042,1242.000,-2.353015
1043,1243.000,4.151856
1044,1244.000,3.322383
1045,1245.000,1.8912835000000001
1046,1246.000,0.851445
1047,1247.000,-4.8120625
1048,1248.000,2.703631
1049,1249.000,0.5472625
1050,1250.000,-4.944574
1051,1251.000,4.520303999999999
1052,1252.000,1.673241
1053,1253.000,-3.465716
1054,1254.000,-1.441192
1055,1255.000,1.4366025
1056,1256.000,0.827676
1057,1257.000,-1.8193345
1058,1258.000,7.5731185
1059,1259.000,6.1097025
1060,1260.000,-4.9920469999999995
1061,1261.000,-5.175696
1062,1262.000,-0.6586079999999999
1063,1263.000,0.19018849999999998
1064,1264.000,-1.0937000000000001
1065,1265.000,6.154605999999999
1066,1266.000,5.0791189999999995
1067,1267.000,-3.8318674999999995
1068,1268.000,-3.1630804999999995
1069,1269.000,0.8339889999999999
1070,1270.000,-3.901149
1071,1271.000,-3.1038075
1072,1272.000,-3.553655
1073,1273.000,-2.9991345000000003
1074,1274.000,4.0520415
1075,1275.000,0.6024000000000003
1076,1276.000,-0.19051850000000004
1077,1277.000,2.16592
1078,1278.000,-1.223017
1079,1279.000,0.927949
1080,1280.000,2.7290305
1081,1281.000,-3.8700305
1082,1282.000,-0.1957585
1083,1283.000,7.5401355
1084,1284.000,-0.15033949999999996
1085,1285.000,-8.0537075
1086,1286.000,1.2028759999999998
1087,1287.000,4.5032285
1088,1288.000,-5.427247
1089,1289.000,3.4505044999999996
1090,1290.000,5.143162
1091,1291.000,-8.6475
1092,1292.000,1.848433
1093,1293.000,6.3130875
1094,1294.000,-1.110804
1095,1295.000,-3.7541450000000003
1096,1296.000,-2.793593
1097,1297.000,7.6791555
1098,1298.000,6.623214000000001
1099,1299.000,-9.0534845
1100,1300.000,-3.1931725
1101,1301.000,7.068694
1102,1302.000,3.0179915
1103,1303.000,-0.5268799999999998
1104,1304.000,-7.748077500000001
1105,1305.000,-3.5952065
1106,1306.000,3.695703
1107,1307.000,0.913058
1108,1308.000,-2.617459
1109,1309.000,-7.3840125
1110,1310.000,5.712499
1111,1311.000,3.0083484999999994
1112,1312.000,-5.3049605
1113,1313.000,2.9510645
1114,1314.000,4.192687
1115,1315.000,1.690839
1116,1316.000,1.4095739999999997
1117,1317.000,2.6684145
1118,1318.000,0.6104370000000001
1119,1319.000,-0.8909979999999997
1120,1320.000,-3.7098364999999998
1121,1321.000,0.09859850000000003
1122,1322.000,3.359488
1123,1323.000,-10.809629000000001
1124,1324.000,-5.5784455
1125,1325.000,5.6819065
1126,1326.000,3.2306365
1127,1327.000,10.0296945
1128,1328.000,-2.301784
1129,1329.000,-3.8626405
1130,1330.000,2.6504465
1131,1331.000,-2.9014325000000003
1132,1332.000,-0.0883860000000003
1133,1333.000,-1.2532865
1134,1334.000,-0.07778049999999981
1135,1335.000,2.818978
1136,1336.000,2.5765619999999996
1137,1337.000,-12.560896
1138,1338.000,-2.895155
1139,1339.000,9.3436555
1140,1340.000,-0.5413824999999999
1141,1341.000,0.20952849999999995
1142,1342.000,-5.270595
1143,1343.000,1.880367
1144,1344.000,2.5891095
1145,1345.000,-2.17059
1146,1346.000,8.356527999999999
1147,1347.000,3.4296105
1148,1348.000,-8.975301
1149,1349.000,-0.097159
1150,1350.000,0.6194424999999999
1151,1351.000,-4.4859314999999995
1152,1352.000,7.774623500000001
1153,1353.000,2.7788174999999997
1154,1354.000,-6.5244005000000005
1155,1355.000,-0.941505
1156,1356.000,0.4178845
1157,1357.000,2.9290265
1158,1358.000,-0.026693999999999996
1159,1359.000,3.2485950000000003
1160,1360.000,3.6756145
1161,1361.000,-5.4094635
1162,1362.000,-6.6973565
1163,1363.000,4.2507405
1164,1364.000,1.392401
1165,1365.000,-1.548946
1166,1366.000,-2.9568684999999997
1167,1367.000,-8.3552785
1168,1368.000,4.927778
1169,1369.000,2.2091224999999994
1170,1370.000,1.1067015
1171,1371.000,-0.570935
1172,1372.000,2.687945
1173,1373.000,5.31407
1174,1374.000,-6.4653565
1175,1375.000,-5.8401695
1176,1376.000,5.3739465
1177,1377.000,4.840061
1178,1378.000,-2.5214125
1179,1379.000,-2.5297905
1180,1380.000,-1.4495360000000002
1181,1381.000,3.3208
1182,1382.000,7.7978895
1183,1383.000,0.9856705000000001
1184,1384.000,-0.12985000000000024
1185,1385.000,-1.487359
1186,1386.000,-6.587083
1187,1387.000,2.6189925
1188,1388.000,-1.7251049999999999
1189,1389.000,-5.9377355000000005
1190,1390.000,5.951890000000001
1191,1391.000,4.8031179999999996
1192,1392.000,0.7106129999999995
1193,1393.000,-1.250013
1194,1394.000,-7.008527
1195,1395.000,2.6130389999999997
1196,1396.000,7.222161
1197,1397.000,-5.3880349999999995
1198,1398.000,-0.5795034999999995
1199,1399.000,6.995348
1200,1400.000,-2.9922515
1201,1401.000,0.7036195000000003
1202,1402.000,-0.0076344999999999885
1203,1403.000,-6.6082
1204,1404.000,4.3334969999999995
1205,1405.000,-3.2845334999999998
1206,1406.000,-2.2599865
1207,1407.000,4.8924245
1208,1408.000,2.7514365000000005
1209,1409.000,0.15379600000000004
1210,1410.000,-2.3530325000000003
1211,1411.000,3.7282905000000004
1212,1412.000,-6.4610865
1213,1413.000,2.240696
1214,1414.000,7.2909915000000005
1215,1415.000,-5.542414000000001
1216,1416.000,-1.6143535
1217,1417.000,4.796357500000001
1218,1418.000,3.4991235000000005
1219,1419.000,7.381700499999999
1220,1420.000,-7.419586000000001
1221,1421.000,-8.009383499999998
1222,1422.000,6.082771
1223,1423.000,3.109025
1224,1424.000,7.009070500000001
1225,1425.000,3.0536165000000004
1226,1426.000,-7.692525000000001
1227,1427.000,-1.9975889999999996
1228,1428.000,4.0086664999999995
1229,1429.000,3.8487599999999986
1230,1430.000,5.0682195
1231,1431.000,-2.3674574999999987
1232,1432.000,1.5346430000000009
1233,1433.000,9.236927999999999
1234,1434.000,0.0701944999999995
1235,1435.000,-0.1397155000000012
1236,1436.000,11.047473
1237,1437.000,9.477054500000001
1238,1438.000,7.607611500000001
1239,1439.000,3.0123739999999977
1240,1440.000,4.568241
1241,1441.000,14.411949500000006
1242,1442.000,14.100589
1243,1443.000,20.02332849999999
1244,1444.000,18.064631
1245,1445.000,16.022017500000004
1246,1446.000,21.867894500000006
1247,1447.000,15.331276000000003
1248,1448.000,14.401490999999993
1249,1449.000,14.728826499999997
1250,1450.000,-2.6532935000000037
1251,1451.000,-13.628335499999991
1252,1452.000,-10.223369999999989
1253,1453.000,-14.296875
1254,1454.000,-27.539391500000008
1255,1455.000,-25.559276500000003
1256,1456.000,-13.9571745
1257,1457.000,-10.188868000000006
1258,1458.000,-10.492145999999998
1259,1459.000,-13.281063499999995
1260,1460.000,-12.073127499999998
1261,1461.000,-8.474124500000002
1262,1462.000,-0.07174249999999915
1263,1463.000,-6.767150000000001
1264,1464.000,-2.5431675000000027
1265,1465.000,-6.174519999999999
1266,1466.000,-12.837407499999998
1267,1467.000,-2.0459645
1268,1468.000,-4.603321000000001
1269,1469.000,-3.3456794999999993
1270,1470.000,2.140304500000001
1271,1471.000,-3.5318745
1272,1472.000,-2.3566850000000006
1273,1473.000,-2.173826
1274,1474.000,-1.8168849999999992
1275,1475.000,5.736012
1276,1476.000,-2.3711695000000006
1277,1477.000,-2.9133385
1278,1478.000,4.468413
1279,1479.000,-0.6413459999999995
1280,1480.000,-6.585783
1281,1481.000,1.4035465
1282,1482.000,-2.037205
1283,1483.000,-4.5878440000000005
1284,1484.000,3.3375340000000007
1285,1485.000,6.9042815
1286,1486.000,-2.0614375000000003
1287,1487.000,-6.144442499999999
1288,1488.000,0.43615749999999975
1289,1489.000,1.7776229999999993
1290,1490.000,2.2651360000000005
1291,1491.000,0.7386605000000008
1292,1492.000,-1.3805960000000006
1293,1493.000,-8.248563
1294,1494.000,-3.467351
1295,1495.000,2.3388025
1296,1496.000,-3.6988185
1297,1497.000,3.6858704999999996
1298,1498.000,1.4825454999999998
1299,1499.000,-5.729004
1300,1500.000,5.0057595
1301,1501.000,1.3825349999999998
1302,1502.000,0.19186900000000007
1303,1503.000,3.2654985
1304,1504.000,-5.9822275000000005
1305,1505.000,-4.811719500000001
1306,1506.000,6.424356
1307,1507.000,1.640896
1308,1508.000,-2.631392
1309,1509.000,-1.1504865
1310,1510.000,4.8361975
1311,1511.000,4.1573295
1312,1512.000,-3.4288465
1313,1513.000,-3.45709
1314,1514.000,-1.823479
1315,1515.000,2.6625855
1316,1516.000,1.4403385
1317,1517.000,-2.5628825
1318,1518.000,-0.02938699999999983
1319,1519.000,-1.5036370000000001
1320,1520.000,0.2878164999999999
1321,1521.000,5.5462055
1322,1522.000,-1.1470015
1323,1523.000,1.3931070000000005
1324,1524.000,0.3941270000000001
1325,1525.000,-2.478956
1326,1526.000,0.9908994999999998
1327,1527.000,-2.3423025
1328,1528.000,-5.105743
1329,1529.000,-0.941782
1330,1530.000,7.0637495
1331,1531.000,2.497354
1332,1532.000,-4.6010865
1333,1533.000,-3.1731290000000003
1334,1534.000,4.235665
1335,1535.000,2.3691864999999996
1336,1536.000,0.43668450000000014
1337,1537.000,-3.941251
1338,1538.000,-4.1200935
1339,1539.000,4.3652
1340,1540.000,-0.30945250000000013
1341,1541.000,3.5831109999999997
1342,1542.000,1.5749865
1343,1543.000,2.5834650000000003
1344,1544.000,0.8207434999999998
1345,1545.000,-5.461603
1346,1546.000,7.4081975
1347,1547.000,3.2445099999999996
1348,1548.000,-8.8307875
1349,1549.000,-3.0909804999999997
1350,1550.000,7.2828185
1351,1551.000,3.3823665
1352,1552.000,0.47851099999999924
1353,1553.000,-3.1657414999999998
1354,1554.000,-4.3984119999999995
1355,1555.000,5.830223500000001
1356,1556.000,-2.8113259999999998
1357,1557.000,1.2538725
1358,1558.000,9.498378
1359,1559.000,0.15719999999999956
1360,1560.000,-5.896485500000001
1361,1561.000,-0.9887359999999994
1362,1562.000,-0.42686849999999943
1363,1563.000,4.4899000000000004
1364,1564.000,5.590603999999999
1365,1565.000,-4.431198
1366,1566.000,3.5770905000000006
1367,1567.000,6.601948499999999
1368,1568.000,1.179112
1369,1569.000,0.8281515000000006
1370,1570.000,1.3385515000000012
1371,1571.000,8.9015415
1372,1572.000,7.691703
1373,1573.000,9.455200499999997
1374,1574.000,9.9484845
1375,1575.000,11.264520000000005
1376,1576.000,15.897882000000003
1377,1577.000,12.9743025
1378,1578.000,16.345964999999993
1379,1579.000,21.010250500000005
1380,1580.000,32.01588550000001
1381,1581.000,30.42597649999999
1382,1582.000,14.843125999999998
1383,1583.000,-5.117017500000003
1384,1584.000,-12.491735500000004
1385,1585.000,-7.316706499999995
1386,1586.000,-17.773585499999996
1387,1587.000,-25.894048999999995
1388,1588.000,-11.624459000000002
1389,1589.000,-9.232132000000007
1390,1590.000,-10.270621000000006
1391,1591.000,4.7836815
1392,1592.000,8.363539500000002
1393,1593.000,13.1747285
1394,1594.000,19.069570499999998
1395,1595.000,30.308983499999997
1396,1596.000,43.90532750000001
1397,1597.000,58.25635700000001
1398,1598.000,70.88422699999998
1399,1599.000,82.90734850000001
1400,1600.000,99.59279500000002
1401,1601.000,64.092187
1402,1602.000,-3.3627425000000244
1403,1603.000,-64.37566750000002
1404,1604.000,-100.9089855
1405,1605.000,-94.5771925
1406,1606.000,-80.03646149999999
1407,1607.000,-59.77348549999999
1408,1608.000,-35.890924999999996
1409,1609.000,-36.06148
1410,1610.000,-28.138542500000007
1411,1611.000,-19.252128499999998
1412,1612.000,-18.4408405
1413,1613.000,-8.199145000000001
1414,1614.000,-7.941551499999999
1415,1615.000,-6.672430500000001
1416,1616.000,-4.001757999999999
1417,1617.000,-5.8518004999999995
1418,1618.000,-9.773862000000001
1419,1619.000,-3.265872999999999
1420,1620.000,2.1571725000000015
1421,1621.000,-7.153121499999999
1422,1622.000,-7.122288000000001
1423,1623.000,0.9006699999999999
1424,1624.000,0.44171099999999974
1425,1625.000,1.1559339999999985
1426,1626.000,-2.6967745
1427,1627.000,-10.326283
1428,1628.000,4.8638175
1429,1629.000,7.815782
1430,1630.000,-5.450179
1431,1631.000,-5.180681999999999
1432,1632.000,-3.2944185
1433,1633.000,-1.2245120000000007
1434,1634.000,0.7327020000000006
1435,1635.000,3.4433565
1436,1636.000,-2.0146645000000003
1437,1637.000,-2.5417775000000002
1438,1638.000,5.950336500000001
1439,1639.000,-1.7310029999999994
1440,1640.000,-4.455055000000001
1441,1641.000,-0.7119235000000002
1442,1642.000,1.3489585000000002
1443,1643.000,3.0008065000000004
1444,1644.000,-2.931248
1445,1645.000,-0.5589595000000003
1446,1646.000,-1.0250560000000002
1447,1647.000,-5.012226500000001
1448,1648.000,1.989567
1449,1649.000,1.6762679999999999
1450,1650.000,3.5109575
1451,1651.000,-0.31054249999999994
1452,1652.000,-5.91415
1453,1653.000,-0.5237749999999999
1454,1654.000,2.0456155000000003
1455,1655.000,-6.376264
1456,1656.000,1.9442605000000004
1457,1657.000,8.966239
1458,1658.000,-5.770306000000001
1459,1659.000,-4.2629035
1460,1660.000,0.02382099999999998
1461,1661.000,2.516426
1462,1662.000,1.325355
1463,1663.000,-1.0387215
1464,1664.000,1.0805729999999998
1465,1665.000,0.10890599999999995
1466,1666.000,1.8336964999999998
1467,1667.000,0.28270649999999997
1468,1668.000,-3.3783899999999996
1469,1669.000,-2.0663975
1470,1670.000,3.0372510000000004
1471,1671.000,-0.04353400000000007
1472,1672.000,-6.9365755
1473,1673.000,4.006493
1474,1674.000,7.7255655
1475,1675.000,-8.0637805
1476,1676.000,-3.2755585000000003
1477,1677.000,4.450565
1478,1678.000,-1.044193
1479,1679.000,3.70249
1480,1680.000,-0.33020849999999996
1481,1681.000,-7.654286
1482,1682.000,0.6515005
1483,1683.000,3.1215345
1484,1684.000,0.269778
1485,1685.000,1.7424765
1486,1686.000,2.5998675
1487,1687.000,1.6445714999999999
1488,1688.000,0.789647
1489,1689.000,1.8057975000000002
1490,1690.000,-0.9221085000000002
1491,1691.000,-11.0737875
1492,1692.000,1.811391
1493,1693.000,9.8466325
1494,1694.000,-1.7222089999999999
1495,1695.000,0.8059505000000002
1496,1696.000,-3.179807
1497,1697.000,-2.086003
1498,1698.000,-2.445107
1499,1699.000,-1.4936745
1500,1700.000,2.298776
1501,1701.000,5.2715445
1502,1702.000,4.8064575
1503,1703.000,-4.9213450000000005
1504,1704.000,-6.3649965
1505,1705.000,2.3570175
1506,1706.000,-0.9860134999999999
1507,1707.000,-4.750683
1508,1708.000,4.07022
1509,1709.000,3.353326
1510,1710.000,-0.019982500000000014
1511,1711.000,-3.6481399999999997
1512,1712.000,6.6837925
1513,1713.000,3.437219
1514,1714.000,-6.598549
1515,1715.000,5.1113415
1516,1716.000,0.6880845
1517,1717.000,-9.332539
1518,1718.000,2.2359215
1519,1719.000,3.4341939999999997
1520,1720.000,-7.20756
1521,1721.000,-0.5970145
1522,1722.000,8.124627499999999
1523,1723.000,7.1579115
1524,1724.000,-10.960631
1525,1725.000,-11.4332225
1526,1726.000,4.013979000000001
1527,1727.000,5.7521185
1528,1728.000,4.368807
1529,1729.000,1.379106
1530,1730.000,-1.3952499999999999
1531,1731.000,-7.322850000000001
1532,1732.000,-5.010956999999999
1533,1733.000,1.4830980000000005
1534,1734.000,4.7573415
1535,1735.000,7.486254499999999
1536,1736.000,-5.490470500000001
1537,1737.000,-4.850313
1538,1738.000,4.6485605
1539,1739.000,-0.41269500000000003
1540,1740.000,1.283899
1541,1741.000,-1.2492775
1542,1742.000,-3.287743
1543,1743.000,5.865709000000001
1544,1744.000,-1.9216679999999997
1545,1745.000,-2.465388
1546,1746.000,3.1291309999999997
1547,1747.000,-1.5752405
1548,1748.000,1.3641215
1549,1749.000,4.7653965
1550,1750.000,-4.1741575
1551,1751.000,-1.5832819999999996
1552,1752.000,6.0363795
1553,1753.000,-5.197998
1554,1754.000,0.41652500000000003
1555,1755.000,-2.426762
1556,1756.000,-1.7284515
1557,1757.000,6.633444
1558,1758.000,0.6571940000000001
1559,1759.000,-1.50002
1560,1760.000,-1.7403495
1561,1761.000,1.1391355
1562,1762.000,1.155164
1563,1763.000,1.881588
1564,1764.000,0.45402699999999996
1565,1765.000,-3.8033045000000003
1566,1766.000,-1.909264
1567,1767.000,-2.4392815
1568,1768.000,6.2109685
1569,1769.000,1.758216
1570,1770.000,-7.269315499999999
1571,1771.000,3.1801019999999998
1572,1772.000,3.9678899999999997
1573,1773.000,-1.3755039999999998
1574,1774.000,0.05289199999999994
1575,1775.000,0.9362860000000001
1576,1776.000,-1.6598154999999999
1577,1777.000,-2.321149
1578,1778.000,-3.4419890000000004
1579,1779.000,1.5877925
1580,1780.000,1.9848000000000003
1581,1781.000,0.7781765
1582,1782.000,1.4968445
1583,1783.000,3.769024
1584,1784.000,1.0890334999999998
1585,1785.000,-7.9887825
1586,1786.000,-3.9206009999999996
1587,1787.000,2.766494
1588,1788.000,4.8068105
1589,1789.000,3.5369015
1590,1790.000,-2.992259
1591,1791.000,-0.5500279999999997
1592,1792.000,-1.853838
1593,1793.000,-7.107997
1594,1794.000,4.286001499999999
1595,1795.000,5.8458805
1596,1796.000,-2.9306665
1597,1797.000,-3.6976325
1598,1798.000,3.097811
1599,1799.000,8.7934825
1600,1800.000,2.5495435
1601,1801.000,-8.9806195
1602,1802.000,-8.173981
1603,1803.000,-0.10524800000000001
1604,1804.000,6.461657000000001
1605,1805.000,4.483036500000001
1606,1806.000,-2.8487915
1607,1807.000,-3.6732485
1608,1808.000,0.07193050000000001
1609,1809.000,3.2235405000000004
1610,1810.000,-4.0292900000000005
1611,1811.000,-3.7503205
1612,1812.000,3.0561965000000004
1613,1813.000,-3.470743
1614,1814.000,-0.8158885
1615,1815.000,5.303656
1616,1816.000,0.828272
1617,1817.000,5.9662885
1618,1818.000,1.9005519999999998
1619,1819.000,-2.7062715
1620,1820.000,-5.973483999999999
1621,1821.000,-10.081741
1622,1822.000,5.245882
1623,1823.000,4.675577
1624,1824.000,3.9389845
1625,1825.000,-0.7210144999999999
1626,1826.000,-6.669892000000001
1627,1827.000,1.729042
1628,1828.000,3.2744155
1629,1829.000,3.669402
1630,1830.000,0.5315270000000001
1631,1831.000,-4.5678285
1632,1832.000,-2.9820195
1633,1833.000,3.7938225
1634,1834.000,3.1170324999999997
1635,1835.000,-4.797479
1636,1836.000,-6.109156499999999
1637,1837.000,3.223259
1638,1838.000,1.106036
1639,1839.000,1.3393005
1640,1840.000,-2.3148350000000004
1641,1841.000,-1.3548
1642,1842.000,8.7850055
1643,1843.000,-0.795322
1644,1844.000,-3.0022594999999996
1645,1845.000,0.6530925
1646,1846.000,0.39866449999999987
1647,1847.000,3.186687
1648,1848.000,1.709736
1649,1849.000,-2.3002504999999998
1650,1850.000,-3.713945
1651,1851.000,3.3800030000000003
1652,1852.000,1.1349755
1653,1853.000,-6.31058
1654,1854.000,-4.9973725
1655,1855.000,-1.9768950000000003
1656,1856.000,2.4456975
1657,1857.000,0.5380455
1658,1858.000,-4.3497164999999995
1659,1859.000,5.3421365000000005
1660,1860.000,6.1275085
1661,1861.000,-4.5249175
1662,1862.000,1.953433
1663,1863.000,-0.9708644999999998
1664,1864.000,-2.9276745
1665,1865.000,6.6477865
1666,1866.000,5.4355635
1667,1867.000,3.285003
1668,1868.000,-3.590576
1669,1869.000,-10.385401
1670,1870.000,-3.5565655
1671,1871.000,1.2796015
1672,1872.000,-2.0360659999999995
1673,1873.000,-0.2357275000000003
1674,1874.000,5.742634
1675,1875.000,3.8686625
1676,1876.000,-3.897819
1677,1877.000,-7.5995539999999995
1678,1878.000,7.618583
1679,1879.000,1.2283069999999991
1680,1880.000,-7.431939
1681,1881.000,10.551950000000001
1682,1882.000,7.876988
1683,1883.000,-5.516407
1684,1884.000,-5.506759
1685,1885.000,0.6244345
1686,1886.000,-5.7259210000000005
1687,1887.000,7.970499000000001
1688,1888.000,9.0166215
1689,1889.000,-8.2844455
1690,1890.000,-5.5831254999999995
1691,1891.000,-1.468928
1692,1892.000,-0.000248000000000026
1693,1893.000,4.3649425
1694,1894.000,7.352973499999999
1695,1895.000,-4.900743500000001
1696,1896.000,1.6705130000000006
1697,1897.000,1.4919835000000004
1698,1898.000,-8.961866
1699,1899.000,-0.44725550000000014
1700,1900.000,8.1164645
1701,1901.000,1.0884865000000001
1702,1902.000,-6.788637
1703,1903.000,5.3757875
1704,1904.000,3.269734
1705,1905.000,-2.3473005
1706,1906.000,-0.6620985000000001
1707,1907.000,-0.9177960000000001
1708,1908.000,1.4644390000000003
1709,1909.000,-0.06330500000000017
1710,1910.000,-7.481384500000001
1711,1911.000,-4.090075499999999
1712,1912.000,8.7059775
1713,1913.000,0.19143599999999972
1714,1914.000,-4.024751999999999
1715,1915.000,-2.0680715000000003
1716,1916.000,-1.126269
1717,1917.000,-0.4397529999999996
1718,1918.000,-0.6880594999999998
1719,1919.000,7.111516999999999
1720,1920.000,-3.3973335
1721,1921.000,4.770593
1722,1922.000,2.1317304999999998
1723,1923.000,-5.1953625
1724,1924.000,5.930597499999999
1725,1925.000,1.246686
1726,1926.000,-8.444632
1727,1927.000,-1.6319795
1728,1928.000,3.658116
1729,1929.000,2.0780315000000003
1730,1930.000,2.614522
1731,1931.000,-2.883376
1732,1932.000,4.0468865
1733,1933.000,-2.27686
1734,1934.000,0.4856645000000004
1735,1935.000,2.507198
1736,1936.000,-3.016845
1737,1937.000,1.6387585
1738,1938.000,-4.0176240000000005
1739,1939.000,0.7522365
1740,1940.000,3.0529355000000002
1741,1941.000,-0.24522149999999998
1742,1942.000,-2.3321625
1743,1943.000,0.052001000000000186
1744,1944.000,2.81687
1745,1945.000,-3.17091
1746,1946.000,-5.6278095
1747,1947.000,-2.854658
1748,1948.000,4.000198
1749,1949.000,0.18754700000000035
1750,1950.000,-5.024616
1751,1951.000,4.87312
1752,1952.000,3.8296569999999996
1753,1953.000,-5.181519
1754,1954.000,1.4609055
1755,1955.000,5.4036335
1756,1956.000,2.4998810000000002
1757,1957.000,-0.7831154999999999
1758,1958.000,0.6869055
1759,1959.000,-1.781125
1760,1960.000,-6.6812135
1761,1961.000,-1.799588
1762,1962.000,4.2388475
1763,1963.000,3.039177
1764,1964.000,1.5802425000000002
1765,1965.000,-4.124598499999999
1766,1966.000,2.659842
1767,1967.000,1.6001434999999997
1768,1968.000,-2.6236525
1769,1969.000,2.930485
1770,1970.000,-0.19211350000000005
1771,1971.000,1.3721510000000001
1772,1972.000,-0.832238
1773,1973.000,-5.5592904999999995
1774,1974.000,-3.2653144999999997
1775,1975.000,4.6890865
1776,1976.000,9.386781
1777,1977.000,-2.408649
1778,1978.000,-6.320324
1779,1979.000,-2.187562
1780,1980.000,2.573276
1781,1981.000,-4.942021
1782,1982.000,-6.0805845000000005
1783,1983.000,10.72667
1784,1984.000,-1.882867
1785,1985.000,-1.9173689999999999
1786,1986.000,0.2162379999999997
1787,1987.000,5.157813
1788,1988.000,4.599986
1789,1989.000,-5.3766385
1790,1990.000,2.772556
1791,1991.000,-2.8850195
1792,1992.000,-0.3844034999999999
1793,1993.000,6.921664499999999
1794,1994.000,-1.309569
1795,1995.000,-6.3325265
1796,1996.000,2.0664305
1797,1997.000,2.32569
1798,1998.000,-7.421931
1799,1999.000,-3.8207294999999997
1800,2000.000,2.8771250000000004
