# kind,background_subtracted
# version_label,v_poly6
# poly_order,6
# iterations_run,7
pixel_index,raman_shift_cm-1,intensity,background_intensity
0,200.000,5.1889889137476075,267.8021670862524
1,201.000,6.473215473929258,268.40570652607073
2,202.000,12.971071774500842,269.0105952254992
3,203.000,18.84103892447149,269.6168330755285
4,204.000,1.1320370441441128,270.22441995585586
5,205.000,0.7668872651041738,270.8333557348958
6,206.000,9.557583730208421,271.44364026979156
7,207.000,0.44561659357333383,272.0552734064267
8,208.000,0.0,272.66825497943637
9,209.000,13.674673187781423,273.2825848122186
10,210.000,2.6149622830540125,273.89826271694596
11,211.000,8.57235850542338,274.5152884945766
12,212.000,6.975011065133742,275.13366193486627
13,213.000,4.006260183620839,275.75338281637914
14,214.000,2.975184093500218,276.37445090649976
15,215.000,10.975369038555527,276.9968659614445
16,216.000,9.754689273727308,277.6206277262727
17,217.000,0.0,278.2457359348986
18,218.000,1.6310616898970807,278.8721903101029
19,219.000,0.7775734364560662,279.4999905635439
20,220.000,3.381248604230393,280.1291363957696
21,221.000,21.99907650377122,280.7596274962288
22,222.000,1.7713204567168077,281.3914635432832
23,223.000,9.663276795781371,282.02464420421865
24,224.000,0.0,282.65916913525695
25,225.000,10.659897018432389,283.2950379815676
26,226.000,0.0,283.93225037727916
27,227.000,1.0526660545086202,284.5708059454914
28,228.000,0.8360327017134068,285.2107042982866
29,229.000,9.668333963258476,285.85194503674154
30,230.000,0.0,286.49452775093914
31,231.000,10.884556980019909,287.1384520199801
32,232.000,8.792844588005096,287.7837174119949
33,233.000,0.0,288.4303234841557
34,234.000,0.0,289.07826978268747
35,235.000,0.0,289.72755584288063
36,236.000,0.0,290.3781811891026
37,237.000,14.680974665190718,291.0301453348093
38,238.000,18.508395217442455,291.68344778255755
39,239.000,10.177705975983258,292.33808802401677
40,240.000,22.010079460019313,292.9940655399807
41,241.000,1.6952511996204862,293.6513798003795
42,242.000,10.097982735708172,294.3100302642918
43,243.000,10.053259620043661,294.97001637995635
44,244.000,9.4192444152157,295.6313375847843
45,245.000,9.436387694629047,296.293993305371
46,246.000,5.982320042492006,296.95798295750797
47,247.000,0.7383860538049021,297.6233059461951
48,248.000,8.08542633434746,298.2899616656525
49,249.000,9.794256500667132,298.95794949933287
50,250.000,12.296616180066962,299.627268819933
51,251.000,6.315637010593548,300.29791898940647
52,252.000,9.314481641024656,300.96989935897534
53,253.000,14.2340637308576,301.6432092691424
54,254.000,7.68905995029661,302.3178480497034
55,255.000,10.683659980240975,302.99381501975904
56,256.000,5.0170745122727,303.6711094877273
57,257.000,7.528907248644714,304.3497307513553
58,258.000,12.693080902267866,305.02967809773213
59,259.000,6.3784461966998265,305.7109508033002
60,260.000,10.748081866131656,306.39354813386836
61,261.000,4.612600655376582,307.0774693446234
62,262.000,3.091642319857101,307.7627136801429
63,263.000,5.551210625592944,308.44928037440707
64,264.000,7.480406349188684,309.1371686508113
65,265.000,3.5163452778215287,309.82637772217845
66,266.000,9.560919209228928,310.5169067907711
67,267.000,4.952611951696099,311.2087550483039
68,268.000,12.850406324044002,311.901921675956
69,269.000,14.036163155616578,312.5964058443834
70,270.000,2.2256442862686754,313.29220671373133
71,271.000,2.4801875663533224,313.9893234336467
72,272.000,7.527335856709556,314.6877551432904
73,273.000,11.522160028649978,315.38750097135005
74,274.000,10.284893963947923,316.08856003605206
75,275.000,11.395682554825669,316.79093144517435
76,276.000,8.071373703941163,317.49461429605884
77,277.000,5.890018324376058,318.19960767562395
78,278.000,0.0,318.905910660377
79,279.000,11.139283683573126,319.6135223164269
80,280.000,21.056367300503382,320.3224416994966
81,281.000,10.47623214506416,321.0326678549358
82,282.000,7.778263182266528,321.7441998177335
83,283.000,9.177621387469685,322.4570366125303
84,284.000,7.005689746368375,323.17117725363164
85,285.000,6.147926254980121,323.88662074501985
86,286.000,5.344550919632752,324.60336608036727
87,287.000,9.534939756951644,325.32141224304837
88,288.000,6.3445867938468155,326.04075820615316
89,289.000,0.0,326.76140293249915
90,290.000,15.73995362535527,327.4833453746447
91,291.000,11.359060525098641,328.2065844749014
92,292.000,0.0,328.9311191653468
93,293.000,19.19652063216256,329.65694836783746
94,294.000,0.0,330.3840709940215
95,295.000,11.280789054648608,331.1124859453514
96,296.000,0.0,331.8421921130971
97,297.000,14.46811162164164,332.57318837835834
98,298.000,20.69883438792192,333.30547361207806
99,299.000,1.1378153249451088,334.0390466750549
100,300.000,3.7698945820438325,334.77390641795614
101,301.000,18.868950318669192,335.5100516813308
102,302.000,13.436415704377737,336.24748129562226
103,303.000,2.6721489188184364,336.98619408118157
104,304.000,14.645393151720157,337.72618884827983
105,305.000,12.491440602878185,338.46746439712183
106,306.000,5.856778482141408,339.2100195178586
107,307.000,6.80584400939955,339.95385299060047
108,308.000,9.60166641456982,340.6989635854302
109,309.000,12.452325937584135,341.44535006241586
110,310.000,0.0,342.1930111716241
111,311.000,4.11260234686705,342.94194565313296
112,312.000,3.6600017629548347,343.69215223704515
113,313.000,21.790352356499,344.443629643501
114,314.000,6.40453641730835,345.19637658269164
115,315.000,0.15228124512771046,345.95039175487227
116,316.000,3.7218001496250963,346.7056738503749
117,317.000,0.0,347.46222154962214
118,318.000,0.4106074768603776,348.22003352313965
119,319.000,8.040611568430108,348.9791084315699
120,320.000,13.607484074314755,349.73944492568523
121,321.000,3.1110093535991723,350.50104164640084
122,322.000,8.746637775211525,351.2638972247885
123,323.000,9.101612717910768,352.0280102820892
124,324.000,10.063139570272881,352.7933794297271
125,325.000,6.60631173067776,353.56000326932224
126,326.000,7.36315560729571,354.3278803927043
127,327.000,14.671677618074568,355.09700938192543
128,328.000,17.160517190725784,355.8673888092742
129,329.000,9.236449762711516,356.6390172372885
130,330.000,0.0,357.411893218769
131,331.000,14.88636470320722,358.1860152967928
132,332.000,5.835721995273673,358.9613820047263
133,333.000,14.39385013376068,359.7379918662393
134,334.000,0.3535596046820615,360.5158433953179
135,335.000,0.0,361.29493509627827
136,336.000,4.491645536220119,362.0752654637799
137,337.000,3.3143930171607394,362.85683298283925
138,338.000,2.460769871156856,363.63963612884316
139,339.000,19.853283632437467,364.4236733675625
140,340.000,10.095398844834335,365.2089431551657
141,341.000,7.336218061768193,365.9954439382318
142,342.000,13.38974684623497,366.783174153765
143,343.000,18.745477770792718,367.5721322292073
144,344.000,14.495274417547307,368.3623165824527
145,345.000,13.817308378139444,369.15372562186053
146,346.000,6.963490253730811,369.9463577462692
147,347.000,22.382100654990268,370.74021134500975
148,348.000,7.63310820208028,371.5352847979197
149,349.000,1.6684515246433875,372.3315764753566
150,350.000,9.779023261788325,373.1290847382117
151,351.000,9.04441206207622,373.9278079379238
152,352.000,1.7914715835071888,374.7277444164928
153,353.000,10.144057493506295,375.5288925064937
154,354.000,9.853034468909868,376.3312505310901
155,355.000,4.9195461959518525,377.13481680404817
156,356.000,10.424032370249563,377.93958962975046
157,357.000,10.077913696790631,378.7455673032094
158,358.000,5.630510889918469,379.55274811008155
159,359.000,10.054653673318569,380.3611303266814
160,360.000,13.520584780005208,381.1707122199948
161,361.000,0.0,381.9814920476934
162,362.000,12.386622941851897,382.7934680581481
163,363.000,6.046766509556676,383.60663849044334
164,364.000,2.979029425609326,384.4210015743907
165,365.000,7.603213469456989,385.236555530543
166,366.000,2.3448154297916517,386.05329857020837
167,367.000,6.940164104535995,386.871228895464
168,368.000,13.110846300829735,387.6903446991703
169,369.000,0.0,388.5106441649848
170,370.000,0.0,389.33212546737633
171,371.000,15.374962228361085,390.1547867716389
172,372.000,10.274379766094285,390.97862623390574
173,373.000,10.190951998836283,391.8036420011637
174,374.000,20.43627578873304,392.62983221126694
175,375.000,3.304916007048803,393.4571949929512
176,376.000,4.829988534151994,394.285728465848
177,377.000,5.557035259501333,395.11543074049865
178,378.000,7.640571081631435,395.94629991836854
179,379.000,7.099566908138797,396.7783340918612
180,380.000,6.615913655667498,397.6115313443325
181,381.000,3.2858402498950454,398.445889750105
182,382.000,18.290473625518075,399.28140737448194
183,383.000,9.221487726238252,400.11808227376173
184,384.000,7.282416504748028,400.955912495252
185,385.000,14.91351392271605,401.79489607728397
186,386.000,0.0,402.63503104922665
187,387.000,14.310616568498517,403.47631543150146
188,388.000,0.7323737644040307,404.318747235596
189,389.000,9.202067535921117,405.1623244640789
190,390.000,2.806324889386076,406.00704511061394
191,391.000,12.3198088400257,406.8529071599743
192,392.000,1.1011574119427223,407.69990858805727
193,393.000,10.847491638101587,408.5480473618984
194,394.000,5.116788560313864,409.39732143968615
195,395.000,13.05461322922423,410.2477287707758
196,396.000,4.572585704295307,411.0992672957047
197,397.000,2.542040053793926,411.95193494620605
198,398.000,14.598800354776358,412.80572964522366
199,399.000,0.0,413.66064930692664
200,400.000,9.676966163276518,414.5166918367235
201,401.000,9.910089868723048,415.37385513127697
202,402.000,7.693236921481514,416.23213707851846
203,403.000,12.23480944233728,417.0915355576627
204,404.000,7.328261560777776,417.9520484392222
205,405.000,8.809173414978034,418.81367358502195
206,406.000,11.823037151785968,419.676408848214
207,407.000,9.866264926707913,420.5402520732921
208,408.000,9.514853903893822,421.40520109610617
209,409.000,12.953422256122565,422.2712537438774
210,410.000,0.01412416478740397,423.1384078352126
211,411.000,1.785460819881223,424.0066611801188
212,412.000,7.540040419981835,424.87601158001814
213,413.000,14.974280172237172,425.7464568277628
214,414.000,4.142576292350668,426.61799470764936
215,415.000,7.557265004566318,427.4906229954337
216,416.000,13.370118541654222,428.3643394583458
217,417.000,16.235383144895366,429.23914185510466
218,418.000,12.363903064067017,430.11502793593297
219,419.000,12.05533955742817,430.9919954425718
220,420.000,12.020180891704285,431.8700421082957
221,421.000,0.0,432.7491656579275
222,422.000,4.376685192146795,433.6293638078532
223,423.000,9.991108733963358,434.5106342660366
224,424.000,0.6088162679654374,435.3929747320346
225,425.000,0.0,436.27638289701184
226,426.000,0.0,437.1608564437558
227,427.000,14.053008953308392,438.0463930466916
228,428.000,0.0,438.9329903718973
229,429.000,12.61497092288164,439.82064607711834
230,430.000,18.18478418821678,440.7093578117832
231,431.000,0.0,441.59912321701796
232,432.000,6.713223074338771,442.48993992566125
233,433.000,2.6947894377200328,443.38180556227996
234,434.000,3.2454372568165013,444.2747177431835
235,435.000,3.109638923560624,445.1686740764394
236,436.000,0.0,446.0636721618884
237,437.000,9.14828040884072,446.95970959115925
238,438.000,2.0180110523156713,447.85678394768433
239,439.000,9.291230193285799,448.7548928067142
240,440.000,6.616378264666764,449.65403373533326
241,441.000,5.092712707525209,450.55420429247476
242,442.000,5.0487999710640565,451.45540202893596
243,443.000,5.595288512606487,452.35762448739354
244,444.000,5.1596017975815585,453.26086920241846
245,445.000,11.154465299508331,454.16513370049165
246,446.000,9.372371499980943,455.07041550001907
247,447.000,9.788603888653142,455.97671211134684
248,448.000,9.913023963223225,456.8840210367768
249,449.000,10.622272229418229,457.79233977058175
250,450.000,14.59758420097927,458.7016657990207
251,451.000,16.022435399645758,459.61199660035425
252,452.000,10.381577355139825,460.52332964486015
253,453.000,13.348708605151785,461.43566239484824
254,454.000,2.2149796953236205,462.34899230467636
255,455.000,5.7352651792345455,463.26331682076545
256,456.000,11.931452618385038,464.178633381615
257,457.000,2.0480525821813558,465.09493941781864
258,458.000,8.794247647920486,466.01223235207954
259,459.000,10.816694400774338,466.9305095992257
260,460.000,2.384408433774297,467.8497685662257
261,461.000,0.0,468.77000665220424
262,462.000,5.015921751542578,469.6912212484574
263,463.000,0.0,470.6134097384685
264,464.000,7.424076502076673,471.5365694979233
265,465.000,4.343830105274151,472.46069789472585
266,466.000,0.0,473.38579228901415
267,467.000,0.0,474.31185003317546
268,468.000,21.228056528137984,475.238868471862
269,469.000,1.3058290579928098,476.1668449420072
270,470.000,6.255198227159951,477.09577677284005
271,471.000,10.233280714097702,478.0256612859023
272,472.000,9.000357204937131,478.9564957950629
273,473.000,8.370906393465532,479.8882776065345
274,474.000,5.725945981111181,480.8210040188888
275,475.000,9.752498676927587,481.75467232307244
276,476.000,4.9427321975773,482.6892798024227
277,477.000,8.61149026731664,483.62482373268335
278,478.000,12.862969617979843,484.56130138202013
279,479.000,6.817987988962841,485.49871001103713
280,480.000,4.522403127208008,486.437046872792
281,481.000,0.0,487.37630921281226
282,482.000,2.8762587308891625,488.3164942691108
283,483.000,6.025585727797875,489.2575992722021
284,484.000,8.14915055488217,490.1996214451178
285,485.000,0.0,491.14255800342283
286,486.000,5.778028844768812,492.0864061552312
287,487.000,0.0,493.03116310122175
288,488.000,0.0,493.9768260346548
289,489.000,6.976783858612691,494.9233921413873
290,490.000,10.254790400110835,495.8708585998892
291,491.000,3.030004418740589,496.8192225812594
292,492.000,3.9778707507579156,497.7684812492421
293,493.000,8.445022239757975,498.71863176024203
294,494.000,7.382939736658614,499.6696712633414
295,495.000,22.401672099684788,500.62159690031524
296,496.000,13.270948194352059,501.574405805648
297,497.000,0.0,502.52809510654936
298,498.000,21.460302077029553,503.4826619229704
299,499.000,1.8088866323800517,504.43810336761993
300,500.000,0.0,505.3944165459804
301,501.000,0.0,506.351598556324
302,502.000,7.77698951027071,507.3096464897293
303,503.000,0.0,508.2685574300966
304,504.000,2.5114985458346837,509.2283284541653
305,505.000,12.814075368470867,510.1889566315291
306,506.000,0.0,511.15043902465266
307,507.000,0.0,512.1127726888881
308,508.000,7.7113793275090075,513.075954672491
309,509.000,0.8757489833637919,514.0399820166363
310,510.000,8.120983244564513,515.0048517554355
311,511.000,8.922455084047442,515.9705609159525
312,512.000,5.666675481780317,516.9371065182197
313,513.000,12.89528842474499,517.904485575255
314,514.000,0.44219190692263055,518.8726950930774
315,515.000,0.0,519.841732070724
316,516.000,0.0,520.8115935002664
317,517.000,9.040316633173234,521.7822763668267
318,518.000,12.745643351405533,522.7537776485945
319,519.000,0.0,523.7260943168423
320,520.000,12.889250664056476,524.6992233359435
321,521.000,1.0327133366120052,525.673161663388
322,522.000,1.570324750201621,526.6479062497983
323,523.000,15.532953961052954,527.6234540389471
324,524.000,12.015502032226891,528.5998019677731
325,525.000,7.068715033602416,529.5769469663976
326,526.000,13.703596041858418,530.5548859581415
327,527.000,0.0,531.5336158595412
328,528.000,8.228489419634002,532.513133580366
329,529.000,8.45735397636588,533.4934360236341
330,530.000,9.85993591437068,534.4745200856294
331,531.000,2.2879323440814687,535.4563826559186
332,532.000,11.467845382632959,536.4390206173671
333,533.000,0.0,537.4224308461563
334,534.000,0.0,538.4066102118
335,535.000,16.382243422838883,539.3915555771612
336,536.000,4.577800201531318,540.3772637984687
337,537.000,0.0,541.3637317253344
338,538.000,0.0,542.3509562007691
339,539.000,14.284666938799319,543.3389340612007
340,540.000,15.736720863511096,544.3276621364889
341,541.000,11.635441750055406,545.3171372499446
342,542.000,3.896248781655572,546.3073562183445
343,543.000,6.188054148051037,547.2983158519489
344,544.000,6.894118045480809,548.2900129545192
345,545.000,2.657160676666763,549.2824443233333
346,546.000,7.878941250796402,550.2756067492036
347,547.000,2.4775109835061357,551.2694970164939
348,548.000,10.406139096864308,552.2641119031357
349,549.000,8.066492819354266,553.2594481806457
350,550.000,1.4241903858578553,554.2555026141422
351,551.000,0.0,555.252271962363
352,552.000,10.094006022318581,556.2497529776814
353,553.000,17.8677885938763,557.2479424061237
354,554.000,3.0548260126133755,558.2468369873866
355,555.000,16.07442854514693,559.2464334548531
356,556.000,21.501848464389013,560.2467285356109
357,557.000,0.0,561.2477189504687
358,558.000,0.0,562.2494014139734
359,559.000,9.889480365572581,563.2517726344274
360,560.000,7.374705686094671,564.2548293139054
361,561.000,0.0,565.2585681482717
362,562.000,12.27919117280203,566.262985827198
363,563.000,7.473381965820749,567.2680790341792
364,564.000,11.203547553447947,568.2738444465521
365,565.000,9.037582264488833,569.2802787355112
366,566.000,0.0,570.2873785661271
367,567.000,7.4658354026369125,571.2951405973631
368,568.000,12.052245517907409,572.3035614820926
369,569.000,0.0,573.3126378671165
370,570.000,1.376864606819936,574.3223663931801
371,571.000,9.440730305008742,575.3327436949912
372,572.000,1.4849125987636853,576.3437664012363
373,573.000,2.9370288654009755,577.355431134599
374,574.000,6.843162488223243,578.3677345117768
375,575.000,13.361378856501574,579.3806731434984
376,576.000,2.1467673654584587,580.3942436345416
377,577.000,13.995164416249963,581.40844258375
378,578.000,3.495011415948966,582.423266584051
379,579.000,1.7063107775268236,583.4387122224732
380,580.000,11.250128919836584,584.4547760801635
381,581.000,4.9761562675954565,585.4714547324046
382,582.000,0.0,586.4887447486328
383,583.000,7.067070307544327,587.5066426924557
384,584.000,0.0,588.5251451216687
385,585.000,0.0,589.5442485882738
386,586.000,8.31431236150388,590.5639496384961
387,587.000,3.805157187197892,591.5842448128021
388,588.000,10.073706354083015,592.605130645917
389,589.000,18.795534333157775,593.6266036668422
390,590.000,0.0,594.6486603988733
391,591.000,2.72047264038315,595.6712973596168
392,592.000,0.0,596.6945110610093
393,593.000,1.9463409906664992,597.7182980093335
394,594.000,13.937577294762718,598.7426547052373
395,595.000,5.474626356249587,599.7675776437504
396,596.000,2.841396685697191,600.7930633143028
397,597.000,6.607503799257984,601.819108200742
398,598.000,17.129320218649127,602.8457087813508
399,599.000,10.00992847113423,603.8728615288658
400,600.000,11.405020089506138,604.9005629104938
401,601.000,8.296511612068798,605.9288093879312
402,602.000,20.347706582619367,606.9575974173806
403,603.000,14.468782550431115,607.9869234495688
404,604.000,12.678695070234312,609.0167839297657
405,605.000,33.80472270219968,610.0471752978003
406,606.000,13.417794011919682,611.0780939880804
407,607.000,19.50866857039057,612.1095364296094
408,608.000,29.218685953995305,613.1414990460047
409,609.000,35.70763074448473,614.1739782555153
410,610.000,30.487411528960024,615.20697047104
411,611.000,47.13255689985465,616.2404721001453
412,612.000,53.57256745491679,617.2744795450832
413,613.000,60.70706079719048,618.3089892028095
414,614.000,63.4735945349986,619.3439974650014
415,615.000,85.87959128192392,620.3795007180761
416,616.000,94.96456265679171,621.4154953432082
417,617.000,131.60953328365156,622.4519777163484
418,618.000,149.71646879175898,623.488944208241
419,619.000,176.88356181555775,624.5263911844422
420,620.000,178.22826599466168,625.5643150053384
421,621.000,167.394361973836,626.602712026164
422,622.000,142.18637140297994,627.64157859702
423,623.000,118.7688929371086,628.6809110628914
424,624.000,101.30752823633372,629.7207057636663
425,625.000,88.73337096584669,630.7609590341533
426,626.000,65.17469979589987,631.8016672041001
427,627.000,52.043544401788154,632.8428265982119
428,628.000,43.0641444638311,633.8844335361689
429,629.000,48.45400966735451,634.9264843326455
430,630.000,35.80179270267206,635.9689752973279
431,631.000,27.03685926506762,637.0119027349324
432,632.000,31.795518054775698,638.0552629452243
433,633.000,18.12318377696431,639.0990522230356
434,634.000,8.14222114171639,640.1432668582836
435,635.000,22.60732986401092,641.1879031359891
436,636.000,21.412686663705017,642.2329573362949
437,637.000,5.751196265515546,643.2784257344845
438,638.000,12.682604399000411,644.3243046009995
439,639.000,3.908127798540818,645.3705902014592
440,640.000,9.142606203321634,646.4172787966784
441,641.000,2.610994357314212,647.4643666426858
442,642.000,12.506388009257194,648.5118499907428
443,643.000,8.614309912638305,649.5597250873617
444,644.000,17.592937825675676,650.6079881743243
445,645.000,16.420752511299497,651.6566354887005
446,646.000,8.532642737133301,652.7056632628667
447,647.000,6.510692275475549,653.7550677245245
448,648.000,14.994167903281209,654.8048450967187
449,649.000,7.554429402142773,655.8549915978572
450,650.000,6.322244558272018,656.905503441728
451,651.000,1.6314751624812516,657.9563768375187
452,652.000,6.690669010164697,659.0076079898353
453,653.000,0.0,660.05919309872
454,654.000,10.247234640328884,661.1111283596712
455,655.000,5.700502036339799,662.1634099636602
456,656.000,9.459618902847751,663.2160340971523
457,657.000,1.0011890578766725,664.2689969421233
458,658.000,5.180845323920266,665.3222946760798
459,659.000,7.462387527923056,666.3759234720769
460,660.000,4.224407501262135,667.4298794987378
461,661.000,3.2823410797277575,668.4841589202722
462,662.000,15.485468103505582,669.5387578964944
463,663.000,3.387254417156214,670.5936725828437
464,664.000,0.0,671.6488991304016
465,665.000,0.0,672.7044336859117
466,666.000,0.0,673.760272391798
467,667.000,5.510905613815794,674.8164113861842
468,668.000,1.1866751970877658,675.8728468029122
469,669.000,8.118026228438794,676.9295747715612
470,670.000,11.812467582533259,677.9865914174668
471,671.000,8.308094138260913,679.0438928617391
472,672.000,9.197150778716832,680.1014752212832
473,673.000,0.0,681.1593346088166
474,674.000,4.157603867110993,682.217467132889
475,675.000,0.452275102098497,683.2758688979015
476,676.000,10.546148995875342,684.3345360041246
477,677.000,4.736162452281405,685.3934645477186
478,678.000,2.948529379248498,686.4526506207515
479,679.000,13.998578688781208,687.5120903112188
480,680.000,0.9294142969380346,688.571779703062
481,681.000,0.0,689.6317148761887
482,682.000,0.0,690.6918919064901
483,683.000,1.8863621341382668,691.7523068658618
484,684.000,0.0,692.8129558222222
485,685.000,4.377352160468831,693.8738348395311
486,686.000,2.445258022189819,694.9349399778101
487,687.000,0.0,695.996267293161
488,688.000,1.5257131622148563,697.0578128377851
489,689.000,11.79269633999752,698.1195726600025
490,690.000,2.0536231957283917,699.1815428042717
491,691.000,19.133682688791964,700.243719311208
492,692.000,0.0,701.3060982176039
493,693.000,9.599832443552373,702.3686755564477
494,694.000,0.056303643057503905,703.4314473569425
495,695.000,0.0,704.4944096445263
496,696.000,15.921315559108734,705.5575584408913
497,697.000,2.010186235997594,706.6208897640024
498,698.000,12.803214371882405,707.6843996281176
499,699.000,10.341654956193224,708.7480840438068
500,700.000,1.2603719820285733,709.8119390179714
501,701.000,0.0,710.8759605538636
502,702.000,6.9911573488938075,711.9401446511062
503,703.000,2.477007694288659,713.0044873057113
504,704.000,12.100432489899049,714.0689845101009
505,705.000,5.195846746874622,715.1336322531254
506,706.000,3.4822424799164082,716.1984265200836
507,707.000,0.0,717.2633632927423
508,708.000,0.0,718.328438549355
509,709.000,7.922077735317089,719.393648264683
510,710.000,3.1803225899866447,720.4589884100134
511,711.000,0.0,721.5244549531799
512,712.000,4.5476671414186285,722.5900438585813
513,713.000,16.94471491279762,723.6557510872024
514,714.000,0.0,724.7215725966325
515,715.000,0.0,725.7875043410855
516,716.000,5.24918972857995,726.85354227142
517,717.000,8.005078664841903,727.9196823351581
518,718.000,5.436869523494124,728.9859204765058
519,719.000,0.0,730.0522526363727
520,720.000,4.437348247608952,731.118674752391
521,721.000,14.159285241063458,732.1851827589365
522,722.000,4.378638412852865,733.2517725871471
523,723.000,5.41909283505629,734.3184401649437
524,724.000,2.510345582951345,735.3851814170487
525,725.000,8.007855734992631,736.4519922650073
526,726.000,0.0,737.5188686272063
527,727.000,8.967920581105545,738.5858064188944
528,728.000,0.0,739.6528015522017
529,729.000,2.7917720638398578,740.7198499361601
530,730.000,14.482067523276783,741.7869474767232
531,731.000,14.100973923215065,742.8540900767849
532,732.000,9.873811363798268,743.9212736362017
533,733.000,2.047310948189647,744.9884940518103
534,734.000,12.745690782550582,746.0557472174494
535,735.000,0.5262289760217982,747.1230290239782
536,736.000,8.24246964070278,748.1903353592973
537,737.000,11.950916891630982,749.257662108369
538,738.000,0.0,750.3250051532361
539,739.000,3.8024816269567054,751.3923603730433
540,740.000,4.0935373559439086,752.4597236440561
541,741.000,0.0,753.5270908396819
542,742.000,6.759882169510888,754.5944578304891
543,743.000,0.0,755.6618204842287
544,744.000,7.768204334147981,756.729174665852
545,745.000,10.271526762466237,757.7965162375338
546,746.000,12.593202941310096,758.8638410586899
547,747.000,5.420240014001251,759.9311449859988
548,748.000,0.0,760.9984238734215
549,749.000,4.549357427778773,762.0656735722213
550,750.000,5.016176069015046,763.1328899309849
551,751.000,2.8517182043584626,764.2000687956415
552,752.000,9.30479699051557,765.2672060094844
553,753.000,11.728642586809542,766.3342974131905
554,754.000,3.244015155160014,767.40133884484
555,755.000,0.0,768.468326139938
556,756.000,9.176335868565957,769.535255131434
557,757.000,10.203855350257072,770.6021216497429
558,758.000,0.0,771.668921522764
559,759.000,4.782406424097076,772.7356505759029
560,760.000,0.0,773.8023046320915
561,761.000,0.0,774.8688795118076
562,762.000,2.8339079669036664,775.9353710330963
563,763.000,2.865049988410078,777.0017750115899
564,764.000,22.289619739471277,778.0680872605287
565,765.000,0.0,779.134303590781
566,766.000,2.0701291891360825,780.2004198108639
567,767.000,9.933354273035889,781.2664317269641
568,768.000,11.001519857042126,782.3323351429578
569,769.000,2.817795139568261,783.3981258604317
570,770.000,7.907859321296769,784.4637996787033
571,771.000,7.354700605158314,785.5293523948417
572,772.000,22.72843519631249,786.5947798036875
573,773.000,11.533902302124943,787.6600776978751
574,774.000,8.24805713214937,788.7252418678506
575,775.000,5.669574898104315,789.7902681018957
576,776.000,6.568780813854573,790.8551521861455
577,777.000,7.411077095389487,791.9198899046105
578,778.000,5.018049960802159,792.9844770391978
579,779.000,13.075542630270093,794.0489093697299
580,780.000,7.042055326031914,795.1131826739681
581,781.000,18.16511627236912,796.1772927276309
582,782.000,26.513551695584624,797.2412353044153
583,783.000,27.175081823981373,798.3050061760187
584,784.000,16.392589887841496,799.3686011121586
585,785.000,35.936683119406666,800.4320158805933
586,786.000,38.79213975285643,801.4952462471435
587,787.000,48.51322902428717,802.5582879757128
588,788.000,45.512918171692036,803.621136828308
589,789.000,50.47044943493904,804.6837885650609
590,790.000,56.728106055751255,805.7462389442487
591,791.000,79.02345527768591,806.8084837223141
592,792.000,76.06191534611173,807.8705186538882
593,793.000,83.66563850819034,808.9323394918097
594,794.000,102.64849501285357,809.9939419871464
595,795.000,91.79020911078408,811.055321889216
596,796.000,85.61107305439248,812.1164749456075
597,797.000,92.07354109779806,813.177396902202
598,798.000,75.72960049680682,814.2380835031931
599,799.000,75.3542255088903,815.2985304911097
600,800.000,61.0349453931658,816.3587336068342
601,801.000,50.02701641037322,817.4186885896268
602,802.000,37.84939582285642,818.4783911771435
603,803.000,24.09780989454032,819.5378371054596
604,804.000,35.14183889091032,820.5970221090897
605,805.000,33.51343107899106,821.6559419210089
606,806.000,22.944056727326142,822.7145922726738
607,807.000,27.518247105955993,823.772968894044
608,808.000,18.95584248639625,824.8310675136038
609,809.000,18.01145114161841,825.8888838583816
610,810.000,12.860332346026325,826.9464136539737
611,811.000,21.095309375437637,828.0036526245624
612,812.000,7.135388507059702,829.0605964929402
613,813.000,0.0,830.1172409805297
614,814.000,17.24952319259603,831.1735818074039
615,815.000,14.105458307689787,832.2296146923102
616,816.000,0.0,833.2853353526887
617,817.000,5.081125495304832,834.3407395046952
618,818.000,5.224839136777746,835.3958228632223
619,819.000,9.719938858078763,836.4505811419212
620,820.000,4.019455946778294,837.5050100532217
621,821.000,15.927326691645362,838.5591053083547
622,822.000,2.1088543826264186,839.6128626173736
623,823.000,7.958651310825076,840.6662776891749
624,824.000,0.0,841.7193462315208
625,825.000,9.482672048940117,842.7720639510599
626,826.000,3.6115034466516818,843.8244265533483
627,827.000,9.670166257128017,844.876429742872
628,828.000,0.0,845.9280692230682
629,829.000,0.0,846.9793406963461
630,830.000,2.578563135890704,848.0302398641093
631,831.000,7.006352573223239,849.0807624267768
632,832.000,5.23617191619519,850.1309040838048
633,833.000,8.359886466291414,851.1806605337085
634,834.000,8.784627525916903,852.230027474083
635,835.000,3.0580613983744342,853.2790006016255
636,836.000,7.842339387842912,854.327575612157
637,837.000,2.7884207993564587,855.3757482006436
638,838.000,0.0,856.4235140612184
639,839.000,14.245732112797555,857.4708688872024
640,840.000,0.0,858.517808371128
641,841.000,8.988347795241225,859.5643282047588
642,842.000,3.8495169208873676,860.6104240791126
643,843.000,0.0,861.6560916844821
644,844.000,6.067345289542459,862.7013267104576
645,845.000,0.0,863.7461248459485
646,846.000,9.380430220795233,864.7904817792048
647,847.000,0.0,865.8343931978393
648,848.000,2.574893211151334,866.8778547888487
649,849.000,0.0,867.9208622386368
650,850.000,0.0,868.9634112330348
651,851.000,13.918101542675458,870.0054974573245
652,852.000,14.976739403740794,871.0471165962592
653,853.000,0.0,872.0882643340863
654,854.000,0.8341756454311735,873.1289363545689
655,855.000,5.892783658992698,874.1691283410073
656,856.000,2.1587260237373584,875.2088359762627
657,857.000,0.6605170572238421,876.2480549427762
658,858.000,8.794912077405911,877.2867809225941
659,859.000,4.13545140261283,878.3250095973872
660,860.000,0.0,879.3627366484745
661,861.000,0.0,880.3999577568447
662,862.000,5.283303396821907,881.4366686031781
663,863.000,0.0,882.4728648678686
664,864.000,14.137394768953982,883.508542231046
665,865.000,0.0,884.543696372599
666,866.000,2.8957080278046305,885.5783229721953
667,867.000,0.0,886.6124177093054
668,868.000,0.0,887.6459762632242
669,869.000,13.581595686907235,888.6789943130927
670,870.000,6.8729204620781275,889.7114675379219
671,871.000,8.00057738338785,890.7433916166121
672,872.000,0.0,891.7747622279783
673,873.000,2.591453949230072,892.8055750507699
674,874.000,12.489388236305558,893.8358257636944
675,875.000,1.7650159545604538,894.8655100454396
676,876.000,4.290938425305171,895.8946235746948
677,877.000,1.9905239698254036,896.9231620301746
678,878.000,7.02840090936013,897.9511210906398
679,879.000,11.656938565079258,898.9784964349208
680,880.000,13.91526925806113,900.0052837419389
681,881.000,2.703964309269395,901.0314786907306
682,882.000,1.6877630395325696,902.0570769604674
683,883.000,6.276664769520039,903.08207423048
684,884.000,0.0,904.1064661802802
685,885.000,0.0,905.1302484895832
686,886.000,0.0,906.1534168383305
687,887.000,0.0,907.1759669067119
688,888.000,5.045523624812176,908.1978943751878
689,889.000,0.0,909.2191949245125
690,890.000,8.128026764244055,910.2398642357559
691,891.000,9.597429009673647,911.2598979903264
692,892.000,0.0,912.2792918699934
693,893.000,0.0,913.2980415569102
694,894.000,0.0,914.3161427336358
695,895.000,0.0,915.3335910831584
696,896.000,4.696461711082975,916.350382288917
697,897.000,0.0,917.3665120348251
698,898.000,0.0,918.3819760052925
699,899.000,0.0,919.3967698852482
700,900.000,0.37544263983625115,920.4108893601638
701,901.000,0.0,921.4243301160745
702,902.000,10.473834160395654,922.4370878396044
703,903.000,4.717800782014251,923.4491582179858
704,904.000,0.0,924.4605369390849
705,905.000,6.69249630857621,925.4712196914238
706,906.000,0.0,926.4812021642024
707,907.000,0.8888619526783259,927.4904800473216
708,908.000,6.591643968593075,928.4990490314069
709,909.000,0.4400111921701182,929.5069048078299
710,910.000,11.463166931267779,930.5140430687322
711,911.000,5.458825492952087,931.5204595070479
712,912.000,0.0,932.5261498165264
713,913.000,0.0,933.5311096917551
714,914.000,1.0610111718171993,934.5353348281828
715,915.000,4.403594077857633,935.5388209221423
716,916.000,4.227034329126468,936.5415636708735
717,917.000,0.0,937.5435587725458
718,918.000,1.5908120737176432,938.5448019262824
719,919.000,0.0,939.5452888321811
720,920.000,0.0,940.5450151913403
721,921.000,12.371962294121431,941.5439767058785
722,922.000,0.0,942.5421690789606
723,923.000,0.0,943.539588014819
724,924.000,6.14152778122309,944.536229218777
725,925.000,1.007290602727835,945.5320883972722
726,926.000,0.0,946.5271612578795
727,927.000,14.555548490665615,947.5214435093344
728,928.000,0.0,948.5149308615553
729,929.000,0.0,949.5076190256682
730,930.000,10.494451285972104,950.4995037140279
731,931.000,5.248251359756978,951.490580640243
732,932.000,0.9653654808018928,952.480845519198
733,933.000,6.942364932923169,953.4702940670768
734,934.000,1.660616998613932,954.4589220013861
735,935.000,1.0340429590218037,955.4467250409782
736,936.000,7.4006310939249715,956.433698906075
737,937.000,8.156145681709404,957.4198393182905
738,938.000,2.7557939993453147,958.4051420006547
739,939.000,6.584946322363521,959.3896026776365
740,940.000,16.324516924832892,960.3732170751671
741,941.000,5.695347079336216,961.3559809206638
742,942.000,4.2444710569473045,962.3378899430527
743,943.000,1.7655191272079946,963.318939872792
744,944.000,6.974837558103218,964.2991264418968
745,945.000,0.0,965.2784453839604
746,946.000,0.0,966.2568924341797
747,947.000,0.0,967.2344633293769
748,948.000,7.870445191975364,968.2111538080246
749,949.000,0.0,969.1869596102674
750,950.000,4.3738555220518265,970.1618764779482
751,951.000,3.4381418453717743,971.1359001546282
752,952.000,0.0,972.1090263856131
753,953.000,9.503784082024254,973.0812509179757
754,954.000,16.559607499420963,974.052569500579
755,955.000,0.0,975.0229778841015
756,956.000,1.889777178941813,975.9924718210582
757,957.000,7.357028934173741,976.9610470658263
758,958.000,3.2702626253325207,977.9286993746675
759,959.000,16.83016049424657,978.8954245057535
760,960.000,7.196349780813307,979.8612182191866
761,961.000,10.114928722973104,980.8260762770269
762,962.000,10.611274556687022,981.7899944433129
763,963.000,15.00046151591232,982.7529684840877
764,964.000,5.767519832579865,983.7149941674202
765,965.000,12.525145736568447,984.6760672634316
766,966.000,8.627997455683044,985.636183544317
767,967.000,15.349746215629807,986.5953387843701
768,968.000,17.841768239993144,987.5535287600069
769,969.000,16.401730750210845,988.5107492497891
770,970.000,13.208858965551144,989.4669960344488
771,971.000,16.713585103088803,990.4222648969112
772,972.000,23.551371377680425,991.3765516223195
773,973.000,5.747413001942164,992.3298519980578
774,974.000,16.094426186223814,993.2821618137762
775,975.000,15.539136138586969,994.233476861413
776,976.000,6.185172064779749,995.1837929352203
777,977.000,14.845792168212597,996.1331058317874
778,978.000,14.92496864993609,997.081411350064
779,979.000,21.272232708615434,998.0287052913845
780,980.000,25.25488454050651,998.9749834594934
781,981.000,16.43466233943286,999.9202416605672
782,982.000,24.16282829676061,1000.8644757032393
783,983.000,24.272289601375178,1001.8076813986247
784,984.000,33.57736643965745,1002.7498545603426
785,985.000,32.577295995458144,1003.690991004542
786,986.000,40.48300345007533,1004.6310865499247
787,987.000,42.9824909822305,1005.5701370177694
788,988.000,58.518125768042864,1006.5081382319572
789,989.000,70.0544429810061,1007.4450860189938
790,990.000,70.06268579196512,1008.3809762080348
791,991.000,88.77551436909084,1009.3158046309093
792,992.000,97.04273787785496,1010.249567122145
793,993.000,125.22556448100863,1011.1822595189913
794,994.000,153.86272133855596,1012.1138776614441
795,995.000,195.90459160773003,1013.0444173922699
796,996.000,272.3981654429697,1013.9738745570303
797,997.000,364.3027529958947,1014.9022450041052
798,998.000,503.00557941528086,1015.8295245847191
799,999.000,695.969910847037,1016.7557091529629
800,1000.000,898.3916364341794,1017.6807945658206
801,1001.000,1001.0880123168081,1018.6047766831919
802,1002.000,896.0762276320831,1019.5276513679169
803,1003.000,707.2145545141984,1020.4494144858015
804,1004.000,507.6408150943596,1021.3700619056403
805,1005.000,364.8473155007582,1022.2895894992419
806,1006.000,278.98979385854705,1023.207993141453
807,1007.000,211.54775228981725,1024.1252687101828
808,1008.000,158.4514359135717,1025.0414120864284
809,1009.000,140.01428484570306,1025.956419154297
810,1010.000,109.36594519896744,1026.8702858010327
811,1011.000,97.35994708296062,1027.7830079170394
812,1012.000,89.49903060409315,1028.6945813959069
813,1013.000,79.07491086556638,1029.6050021344336
814,1014.000,54.93269096734798,1030.5142660326521
815,1015.000,58.33106100614623,1031.4223689938538
816,1016.000,70.67390607538664,1032.3293069246133
817,1017.000,54.46780726518773,1033.2350757348122
818,1018.000,58.197889662334774,1034.1396713376653
819,1019.000,66.90765235025606,1035.043089649744
820,1020.000,61.95768240899929,1035.9453265910008
821,1021.000,68.40417391520486,1036.846378084795
822,1022.000,75.46085594208307,1037.746240057917
823,1023.000,91.1341535593881,1038.644908440612
824,1024.000,107.50787683339422,1039.5423791666058
825,1025.000,119.31092782687051,1040.4386481731294
826,1026.000,151.80181859905656,1041.3337114009435
827,1027.000,188.8035102056374,1042.2275647943627
828,1028.000,241.62659969871834,1043.1202043012818
829,1029.000,327.10949312680145,1044.0116258731985
830,1030.000,389.96619653476,1044.90182546524
831,1031.000,429.8219139638129,1045.790799036187
832,1032.000,394.3278874515008,1046.678542548499
833,1033.000,326.5023730316618,1047.5650519683381
834,1034.000,247.03363673440526,1048.4503232655948
835,1035.000,195.99224258608683,1049.3343524139132
836,1036.000,141.56922660928603,1050.217135390714
837,1037.000,111.65201582277746,1051.0986681772226
838,1038.000,83.91680524150934,1051.9789467584906
839,1039.000,73.70580287657708,1052.857967123423
840,1040.000,71.34847173519756,1053.7357252648023
841,1041.000,49.14854182068598,1054.612217179314
842,1042.000,48.143994132428816,1055.4874388675712
843,1043.000,40.29860866586114,1056.3613863341388
844,1044.000,31.934261412439128,1057.2340555875608
845,1045.000,26.69923935961765,1058.1054426403823
846,1046.000,29.934537490822322,1058.9755435091777
847,1047.000,17.610011785426423,1059.8443542145735
848,1048.000,10.09033421872573,1060.7118707812742
849,1049.000,28.947466761912438,1061.5780892380876
850,1050.000,20.372840382050526,1062.4430056179494
851,1051.000,27.3494670420514,1063.3066159579487
852,1052.000,15.082575700647112,1064.168916299353
853,1053.000,13.756758312365946,1065.0299026876341
854,1054.000,17.64772982750833,1065.8895711724917
855,1055.000,16.511799192119952,1066.74791780788
856,1056.000,17.609748347967525,1067.6049386520324
857,1057.000,9.425817232513054,1068.460629767487
858,1058.000,8.89430677888845,1069.3149872211116
859,1059.000,4.842524915871309,1070.1680070841287
860,1060.000,10.293565567858195,1071.0196854321418
861,1061.000,14.231169654840869,1071.8700183451592
862,1062.000,6.5042070923793744,1072.7190019076206
863,1063.000,0.8665667915781796,1073.5666322084219
864,1064.000,22.53063065905917,1074.4129053409408
865,1065.000,3.981088596938207,1075.2578174030618
866,1066.000,16.924023502798036,1076.101364497202
867,1067.000,11.12102326966442,1076.9435427303356
868,1068.000,0.0,1077.7843482140213
869,1069.000,4.3267309355746875,1078.6237770644252
870,1070.000,14.749726597651943,1079.461825402348
871,1071.000,18.02928664675028,1080.2984893532498
872,1072.000,4.096135952723671,1081.1337650472763
873,1073.000,0.0,1081.9676486192827
874,1074.000,7.118613791138614,1082.8001362088614
875,1075.000,9.41255203963442,1083.6312239603656
876,1076.000,6.267988977064078,1084.4609080229359
877,1077.000,0.0,1085.2891845505253
878,1078.000,1.0936782980743374,1086.1160497019257
879,1079.000,13.971657359207484,1086.9414996407925
880,1080.000,2.7975564643295456,1087.7655305356705
881,1081.000,4.704874439980358,1088.5881385600196
882,1082.000,3.156478107759085,1089.409319892241
883,1083.000,0.0,1090.2290707157015
884,1084.000,12.797019781239442,1091.0473872187606
885,1085.000,3.309608405204699,1091.8642655947954
886,1086.000,9.918681957773288,1092.6797020422266
887,1087.000,0.9883322354560278,1093.493692764544
888,1088.000,5.851870029667225,1094.3062339703329
889,1089.000,4.629850126701967,1095.1173218732981
890,1090.000,14.267986307707815,1095.9269526922922
891,1091.000,2.2399603486605884,1096.7351226513395
892,1092.000,13.70291202033718,1097.541827979663
893,1093.000,1.487150088291628,1098.3470649117085
894,1094.000,8.492166312827294,1099.1508296871727
895,1095.000,1.3426474489722295,1099.9531185510277
896,1096.000,7.758660246453246,1100.7539277535468
897,1097.000,5.251174449668724,1101.5532535503312
898,1098.000,4.072901797665736,1102.3510922023343
899,1099.000,13.813647024109287,1103.1474399758906
900,1100.000,12.334492857261921,1103.942293142738
901,1101.000,7.243931019953607,1104.7356479800465
902,1102.000,0.0,1105.527500770443
903,1103.000,4.343298197962213,1106.3178478020377
904,1104.000,0.0,1107.1066853684497
905,1105.000,6.52136323116747,1107.8940097688326
906,1106.000,0.0,1108.6798173079026
907,1107.000,8.52229370403802,1109.464104295962
908,1108.000,11.557982951073427,1110.2468670489266
909,1109.000,5.501187111648278,1111.0281018883518
910,1110.000,0.0,1111.8078051414584
911,1111.000,8.366031858841097,1112.585973141159
912,1112.000,11.17449977391675,1113.3626022260833
913,1113.000,13.290050259394548,1114.1376887406054
914,1114.000,5.943794965130564,1114.9112290348694
915,1115.000,10.737155535184229,1115.6832194648157
916,1116.000,0.0,1116.4536563922068
917,1117.000,9.575736815345635,1117.2225361846545
918,1118.000,0.0,1117.9898552156444
919,1119.000,11.160836135435375,1118.7556098645646
920,1120.000,12.413410483270582,1119.5197965167295
921,1121.000,0.0,1120.2824115634078
922,1122.000,9.847936598152046,1121.043451401848
923,1123.000,11.958325564695315,1121.8029124353047
924,1124.000,19.359626926934197,1122.5607910730657
925,1125.000,22.222045269522823,1123.3170837304772
926,1126.000,5.019813171028773,1124.0717868289712
927,1127.000,17.749026203909125,1124.8248967960908
928,1128.000,0.38798893448210947,1125.5764100655178
929,1129.000,0.0,1126.3263230770986
930,1130.000,4.012079723129773,1127.0746322768703
931,1131.000,10.333394882913126,1127.821334117087
932,1132.000,16.167102943752525,1128.5664250562475
933,1133.000,9.916419440879736,1129.3099015591204
934,1134.000,13.148095903228295,1130.0517600967717
935,1135.000,10.838636853410208,1130.79199714659
936,1136.000,19.508533807685808,1131.5306091923142
937,1137.000,7.5320672759405625,1132.2675927240593
938,1138.000,21.14926976165566,1133.0029442383443
939,1139.000,19.5124007618831,1133.7366602381169
940,1140.000,22.40051576721953,1134.4687372327805
941,1141.000,18.221008261777797,1135.1991717382223
942,1142.000,31.589451723161346,1135.9279602768386
943,1143.000,25.063407622438945,1136.655099377561
944,1144.000,17.663565424114722,1137.3805855758853
945,1145.000,26.397062586104767,1138.1044154138951
946,1146.000,41.58984755970937,1138.8265854402907
947,1147.000,44.686078789584826,1139.5470922104153
948,1148.000,53.10616171371862,1140.2659322862814
949,1149.000,65.30015476340168,1140.9831022365984
950,1150.000,79.67365036320302,1141.698598636797
951,1151.000,91.1080799309409,1142.4124180690592
952,1152.000,109.00802087765669,1143.1245571223433
953,1153.000,123.17414360758971,1143.8350123924104
954,1154.000,130.295572518148,1144.543780481852
955,1155.000,138.15479899988304,1145.250858000117
956,1156.000,137.01664443646246,1145.9562415635376
957,1157.000,122.71685420464314,1146.659927795357
958,1158.000,115.81683867424408,1147.361913325756
959,1159.000,80.5309022081201,1148.0621947918798
960,1160.000,74.66425816213496,1148.760768837865
961,1161.000,69.67121288513295,1149.457632114867
962,1162.000,52.56866071891386,1150.1527812810862
963,1163.000,49.08057199820496,1150.8462130017951
964,1164.000,43.0480100506345,1151.5379239493654
965,1165.000,32.91090919670364,1152.2279108032963
966,1166.000,35.983858749761566,1152.9161702502383
967,1167.000,35.14771401597591,1153.602698984024
968,1168.000,16.841194294307797,1154.2874937056922
969,1169.000,30.51307987648329,1154.9705511235168
970,1170.000,48.627876046967,1155.651867953033
971,1171.000,36.38983108293564,1156.3314409170644
972,1172.000,26.75265225424937,1157.0092667457507
973,1173.000,25.644714823425602,1157.6853421765743
974,1174.000,51.20534204561227,1158.3596639543878
975,1175.000,37.596826168559346,1159.0322288314408
976,1176.000,46.67145143259313,1159.703033567407
977,1177.000,46.6189500705882,1160.3720749294118
978,1178.000,63.68440530793987,1161.0393496920601
979,1179.000,85.79106436253824,1161.7048546374617
980,1180.000,92.44473844473964,1162.3685865552604
981,1181.000,103.93247075733984,1163.0305422426602
982,1182.000,120.00821649554746,1163.6907185044524
983,1183.000,135.89951184695542,1164.3491121530446
984,1184.000,123.76304299151434,1165.0057200084857
985,1185.000,101.83757310150509,1165.660538898495
986,1186.000,84.10410634151253,1166.3135656584875
987,1187.000,66.24366786839505,1166.9647971316049
988,1188.000,67.98927183126102,1167.614230168739
989,1189.000,49.34453837143906,1168.2618616285608
990,1190.000,33.03720862245132,1168.9076883775488
991,1191.000,31.576719709985355,1169.5517072900147
992,1192.000,25.969284751867463,1170.1939152481325
993,1193.000,22.546982858036245,1170.8343091419638
994,1194.000,27.631013130511747,1171.4728858694882
995,1195.000,7.586285663372337,1172.1096423366278
996,1196.000,15.98465854272331,1172.7445754572766
997,1197.000,12.280530846671809,1173.3776821533281
998,1198.000,15.008380645299212,1174.008959354701
999,1199.000,12.761881000630638,1174.6384039993693
1000,1200.000,16.533419966612655,1175.2660130333873
1001,1201.000,13.63927258908052,1175.8917834109195
1002,1202.000,11.671625905732753,1176.5157120942672
1003,1203.000,10.805447946105005,1177.137796053895
1004,1204.000,17.755408731539774,1177.7580322684603
1005,1205.000,10.406193275159467,1178.3764177248406
1006,1206.000,16.24749958184043,1178.9929494181595
1007,1207.000,2.806611648183207,1179.6076243518169
1008,1208.000,0.3662644624855602,1180.2204395375145
1009,1209.000,3.8619570047148954,1180.831391995285
1010,1210.000,10.210720246480832,1181.440478753519
1011,1211.000,13.613663151006676,1182.0476968489934
1012,1212.000,0.0,1182.6530433268983
1013,1213.000,0.0,1183.2565152408658
1014,1214.000,10.323380347002967,1183.858109652997
1015,1215.000,5.960662366110455,1184.4578236338896
1016,1216.000,0.0,1185.0556542626673
1017,1217.000,1.3739693729939972,1185.651598627006
1018,1218.000,9.506395176837486,1186.2456538231625
1019,1219.000,2.763619043998233,1186.8378169560017
1020,1220.000,0.04897386097513845,1187.428085139025
1021,1221.000,0.0,1188.0164554943985
1022,1222.000,0.0,1188.6029251529808
1023,1223.000,0.0,1189.1874912543494
1024,1224.000,7.192960053168235,1189.7701509468318
1025,1225.000,0.0,1190.3509013875305
1026,1226.000,8.110973257647629,1190.9297397423525
1027,1227.000,0.0,1191.5066631860366
1028,1228.000,3.1488220978176287,1192.0816689021824
1029,1229.000,0.0,1192.6547540832773
1030,1230.000,11.245415069274259,1193.2259159307257
1031,1231.000,4.890487345124939,1193.795151654875
1032,1232.000,14.522985524953356,1194.3624584750467
1033,1233.000,5.438081380438462,1194.9278336195616
1034,1234.000,3.5672546742296163,1195.4912743257703
1035,1235.000,0.0,1196.0527778400792
1036,1236.000,0.5215335820194014,1196.6123414179806
1037,1237.000,0.0,1197.1699623240795
1038,1238.000,9.707242167877894,1197.7256378321222
1039,1239.000,10.94481077497494,1198.279365225025
1040,1240.000,4.067809205097774,1198.8311417949021
1041,1241.000,0.0,1199.3809648430931
1042,1242.000,8.707690319807625,1199.9288316801924
1043,1243.000,16.359819373922846,1200.474739626077
1044,1244.000,12.455842990065776,1201.0186860099343
1045,1245.000,1.9651278297078534,1201.560668170292
1046,1246.000,0.05607254495612324,1202.100683455044
1047,1247.000,0.0,1202.6387292214806
1048,1248.000,1.1855111636834863,1203.1748028363165
1049,1249.000,6.486297324281168,1203.7089016757188
1050,1250.000,8.536386874664458,1204.2410231253355
1051,1251.000,4.192561419676167,1204.7711645803238
1052,1252.000,4.072502554620769,1205.2993234453793
1053,1253.000,11.121512865237037,1205.825497134763
1054,1254.000,3.0927129276683445,1206.3496830723316
1055,1255.000,0.0,1206.8718786915636
1056,1256.000,0.0,1207.3920814355902
1057,1257.000,4.597328242777621,1207.9102887572224
1058,1258.000,2.230721881020372,1208.4264981189797
1059,1259.000,0.0,1208.9407069931192
1060,1260.000,0.0,1209.4529128616632
1061,1261.000,0.0,1209.9631132164286
1062,1262.000,0.0,1210.4713055590553
1063,1263.000,6.965381598965905,1210.977487401034
1064,1264.000,11.350057736263125,1211.4816562637368
1065,1265.000,0.0,1211.9838096784433
1066,1266.000,8.42460881362922,1212.4839451863709
1067,1267.000,11.031533661296862,1212.9820603387031
1068,1268.000,0.0,1213.4781526966183
1069,1269.000,0.0,1213.9722198313177
1070,1270.000,11.477026675944217,1214.4642593240558
1071,1271.000,0.0,1214.9542687661663
1072,1272.000,0.02955624090600395,1215.442245759094
1073,1273.000,0.0,1215.9281879144216
1074,1274.000,0.0,1216.4120928538985
1075,1275.000,7.999307790529201,1216.8939582094708
1076,1276.000,0.0,1217.373781623309
1077,1277.000,0.0,1217.8515607478369
1078,1278.000,6.776220754238921,1218.327293245761
1079,1279.000,4.622956209900622,1218.8009767900994
1080,1280.000,0.0,1219.2726090642097
1081,1281.000,1.3113842381803806,1219.7421877618197
1082,1282.000,1.4917324129462486,1220.2097105870537
1083,1283.000,0.0,1220.675175254464
1084,1284.000,0.0,1221.1385794890582
1085,1285.000,0.0,1221.599921026329
1086,1286.000,13.635984387717144,1222.0591976122828
1087,1287.000,0.0,1222.5164070034689
1088,1288.000,0.08990003299209093,1222.971546967008
1089,1289.000,0.0,1223.4246152806218
1090,1290.000,0.0,1223.875609732662
1091,1291.000,0.0,1224.324528122139
1092,1292.000,16.679987741248624,1224.7713682587514
1093,1293.000,0.5457040370854429,1225.2161279629145
1094,1294.000,0.0,1225.6588050657901
1095,1295.000,0.0,1226.099397409315
1096,1296.000,3.2952701537690245,1226.537902846231
1097,1297.000,0.0,1226.9743192401127
1098,1298.000,10.283674534602369,1227.4086444653976
1099,1299.000,4.829990592583954,1227.840876407416
1100,1300.000,11.182912037581445,1228.2710129624186
1101,1301.000,0.0,1228.699052037606
1102,1302.000,0.0,1229.1249915511594
1103,1303.000,7.720063567731586,1229.5488294322683
1104,1304.000,0.0,1229.9705636211606
1105,1305.000,9.373505930868305,1230.3901920691317
1106,1306.000,0.0,1230.8077127385727
1107,1307.000,0.0,1231.223123603002
1108,1308.000,0.0,1231.6364226470926
1109,1309.000,0.0,1232.047607866703
1110,1310.000,0.0,1232.4566772689045
1111,1311.000,2.532217127986769,1232.8636288720131
1112,1312.000,0.0,1233.2684607056167
1113,1313.000,0.0,1233.6711708106066
1114,1314.000,0.0,1234.071757239204
1115,1315.000,3.9759029450062826,1234.4702180549937
1116,1316.000,7.9510646670512415,1234.8665513329488
1117,1317.000,8.526948840536079,1235.260755159464
1118,1318.000,0.0,1235.652827632383
1119,1319.000,1.5535431389712357,1236.0427668610287
1120,1320.000,0.0,1236.4305709662324
1121,1321.000,0.6967849196360021,1236.816238080364
1122,1322.000,8.182995652638738,1237.1997663473612
1123,1323.000,0.8673390772416951,1237.5811539227584
1124,1324.000,0.0,1237.9603989737175
1125,1325.000,5.282337320943043,1238.337499679057
1126,1326.000,4.759459770719104,1238.7124542292809
1127,1327.000,7.112358173390703,1239.0852608266093
1128,1328.000,0.0,1239.455917685009
1129,1329.000,2.6908849697806545,1239.8244230302194
1130,1330.000,12.44653990021311,1240.1907750997868
1131,1331.000,4.347798856908412,1240.5549721430916
1132,1332.000,12.992257578622002,1240.917012421378
1133,1333.000,0.0,1241.2768942077848
1134,1334.000,0.0,1241.6346157873743
1135,1335.000,9.10404454283821,1241.9901754571617
1136,1336.000,0.0,1242.3435715261464
1137,1337.000,0.9124296846589459,1242.6948023153411
1138,1338.000,0.0,1243.0438661578007
1139,1339.000,8.722192601346705,1243.3907613986532
1140,1340.000,0.0,1243.7354863951298
1141,1341.000,3.5530104834067515,1244.0780395165932
1142,1342.000,0.0,1244.4184191445697
1143,1343.000,0.0,1244.7566236727766
1144,1344.000,5.141348492845054,1245.0926515071549
1145,1345.000,16.690763934103416,1245.4265010658967
1146,1346.000,8.930601220523613,1245.7581707794764
1147,1347.000,1.2708239093187785,1246.0876590906812
1148,1348.000,5.314470545360791,1246.4149644546392
1149,1349.000,7.944993661147919,1246.7400853388522
1150,1350.000,3.3242517767773734,1247.0630202232226
1151,1351.000,0.0,1247.3837676000862
1152,1352.000,14.286306025760268,1247.7023259742398
1153,1353.000,15.997895137026717,1248.0186938629734
1154,1354.000,0.0,1248.332869796099
1155,1355.000,7.925055684018616,1248.6448523159813
1156,1356.000,7.916167022432774,1248.9546399775672
1157,1357.000,7.92797365158367,1249.2622313484164
1158,1358.000,7.556074991268133,1249.567625008732
1159,1359.000,0.0,1249.8708195513893
1160,1360.000,7.072762418032653,1250.1718135819674
1161,1361.000,6.004957281220868,1250.470605718779
1162,1362.000,0.0,1250.7671945928996
1163,1363.000,0.0,1251.0615788481991
1164,1364.000,11.468657858628603,1251.3537571413715
1165,1365.000,0.0,1251.6437281419653
1166,1366.000,0.0,1251.9314905324134
1167,1367.000,0.0,1252.2170430080632
1168,1368.000,1.701739722791217,1252.5003842772087
1169,1369.000,0.0,1252.7815130611182
1170,1370.000,0.0,1253.0604280940668
1171,1371.000,0.0,1253.3371281233647
1172,1372.000,5.367809090609626,1253.6116119093904
1173,1373.000,16.281591774381695,1253.8838782256182
1174,1374.000,7.723567141349122,1254.1539258586508
1175,1375.000,6.31252939175215,1254.4217536082479
1176,1376.000,6.7404137126420665,1254.687360287358
1177,1377.000,1.804304277851088,1254.950744722149
1178,1378.000,8.308124247963178,1255.2119057520367
1179,1379.000,0.0,1255.470842229718
1180,1380.000,6.4420019788001355,1255.7275530211998
1181,1381.000,2.60282899417075,1255.9820370058292
1182,1382.000,11.506153923674901,1256.234293076325
1183,1383.000,0.0,1256.4843201388085
1184,1384.000,3.777538887167566,1256.7321171128324
1185,1385.000,12.223809068586434,1256.9776829314135
1186,1386.000,0.7306434589384025,1257.2210165410615
1187,1387.000,0.0,1257.4621169018114
1188,1388.000,1.3434780127481645,1257.7009829872518
1189,1389.000,7.566407215442041,1257.937613784558
1190,1390.000,15.020331705479293,1258.1720082945208
1191,1391.000,0.0,1258.4041655315787
1192,1392.000,0.0,1258.6340845238478
1193,1393.000,4.9636726868479855,1258.861764313152
1194,1394.000,0.0,1259.0872039550545
1195,1395.000,10.716215481111249,1259.3104025188888
1196,1396.000,0.7276699122110131,1259.531359087789
1197,1397.000,0.0,1259.7500727587203
1198,1398.000,0.6120733574900896,1259.96654264251
1199,1399.000,2.2627461361209953,1260.180767863879
1200,1400.000,2.8400054385281237,1260.3927475614719
1201,1401.000,2.3175521121120255,1260.602480887888
1202,1402.000,2.046017990287737,1260.8099670097122
1203,1403.000,6.654117892454224,1261.0152051075459
1204,1404.000,0.0,1261.218194376038
1205,1405.000,0.08153197608476148,1261.4189340239152
1206,1406.000,9.441024725985244,1261.6174232740148
1207,1407.000,8.374465636687319,1261.8136613633126
1208,1408.000,11.966977457043185,1262.0076475429569
1209,1409.000,4.5541299217027245,1262.1993810782972
1210,1410.000,7.141692751083156,1262.3888612489168
1211,1411.000,11.924981651337248,1262.5760873486627
1212,1412.000,6.597590314322133,1262.7610586856779
1213,1413.000,13.80689741756919,1262.9437745824307
1214,1414.000,12.274932624253097,1263.124234375747
1215,1415.000,0.0,1263.3024374168413
1216,1416.000,19.4231179286528,1263.4783830713473
1217,1417.000,4.241773280650477,1263.6520707193495
1218,1418.000,13.51175224458575,1263.8234997554143
1219,1419.000,17.090237411379576,1263.9926695886204
1220,1420.000,12.68838835740894,1264.159579642591
1221,1421.000,3.519301644475263,1264.3242293555247
1222,1422.000,11.72147881977412,1264.4866181802258
1223,1423.000,16.647689415863397,1264.6467455841366
1224,1424.000,15.452440950631399,1264.8046110493685
1225,1425.000,14.774577927267728,1264.9602140727322
1226,1426.000,24.502570834229118,1265.113554165771
1227,1427.000,17.312907145210602,1265.2646308547894
1228,1428.000,26.555467319112722,1265.4134436808872
1229,1429.000,28.196396800012053,1265.5599921999878
1230,1430.000,31.13922901712681,1265.7042759828732
1231,1431.000,27.610630384788692,1265.8462946152113
1232,1432.000,26.05283930240944,1265.9860476975905
1233,1433.000,28.74900815445085,1266.123534845549
1234,1434.000,27.366880310392162,1266.2587556896078
1235,1435.000,32.30697812469907,1266.3917098753009
1236,1436.000,33.60281393679293,1266.522397063207
1237,1437.000,37.16002507101848,1266.6508169289816
1238,1438.000,52.74678683661318,1266.7769691633869
1239,1439.000,69.56827552767413,1266.900853472326
1240,1440.000,71.21788242312914,1267.022469576871
1241,1441.000,82.5174557867033,1267.1418172132967
1242,1442.000,98.79873886688756,1267.2588961331123
1243,1443.000,113.11726489690818,1267.3737061030918
1244,1444.000,125.07628209469499,1267.486246905305
1245,1445.000,138.4980596628477,1267.5965183371522
1246,1446.000,169.7060347886079,1267.704520211392
1247,1447.000,174.1666996438248,1267.8102523561752
1248,1448.000,204.32104038492457,1267.9137146150754
1249,1449.000,213.25647715287823,1268.0149068471217
1250,1450.000,222.09012807317163,1268.1138289268283
1251,1451.000,205.23015825577045,1268.2104807442295
1252,1452.000,193.71709479509173,1268.3048622049082
1253,1453.000,184.41022276997182,1268.3969732300282
1254,1454.000,167.48085724363182,1268.4868137563683
1255,1455.000,146.04929126364914,1268.574383736351
1256,1456.000,134.23273286192398,1268.659683138076
1257,1457.000,115.03899305464915,1268.742711945351
1258,1458.000,93.19881684227562,1268.8234701577244
1259,1459.000,80.16932520948376,1268.9019577905162
1260,1460.000,70.17326512514865,1268.9781748748514
1261,1461.000,67.08013354231048,1269.0521214576895
1262,1462.000,50.13428639814197,1269.123797601858
1263,1463.000,47.306912613915756,1269.1932033860842
1264,1464.000,30.160229094974284,1269.2603389050257
1265,1465.000,44.446022730695404,1269.3252042693045
1266,1466.000,41.966785394463386,1269.3877996055367
1267,1467.000,27.908392943634226,1269.4481250563658
1268,1468.000,18.00290121950502,1269.506180780495
1269,1469.000,27.75246804728272,1269.5619669527173
1270,1470.000,36.92329323605077,1269.6154837639492
1271,1471.000,21.20591757873808,1269.6667314212618
1272,1472.000,17.483657852086253,1269.7157101479138
1273,1473.000,26.54759181661757,1269.7624201833823
1274,1474.000,8.904508216604654,1269.8068617833953
1275,1475.000,22.717667780035754,1269.8490352199642
1276,1476.000,24.17724421858452,1269.8889407814154
1277,1477.000,22.30338522757802,1269.926578772422
1278,1478.000,5.6141914859622375,1269.9619495140378
1279,1479.000,8.83910465627332,1269.9950533437266
1280,1480.000,16.57226438460316,1270.0258906153967
1281,1481.000,14.143242300568318,1270.0544616994316
1282,1482.000,19.339219017277173,1270.080766982723
1283,1483.000,8.74413713129752,1270.1048068687026
1284,1484.000,11.97372722262503,1270.126581777375
1285,1485.000,15.583776854651887,1270.1460921453481
1286,1486.000,5.907478574132256,1270.1633384258678
1287,1487.000,13.910581911151667,1270.1783210888484
1288,1488.000,3.0807893790940852,1270.1910406209058
1289,1489.000,12.628719474610762,1270.2014975253892
1290,1490.000,15.989381677586152,1270.209692322414
1291,1491.000,10.194376451106564,1270.2156255488935
1292,1492.000,8.746531241428102,1270.2192977585719
1293,1493.000,0.0,1270.220709522056
1294,1494.000,5.789649573151792,1270.2198614268482
1295,1495.000,3.838942922621527,1270.2167540773785
1296,1496.000,10.860265904963398,1270.2113880950367
1297,1497.000,0.0,1270.2037641182046
1298,1498.000,1.0995381977093075,1270.1938828022908
1299,1499.000,2.9845231802407852,1270.1817448197592
1300,1500.000,0.09961613983523421,1270.1673508601648
1301,1501.000,7.587694369816063,1270.150701630184
1302,1502.000,0.45833214635104014,1270.131797853649
1303,1503.000,0.0,1270.1106402715784
1304,1504.000,4.049958357788682,1270.0872296422112
1305,1505.000,10.905472258960799,1270.0615667410393
1306,1506.000,9.994132639161535,1270.0336523608385
1307,1507.000,1.9987586882973574,1270.0034873117027
1308,1508.000,5.778491578923877,1269.971072421076
1309,1509.000,5.660917466215096,1269.936408533785
1310,1510.000,13.404937487927555,1269.8994965120723
1311,1511.000,0.5559427643718209,1269.860337235628
1312,1512.000,8.256448398376733,1269.8189316016233
1313,1513.000,3.2667584752578023,1269.7752805247421
1314,1514.000,0.5349250627846232,1269.7293849372154
1315,1515.000,12.664769211147814,1269.6812457888523
1316,1516.000,8.237315952926565,1269.6308640470734
1317,1517.000,0.0,1269.5782406969438
1318,1518.000,11.640619258794004,1269.523376741206
1319,1519.000,7.935174799688639,1269.4662732003114
1320,1520.000,7.01314888754473,1269.4069311124554
1321,1521.000,3.8549324663931657,1269.3453515336068
1322,1522.000,4.898972462455276,1269.2815355375446
1323,1523.000,11.091602784111956,1269.215484215888
1324,1524.000,10.438439321869964,1269.14719867813
1325,1525.000,9.96633294832941,1269.0766800516706
1326,1526.000,12.90532951815021,1269.0039294818498
1327,1527.000,18.782688868020614,1268.9289481319795
1328,1528.000,0.0,1268.8517371833786
1329,1529.000,3.4061191645976123,1268.7722978354025
1330,1530.000,23.551036694520235,1268.6906313054797
1331,1531.000,0.25885717085816395,1268.606738829142
1332,1532.000,7.446275339940712,1268.5206216600593
1333,1533.000,0.0,1268.4322810700717
1334,1534.000,0.5589726507778323,1268.3417183492222
1335,1535.000,1.4704501942087518,1268.2489348057914
1336,1536.000,0.0,1268.1539317663287
1337,1537.000,0.0,1268.056710575686
1338,1538.000,10.955251402949443,1267.9572725970506
1339,1539.000,9.516447788020287,1267.8556192119797
1340,1540.000,4.101754179568161,1267.7517518204318
1341,1541.000,7.9589261592000184,1267.6456718407999
1342,1542.000,0.0,1267.5373807099459
1343,1543.000,3.2640171167674907,1267.4268798832325
1344,1544.000,1.1271381654421475,1267.314170834558
1345,1545.000,13.465401943612733,1267.1992550563873
1346,1546.000,8.225027940213067,1267.082134059787
1347,1547.000,18.730629625543088,1266.9628093744568
1348,1548.000,9.224548451234568,1266.8412825487653
1349,1549.000,9.925036850218476,1266.7175551497814
1350,1550.000,0.799552236692989,1266.591628763307
1351,1551.000,4.433426006087302,1266.4635049939127
1352,1552.000,11.803496535031172,1266.333185464969
1353,1553.000,0.0,1266.2006718186794
1354,1554.000,21.621479283882536,1266.0659657161175
1355,1555.000,12.310366162745368,1265.9290688372546
1356,1556.000,7.539262119002615,1265.7899828809973
1357,1557.000,7.137029434780061,1265.6487095652199
1358,1558.000,17.313370373203043,1265.5052506267969
1359,1559.000,22.59771617836236,1265.3596078216376
1360,1560.000,17.50709507528063,1265.2117829247193
1361,1561.000,20.037650269880942,1265.061777730119
1362,1562.000,19.889023948950125,1264.90959405105
1363,1563.000,17.10713128010684,1264.755233719893
1364,1564.000,20.561708411769587,1264.5986985882305
1365,1565.000,19.9418574731194,1264.4399905268806
1366,1566.000,21.59001357407101,1264.279111425929
1367,1567.000,32.951833805234855,1264.116063194765
1368,1568.000,21.364854237886448,1263.9508477621137
1369,1569.000,37.611734923931635,1263.7834670760683
1370,1570.000,24.985740895873505,1263.6139231041266
1371,1571.000,38.520997166777306,1263.4422178332227
1372,1572.000,54.68158973023992,1263.2683532697602
1373,1573.000,46.699411560351564,1263.0923314396484
1374,1574.000,56.96353461166768,1262.9141543883322
1375,1575.000,63.26463681916948,1262.7338241808304
1376,1576.000,92.79225509823573,1262.5513429017642
1377,1577.000,102.77143034460437,1262.3667126553955
1378,1578.000,105.25530543434184,1262.179935565658
1379,1579.000,140.81547122380812,1261.991013776192
1380,1580.000,158.83579554962216,1261.7999494503779
1381,1581.000,194.83418322863122,1261.6067447713688
1382,1582.000,219.21044005787257,1261.4114019421274
1383,1583.000,225.93240381454325,1261.2139231854567
1384,1584.000,219.78620925596442,1261.0143107440356
1385,1585.000,215.0575941195484,1260.8125668804516
1386,1586.000,170.69797912276476,1260.6086938772353
1387,1587.000,166.72446296310454,1260.4026940368954
1388,1588.000,138.39886031805077,1260.1945696819491
1389,1589.000,128.06672084503884,1259.9843231549612
1390,1590.000,141.19220018142664,1259.7719568185732
1391,1591.000,123.3670039444603,1259.5574730555397
1392,1592.000,129.5256947312373,1259.3408742687627
1393,1593.000,142.51202111867633,1259.1221628813237
1394,1594.000,163.34297066348063,1258.9013413365194
1395,1595.000,173.11085990210495,1258.678412097895
1396,1596.000,218.71458835072167,1258.4533776492783
1397,1597.000,262.28665250518543,1258.2262404948146
1398,1598.000,309.23241584100174,1257.9970031589983
1399,1599.000,416.4541018132895,1257.7656681867104
1400,1600.000,506.0343108567499,1257.53223814325
1401,1601.000,593.7481563856309,1257.296715614369
1402,1602.000,633.0431857936928,1257.059103206307
1403,1603.000,598.1239104541744,1256.8194035458257
1404,1604.000,499.65857271975983,1256.5776192802402
1405,1605.000,406.72731892254274,1256.3337530774572
1406,1606.000,314.0129863739933,1256.0878076260067
1407,1607.000,257.87359536492363,1255.8397856350764
1408,1608.000,204.34592516545308,1255.589689834547
1409,1609.000,163.1661860249742,1255.3375229750259
1410,1610.000,126.90642417212052,1255.0832878278795
1411,1611.000,101.9986128147275,1254.8269871852724
1412,1612.000,87.70079313980341,1254.5686238601966
1413,1613.000,88.16162631349266,1254.3082006865072
1414,1614.000,67.36085448104063,1254.0457205189593
1415,1615.000,48.168405766760316,1253.7811862332396
1416,1616.000,48.35254127399912,1253.514600726001
1417,1617.000,45.99942108510231,1253.2459669148977
1418,1618.000,46.1498682613792,1252.9752877386209
1419,1619.000,38.48228084307061,1252.7025661569294
1420,1620.000,31.340361849312558,1252.4278051506874
1421,1621.000,40.61929227810106,1252.1510077218988
1422,1622.000,29.729695106260124,1251.8721768937398
1423,1623.000,25.68699628940567,1251.5913157105942
1424,1624.000,20.95985476191163,1251.3084272380884
1425,1625.000,21.770124436873857,1251.0235145631261
1426,1626.000,14.471222206079347,1250.7365807939207
1427,1627.000,8.911274939967143,1250.4476290600328
1428,1628.000,25.515884487596395,1250.1566625124035
1429,1629.000,22.548070676612724,1249.8636843233874
1430,1630.000,17.020768313210283,1249.5686976867896
1431,1631.000,15.063831182101012,1249.271705817899
1432,1632.000,17.140254046475548,1248.9727119535244
1433,1633.000,24.950749647973907,1248.671719352026
1434,1634.000,0.0,1248.3687312933534
1435,1635.000,6.893248920921678,1248.0637510790784
1436,1636.000,9.36521096756951,1247.7567820324305
1437,1637.000,19.55303950166922,1247.4478274983308
1438,1638.000,9.471829156572085,1247.1368908434279
1439,1639.000,4.665997543868343,1246.8239754561316
1440,1640.000,2.526453253352429,1246.5090847466477
1441,1641.000,9.640846852986442,1246.1922221470136
1442,1642.000,1.1021548888681991,1245.8733911111317
1443,1643.000,1.2048388851933396,1245.5525951148068
1444,1644.000,1.4825963442233387,1245.2298376557767
1445,1645.000,16.647755746248322,1244.9051222537516
1446,1646.000,15.487072549553886,1244.578452450446
1447,1647.000,7.505514190384929,1244.249831809615
1448,1648.000,13.784777082913024,1243.919263917087
1449,1649.000,9.389511619198402,1243.5867523808015
1450,1650.000,4.133442169156524,1243.2523008308435
1451,1651.000,6.891663080524495,1242.9159129194754
1452,1652.000,8.357305678823195,1242.5775923211768
1453,1653.000,15.601714267325633,1242.2373427326743
1454,1654.000,0.0,1241.8951678729807
1455,1655.000,2.9040655165722455,1241.5510714834277
1456,1656.000,4.473989672298103,1241.205057327702
1457,1657.000,10.275688808120776,1240.8571291918793
1458,1658.000,10.882952115539865,1240.5072908844602
1459,1659.000,4.979548763594494,1240.1555462364056
1460,1660.000,1.6895318988297277,1239.8018991011702
1461,1661.000,0.0,1239.4463533547384
1462,1662.000,0.0,1239.0889128956612
1463,1663.000,0.0,1238.7295816450878
1464,1664.000,0.5755494531967997,1238.3683635468033
1465,1665.000,5.994043432736362,1238.0052625672636
1466,1666.000,7.201700304370661,1237.6402826956294
1467,1667.000,10.981068056196364,1237.2734279438037
1468,1668.000,19.6390566535365,1236.9047023464634
1469,1669.000,6.4833930389020225,1236.534109961098
1470,1670.000,4.255982131956898,1236.1616548680431
1471,1671.000,8.503228829483987,1235.787341170516
1472,1672.000,2.6633480053494623,1235.4111729946505
1473,1673.000,0.0,1235.0331544895332
1474,1674.000,2.0810541727610143,1234.653289827239
1475,1675.000,7.571186797136306,1234.2715832028637
1476,1676.000,0.0,1233.888038834563
1477,1677.000,0.0,1233.5026609635854
1478,1678.000,0.0,1233.1154538543092
1479,1679.000,0.8539032057237819,1232.7264217942761
1480,1680.000,6.95550790577272,1232.3355690942274
1481,1681.000,0.0,1231.942900088141
1482,1682.000,2.5289868667364317,1231.5484191332637
1483,1683.000,9.576130389850505,1231.1521306101495
1484,1684.000,0.0,1230.754038922693
1485,1685.000,2.296066501832229,1230.3541484981677
1486,1686.000,8.014272212743435,1229.9524637872566
1487,1687.000,1.4196227359059321,1229.548989264094
1488,1688.000,0.20267457370437114,1229.1437294262955
1489,1689.000,1.6909832050034765,1228.7366887949966
1490,1690.000,0.0,1228.3278719148875
1491,1691.000,2.842765645751342,1227.9172833542486
1492,1692.000,0.0,1227.5049277049857
1493,1693.000,7.435904417333177,1227.090809582667
1494,1694.000,3.156325373442769,1226.6749336265573
1495,1695.000,9.011472500345462,1226.2573044996545
1496,1696.000,3.1154731112756053,1225.8379268887245
1497,1697.000,0.0,1225.4168055043383
1498,1698.000,4.47992291909577,1224.9939450809043
1499,1699.000,0.0,1224.5693503767095
1500,1700.000,7.967110826050202,1224.1430261739497
1501,1701.000,0.0,1223.71497727877
1502,1702.000,3.2220064787043157,1223.2852085212958
1503,1703.000,3.8397992443269686,1222.853724755673
1504,1704.000,9.609769139898845,1222.420530860101
1505,1705.000,0.0,1221.9856317368703
1506,1706.000,4.5908016876048805,1221.5490323123952
1507,1707.000,9.377268462746542,1221.1107375372535
1508,1708.000,6.2465316137788705,1220.6707523862212
1509,1709.000,0.9523821416930787,1220.229081858307
1510,1710.000,1.8098730232118214,1219.7857309767883
1511,1711.000,9.71378921075052,1219.3407047892495
1512,1712.000,13.481882632384213,1218.8940083676157
1513,1713.000,4.329460191810995,1218.445646808189
1514,1714.000,3.738353768315619,1217.9956252316845
1515,1715.000,2.225257216732871,1217.543948783267
1516,1716.000,1.1689103674134458,1217.0906226325865
1517,1717.000,7.389725026186397,1216.6356519738135
1518,1718.000,4.741142974323111,1216.1790420256768
1519,1719.000,0.0,1215.7207980314975
1520,1720.000,4.28665974077353,1215.2609252592265
1521,1721.000,0.0,1214.79942900148
1522,1722.000,2.865526424424843,1214.3363145755752
1523,1723.000,2.5936856764324148,1213.8715873235676
1524,1724.000,11.969673387714238,1213.4052526122857
1525,1725.000,1.8633731666307085,1212.9373158333692
1526,1726.000,7.848247596698229,1212.4677824033017
1527,1727.000,0.0,1211.996657763451
1528,1728.000,4.472211619898644,1211.5239473801014
1529,1729.000,0.751075255506521,1211.0496567444934
1530,1730.000,0.0,1210.573791372858
1531,1731.000,4.680248193548778,1210.0963568064512
1532,1732.000,3.8102333884048676,1209.6173586115951
1533,1733.000,0.0,1209.1368023797097
1534,1734.000,0.0,1208.6546937273517
1535,1735.000,15.38597870375088,1208.1710382962492
1536,1736.000,0.0,1207.6858417533385
1537,1737.000,9.55923320919851,1207.1991097908015
1538,1738.000,8.816721873899041,1206.710848126101
1539,1739.000,0.0,1206.2210625020168
1540,1740.000,0.0,1205.7297586866837
1541,1741.000,3.3918495263744717,1205.2369424736255
1542,1742.000,0.0,1204.742619681793
1543,1743.000,1.6990268443992136,1204.2467961556008
1544,1744.000,6.863890235037843,1203.7494777649622
1545,1745.000,0.0,1203.2506704053276
1546,1746.000,0.0,1202.750379997719
1547,1747.000,0.0,1202.2486124887678
1548,1748.000,0.0,1201.7453738507504
1549,1749.000,7.122795918373413,1201.2406700816266
1550,1750.000,2.492344794927021,1200.734507205073
1551,1751.000,3.4277337294770405,1200.2268912705229
1552,1752.000,9.151414646799822,1199.7178283532003
1553,1753.000,4.079617445841222,1199.2073245541587
1554,1754.000,0.942325999684499,1198.6953860003155
1555,1755.000,5.180678155509895,1198.1820188444901
1556,1756.000,6.084798734560536,1197.6672292654396
1557,1757.000,10.948258532102955,1197.151023467897
1558,1758.000,8.739624317393918,1196.633407682606
1559,1759.000,0.0,1196.1143881663602
1560,1760.000,13.725279797964504,1195.5939712020354
1561,1761.000,11.642984901368663,1195.0721630986313
1562,1762.000,11.517057808694972,1194.548970191305
1563,1763.000,0.0,1194.0243988414097
1564,1764.000,0.0,1193.4984554365296
1565,1765.000,5.145836609481648,1192.9711463905182
1566,1766.000,6.196616856464743,1192.4424781435353
1567,1767.000,5.543897837919076,1191.912457162081
1568,1768.000,3.6802840609632312,1191.3810899390367
1569,1769.000,0.0,1190.8483829936981
1570,1770.000,5.909969128183093,1190.314342871817
1571,1771.000,0.0,1189.7789761456313
1572,1772.000,1.1362555860921475,1189.2422894139079
1573,1773.000,0.0,1188.7042893019757
1574,1774.000,3.877223538232556,1188.1649824617675
1575,1775.000,0.0,1187.6243755718504
1576,1776.000,0.0,1187.0824753374673
1577,1777.000,11.2893305094276,1186.5392884905723
1578,1778.000,8.666389210131456,1185.9948217898686
1579,1779.000,10.05323397915572,1185.4490820208443
1580,1780.000,3.337748004189052,1184.902075995811
1581,1781.000,0.0,1184.3538105539396
1582,1782.000,8.478876438703537,1183.8042925612965
1583,1783.000,15.502868089116191,1183.253528910884
1584,1784.000,3.3763094773264584,1182.7015265226735
1585,1785.000,10.75194765635456,1182.1482923436454
1586,1786.000,6.813433652174808,1181.5938333478252
1587,1787.000,0.0,1181.0381565363205
1588,1788.000,15.749136062641128,1180.481268937359
1589,1789.000,0.0,1179.9231776063232
1590,1790.000,0.5967453742077851,1179.3638896257921
1591,1791.000,10.573088894426292,1178.8034121055737
1592,1792.000,0.0,1178.2417521827451
1593,1793.000,9.400086978310355,1177.6789170216896
1594,1794.000,2.2340321858687275,1177.1149138141313
1595,1795.000,10.784307220823166,1176.5497497791769
1596,1796.000,0.0,1175.9834321633489
1597,1797.000,2.335955759374656,1175.4159682406253
1598,1798.000,6.3530046875248445,1174.8473653124752
1599,1799.000,0.0,1174.2776307078984
1600,1800.000,11.7822252165397,1173.7067717834602
1601,1801.000,4.340524076669226,1173.1347959233308
1602,1802.000,1.040980460678611,1172.5617105393214
1603,1803.000,0.0,1171.9875230709235
1604,1804.000,5.481838014657114,1171.4122409853428
1605,1805.000,6.970358222459936,1170.83587177754
1606,1806.000,14.981996029732045,1170.258422970268
1607,1807.000,15.366278885893053,1169.6799021141069
1608,1808.000,16.46780521249707,1169.1003167875028
1609,1809.000,14.060190403192337,1168.5196745968076
1610,1810.000,7.283737823687488,1167.9379831763124
1611,1811.000,6.7597278117116275,1167.3552501882884
1612,1812.000,14.13035167697717,1166.7714833230227
1613,1813.000,13.08539370114363,1166.1866902988563
1614,1814.000,0.0,1165.6008788622219
1615,1815.000,7.003341212319128,1165.0140567876808
1616,1816.000,9.453298122037722,1164.4262318779622
1617,1817.000,6.2321550360011315,1163.8374119639989
1618,1818.000,10.624763095033586,1163.2476049049665
1619,1819.000,10.631423411681908,1162.6568185883182
1620,1820.000,5.0430330701724415,1162.0650609298275
1621,1821.000,12.35496712637837,1161.4723398736216
1622,1822.000,4.431606607779031,1160.878663392221
1623,1823.000,0.0,1160.2840394865764
1624,1824.000,9.060029813893834,1159.688476186106
1625,1825.000,3.555943451263829,1159.0919815487362
1626,1826.000,10.97405933906407,1158.494563660936
1627,1827.000,6.801364362243476,1157.8962306377566
1628,1828.000,11.14071137713222,1157.2969906228677
1629,1829.000,2.4519702114023403,1156.6968517885978
1630,1830.000,11.933148664030114,1156.0958223359698
1631,1831.000,17.85747850526036,1155.4939104947396
1632,1832.000,8.849699476565547,1154.8911245234344
1633,1833.000,8.536605290609714,1154.2874727093904
1634,1834.000,0.0,1153.6829633687905
1635,1835.000,19.125367153298157,1153.077604846702
1636,1836.000,4.308592482884478,1152.4714055171155
1637,1837.000,11.801544217018545,1151.8643737829814
1638,1838.000,10.43835592375035,1151.2565180762497
1639,1839.000,12.385576142094123,1150.647846857906
1640,1840.000,12.588174381989575,1150.0383686180105
1641,1841.000,7.2316521242617,1149.4280918757383
1642,1842.000,1.1330468205881061,1148.817025179412
1643,1843.000,9.090872893454844,1148.205177106545
1644,1844.000,8.261711736122606,1147.5925562638774
1645,1845.000,6.123598712586045,1146.979171287414
1646,1846.000,4.756528157538241,1146.3650308424617
1647,1847.000,0.0,1145.7501436236705
1648,1848.000,14.783802644930574,1145.1345183550695
1649,1849.000,0.0,1144.5181637901026
1650,1850.000,8.363976288327422,1143.9010887116726
1651,1851.000,12.300723067825174,1143.283301932175
1652,1852.000,11.393340706461913,1142.664812293538
1653,1853.000,0.524184332742152,1142.045628667258
1654,1854.000,10.532558045557835,1141.4257599544421
1655,1855.000,3.4309079141560233,1140.8052150858439
1656,1856.000,12.755177978097663,1140.1840030219023
1657,1857.000,6.300945247221989,1139.562132752778
1658,1858.000,5.969298701604885,1138.9396132983952
1659,1859.000,1.9667792915226983,1138.3164537084774
1660,1860.000,3.044237937413527,1137.6926630625865
1661,1861.000,2.271380529839007,1137.068250470161
1662,1862.000,17.003931929445116,1136.443225070555
1663,1863.000,9.530791966924198,1135.817596033076
1664,1864.000,3.692840442977513,1135.1913725570225
1665,1865.000,12.677871128275001,1134.5645638717249
1666,1866.000,3.822696763419117,1133.937179236581
1667,1867.000,10.449889058904091,1133.309227941096
1668,1868.000,13.086362695078606,1132.6807193049215
1669,1869.000,7.231261322107457,1132.0516626778926
1670,1870.000,10.951977559931493,1131.4220674400685
1671,1871.000,11.05025399823262,1130.7919430017673
1672,1872.000,2.870647196391701,1130.1612988036084
1673,1873.000,12.515103683450661,1129.5301443165492
1674,1874.000,1.0729499580763786,1128.8984890419235
1675,1875.000,3.893076488517636,1128.2663425114824
1676,1876.000,10.09947371257158,1127.6337142874283
1677,1877.000,10.432262037541932,1127.0006139624581
1678,1878.000,10.726578840200546,1126.3670511597995
1679,1879.000,8.914966466748865,1125.733035533251
1680,1880.000,0.0,1125.0985767672175
1681,1881.000,14.503943423246028,1124.463684576754
1682,1882.000,1.3271642924005391,1123.8283687075996
1683,1883.000,0.05579606378114477,1123.1926389362188
1684,1884.000,19.254980930160627,1122.5565050698394
1685,1885.000,5.397639053507646,1121.9199769464924
1686,1886.000,2.6637315649518314,1121.2830644350481
1687,1887.000,0.0,1120.6457774352573
1688,1888.000,12.613038122209673,1120.0081258777902
1689,1889.000,0.0,1119.3701197242738
1690,1890.000,2.66872803267006,1118.73176896733
1691,1891.000,10.069672369382033,1118.093083630618
1692,1892.000,0.0,1117.4540737688696
1693,1893.000,22.888070532069833,1116.8147494679301
1694,1894.000,5.726426155204081,1116.1751208447959
1695,1895.000,9.76924295234653,1115.5351980476535
1696,1896.000,13.379415744079779,1114.8949912559203
1697,1897.000,8.613467319718438,1114.2545106802816
1698,1898.000,10.173638437269801,1113.6137665627302
1699,1899.000,4.70123882339476,1112.9727691766052
1700,1900.000,18.354800173368176,1112.3315288266317
1701,1901.000,7.809243151042892,1111.6900558489572
1702,1902.000,20.223920388805027,1111.048360611195
1703,1903.000,15.628824487539532,1110.4064535124605
1704,1904.000,15.513742016589276,1109.7643449834106
1705,1905.000,4.718061513718794,1109.1220454862812
1706,1906.000,7.537032485069858,1108.47956551493
1707,1907.000,0.0,1107.836915594873
1708,1908.000,17.127230716676422,1107.1941062833237
1709,1909.000,0.0,1106.551148169233
1710,1910.000,6.669932126671938,1105.908051873328
1711,1911.000,14.033326951848494,1105.2648280481515
1712,1912.000,0.0,1104.6214873781003
1713,1913.000,12.91766942053414,1103.9780405794659
1714,1914.000,0.0,1103.3344984004718
1715,1915.000,8.806713378684435,1102.6908716213156
1716,1916.000,9.253440945795546,1102.0471710542045
1717,1917.000,11.755328456602683,1101.4034075433974
1718,1918.000,9.52085103475656,1100.7595919652435
1719,1919.000,6.499840771779191,1100.1157352282207
1720,1920.000,10.443645727023977,1099.471848272976
1721,1921.000,18.951347927634288,1098.8279420723657
1722,1922.000,1.9216143685084717,1098.1840276314915
1723,1923.000,9.377947012256755,1097.5401159877433
1724,1924.000,7.8703077891636894,1096.8962182108364
1725,1925.000,12.473739597148324,1096.2523454028517
1726,1926.000,2.3837983017244824,1095.6085086982755
1727,1927.000,0.0,1094.96471926404
1728,1928.000,17.861623700441896,1094.3209882995582
1729,1929.000,8.835948963231203,1093.6773270367687
1730,1930.000,10.16971625982842,1093.0337467401716
1731,1931.000,31.583216293129453,1092.3902587068706
1732,1932.000,10.025907733389204,1091.7468742666108
1733,1933.000,20.703228218181494,1091.1036047818186
1734,1934.000,12.326290352359365,1090.4604616476406
1735,1935.000,0.0,1089.8174562919858
1736,1936.000,4.649144824438281,1089.1746001755616
1737,1937.000,12.335513208084421,1088.5319047919156
1738,1938.000,10.789927332524258,1087.8893816674758
1739,1939.000,16.800326638413935,1087.247042361586
1740,1940.000,11.06264153344705,1086.6048984665529
1741,1941.000,5.98295139232232,1085.9629616076777
1742,1942.000,3.7382125566973627,1085.3212434433026
1743,1943.000,7.544046335154917,1084.679755664845
1744,1944.000,14.33239000315939,1084.0385099968405
1745,1945.000,17.383346803018412,1083.3975181969815
1746,1946.000,25.04152194384119,1082.7567920561587
1747,1947.000,10.117737601502768,1082.1163433984973
1748,1948.000,7.860517918599953,1081.4761840814
1749,1949.000,0.0,1080.8363259955856
1750,1950.000,0.2842779348713975,1080.1967810651286
1751,1951.000,2.7526767525002924,1079.5575612474997
1752,1952.000,8.840572466395543,1078.9186785336044
1753,1953.000,18.859828052175317,1078.2801449478247
1754,1954.000,12.533422451943807,1077.6419725480562
1755,1955.000,6.45806557424703,1077.004173425753
1756,1956.000,16.78421729403931,1076.3667597059607
1757,1957.000,6.475017452637303,1075.7297435473627
1758,1958.000,6.789022857684586,1075.0931371423155
1759,1959.000,5.595918283107721,1074.4569527168924
1760,1960.000,6.191024469079366,1073.8212025309206
1761,1961.000,12.801332121979158,1073.185898878021
1762,1962.000,3.3703199143481015,1072.551054085652
1763,1963.000,11.15712248485329,1071.9166805151467
1764,1964.000,2.877337438249924,1071.28279056175
1765,1965.000,3.1095643453327284,1070.6493966546673
1766,1966.000,5.323906742906047,1070.016511257094
1767,1967.000,4.256679133738089,1069.384146866262
1768,1968.000,12.397272986518828,1068.7523160134813
1769,1969.000,14.32661073582608,1068.121031264174
1770,1970.000,5.816009782080073,1067.49030521792
1771,1971.000,7.849604491506398,1066.8601505084937
1772,1972.000,0.7939401960932173,1066.2305798039067
1773,1973.000,5.230686193555584,1065.6016058064445
1774,1974.000,6.0100567472893545,1064.9732412527107
1775,1975.000,16.242619086335026,1064.3454989136649
1776,1976.000,10.197876405335819,1063.7183915946641
1777,1977.000,6.441044864498508,1063.0919321355016
1778,1978.000,9.584551589552575,1062.4661334104474
1779,1979.000,15.684590671709657,1061.8410083282904
1780,1980.000,9.787103167624082,1061.2165698323759
1781,1981.000,14.332006099349883,1060.5928309006501
1782,1982.000,8.211327454306229,1059.9698045456937
1783,1983.000,13.224115185230403,1059.3475038147697
1784,1984.000,9.369223210142309,1058.7259417898576
1785,1985.000,10.946005412300565,1058.1051315876994
1786,1986.000,3.1608296401648204,1057.4850863598351
1787,1987.000,19.9790337073548,1056.8658192926453
1788,1988.000,15.366359392608274,1056.2473436073917
1789,1989.000,4.705961439742623,1055.6296725602574
1790,1990.000,5.317565557612625,1055.0128194423874
1791,1991.000,2.701307420070634,1054.3967975799294
1792,1992.000,2.2554866659290838,1053.781620334071
1793,1993.000,6.667818898912401,1053.1673011010876
1794,1994.000,8.12221368762539,1052.5538533123747
1795,1995.000,0.0,1051.9412904344936
1796,1996.000,11.110665030789278,1051.3296259692106
1797,1997.000,13.197481546462996,1050.718873453537
1798,1998.000,6.832539540230755,1050.1090464597692
1799,1999.000,6.048424404467141,1049.5001585955329
1800,2000.000,9.823731496180699,1048.8922235038192
