raman_shift_cm-1,intensity
2.000000000000000000e+02,4.020593999999999824e+01
2.010000000000000000e+02,4.020661700000000138e+01
2.020000000000000000e+02,4.020729800000000154e+01
2.030000000000000000e+02,4.020798299999999870e+01
2.040000000000000000e+02,4.020867100000000249e+01
2.050000000000000000e+02,4.020936400000000077e+01
2.060000000000000000e+02,4.021006100000000316e+01
2.070000000000000000e+02,4.021076200000000256e+01
2.080000000000000000e+02,4.021146699999999896e+01
2.090000000000000000e+02,4.021217599999999948e+01
2.100000000000000000e+02,4.021288899999999700e+01
2.110000000000000000e+02,4.021360599999999863e+01
2.120000000000000000e+02,4.021432800000000185e+01
2.130000000000000000e+02,4.021505299999999750e+01
2.140000000000000000e+02,4.021578300000000183e+01
2.150000000000000000e+02,4.021651800000000065e+01
2.160000000000000000e+02,4.021725599999999901e+01
2.170000000000000000e+02,4.021799899999999894e+01
2.180000000000000000e+02,4.021874700000000047e+01
2.190000000000000000e+02,4.021949899999999900e+01
2.200000000000000000e+02,4.022025500000000164e+01
2.210000000000000000e+02,4.022101700000000335e+01
2.220000000000000000e+02,4.022178199999999748e+01
2.230000000000000000e+02,4.022255299999999778e+01
2.240000000000000000e+02,4.022332699999999761e+01
2.250000000000000000e+02,4.022410699999999650e+01
2.260000000000000000e+02,4.022489199999999698e+01
2.270000000000000000e+02,4.022568100000000157e+01
2.280000000000000000e+02,4.022647500000000065e+01
2.290000000000000000e+02,4.022727400000000131e+01
2.300000000000000000e+02,4.022807799999999645e+01
2.310000000000000000e+02,4.022888700000000028e+01
2.320000000000000000e+02,4.022970099999999860e+01
2.330000000000000000e+02,4.023051999999999850e+01
2.340000000000000000e+02,4.023134399999999999e+01
2.350000000000000000e+02,4.023217300000000307e+01
2.360000000000000000e+02,4.023300799999999811e+01
2.370000000000000000e+02,4.023384800000000183e+01
2.380000000000000000e+02,4.023469300000000004e+01
2.390000000000000000e+02,4.023554299999999984e+01
2.400000000000000000e+02,4.023639899999999869e+01
2.410000000000000000e+02,4.023725999999999914e+01
2.420000000000000000e+02,4.023812699999999865e+01
2.430000000000000000e+02,4.023899999999999721e+01
2.440000000000000000e+02,4.023987799999999737e+01
2.450000000000000000e+02,4.024076099999999911e+01
2.460000000000000000e+02,4.024165099999999740e+01
2.470000000000000000e+02,4.024254599999999726e+01
2.480000000000000000e+02,4.024344700000000330e+01
2.490000000000000000e+02,4.024435400000000129e+01
2.500000000000000000e+02,4.024526699999999835e+01
2.510000000000000000e+02,4.024618600000000157e+01
2.520000000000000000e+02,4.024711099999999675e+01
2.530000000000000000e+02,4.024804199999999810e+01
2.540000000000000000e+02,4.024897899999999851e+01
2.550000000000000000e+02,4.024992300000000256e+01
2.560000000000000000e+02,4.025087299999999857e+01
2.570000000000000000e+02,4.025182900000000075e+01
2.580000000000000000e+02,4.025279100000000199e+01
2.590000000000000000e+02,4.025376099999999724e+01
2.600000000000000000e+02,4.025473600000000118e+01
2.610000000000000000e+02,4.025571899999999914e+01
2.620000000000000000e+02,4.025670800000000327e+01
2.630000000000000000e+02,4.025770399999999682e+01
2.640000000000000000e+02,4.025870599999999655e+01
2.650000000000000000e+02,4.025971599999999739e+01
2.660000000000000000e+02,4.026073199999999730e+01
2.670000000000000000e+02,4.026175599999999832e+01
2.680000000000000000e+02,4.026278700000000299e+01
2.690000000000000000e+02,4.026382399999999961e+01
2.700000000000000000e+02,4.026487000000000194e+01
2.710000000000000000e+02,4.026592200000000332e+01
2.720000000000000000e+02,4.026698199999999872e+01
2.730000000000000000e+02,4.026804899999999776e+01
2.740000000000000000e+02,4.026912399999999792e+01
2.750000000000000000e+02,4.027020699999999920e+01
2.760000000000000000e+02,4.027129699999999701e+01
2.770000000000000000e+02,4.027239500000000305e+01
2.780000000000000000e+02,4.027350100000000310e+01
2.790000000000000000e+02,4.027461499999999717e+01
2.800000000000000000e+02,4.027573799999999693e+01
2.810000000000000000e+02,4.027686800000000034e+01
2.820000000000000000e+02,4.027800599999999775e+01
2.830000000000000000e+02,4.027915300000000087e+01
2.840000000000000000e+02,4.028030799999999800e+01
2.850000000000000000e+02,4.028147200000000083e+01
2.860000000000000000e+02,4.028264399999999767e+01
2.870000000000000000e+02,4.028382500000000022e+01
2.880000000000000000e+02,4.028501500000000135e+01
2.890000000000000000e+02,4.028621400000000108e+01
2.900000000000000000e+02,4.028742100000000192e+01
2.910000000000000000e+02,4.028863799999999884e+01
2.920000000000000000e+02,4.028986400000000145e+01
2.930000000000000000e+02,4.029109900000000266e+01
2.940000000000000000e+02,4.029234399999999994e+01
2.950000000000000000e+02,4.029359800000000291e+01
2.960000000000000000e+02,4.029486200000000196e+01
2.970000000000000000e+02,4.029613499999999959e+01
2.980000000000000000e+02,4.029741899999999788e+01
2.990000000000000000e+02,4.029871200000000186e+01
3.000000000000000000e+02,4.030001500000000192e+01
3.010000000000000000e+02,4.030132799999999804e+01
3.020000000000000000e+02,4.030265200000000192e+01
3.030000000000000000e+02,4.030398600000000187e+01
3.040000000000000000e+02,4.030533100000000246e+01
3.050000000000000000e+02,4.030668599999999913e+01
3.060000000000000000e+02,4.030805200000000355e+01
3.070000000000000000e+02,4.030942900000000151e+01
3.080000000000000000e+02,4.031081700000000012e+01
3.090000000000000000e+02,4.031221599999999938e+01
3.100000000000000000e+02,4.031362599999999929e+01
3.110000000000000000e+02,4.031504799999999733e+01
3.120000000000000000e+02,4.031648100000000312e+01
3.130000000000000000e+02,4.031792599999999993e+01
3.140000000000000000e+02,4.031938300000000197e+01
3.150000000000000000e+02,4.032085200000000214e+01
3.160000000000000000e+02,4.032233300000000042e+01
3.170000000000000000e+02,4.032382599999999684e+01
3.180000000000000000e+02,4.032533200000000306e+01
3.190000000000000000e+02,4.032685000000000031e+01
3.200000000000000000e+02,4.032838100000000026e+01
3.210000000000000000e+02,4.032992500000000291e+01
3.220000000000000000e+02,4.033148200000000116e+01
3.230000000000000000e+02,4.033305200000000212e+01
3.240000000000000000e+02,4.033463499999999868e+01
3.250000000000000000e+02,4.033623200000000253e+01
3.260000000000000000e+02,4.033784299999999945e+01
3.270000000000000000e+02,4.033946699999999908e+01
3.280000000000000000e+02,4.034110600000000346e+01
3.290000000000000000e+02,4.034275900000000092e+01
3.300000000000000000e+02,4.034442599999999857e+01
3.310000000000000000e+02,4.034610800000000097e+01
3.320000000000000000e+02,4.034780500000000103e+01
3.330000000000000000e+02,4.034951600000000127e+01
3.340000000000000000e+02,4.035124299999999664e+01
3.350000000000000000e+02,4.035298499999999677e+01
3.360000000000000000e+02,4.035474299999999914e+01
3.370000000000000000e+02,4.035651699999999664e+01
3.380000000000000000e+02,4.035830599999999890e+01
3.390000000000000000e+02,4.036011200000000088e+01
3.400000000000000000e+02,4.036193399999999798e+01
3.410000000000000000e+02,4.036377300000000190e+01
3.420000000000000000e+02,4.036562899999999843e+01
3.430000000000000000e+02,4.036750099999999719e+01
3.440000000000000000e+02,4.036939100000000025e+01
3.450000000000000000e+02,4.037129900000000049e+01
3.460000000000000000e+02,4.037322400000000044e+01
3.470000000000000000e+02,4.037516800000000217e+01
3.480000000000000000e+02,4.037713000000000108e+01
3.490000000000000000e+02,4.037910999999999717e+01
3.500000000000000000e+02,4.038110900000000214e+01
3.510000000000000000e+02,4.038312700000000177e+01
3.520000000000000000e+02,4.038516500000000065e+01
3.530000000000000000e+02,4.038722200000000129e+01
3.540000000000000000e+02,4.038929799999999659e+01
3.550000000000000000e+02,4.039139600000000030e+01
3.560000000000000000e+02,4.039351299999999867e+01
3.570000000000000000e+02,4.039565100000000086e+01
3.580000000000000000e+02,4.039780999999999977e+01
3.590000000000000000e+02,4.039999099999999999e+01
3.600000000000000000e+02,4.040219299999999691e+01
3.610000000000000000e+02,4.040441700000000225e+01
3.620000000000000000e+02,4.040666399999999925e+01
3.630000000000000000e+02,4.040893299999999755e+01
3.640000000000000000e+02,4.041122500000000173e+01
3.650000000000000000e+02,4.041353999999999758e+01
3.660000000000000000e+02,4.041587899999999678e+01
3.670000000000000000e+02,4.041824199999999934e+01
3.680000000000000000e+02,4.042062899999999814e+01
3.690000000000000000e+02,4.042304099999999778e+01
3.700000000000000000e+02,4.042547700000000077e+01
3.710000000000000000e+02,4.042793999999999954e+01
3.720000000000000000e+02,4.043042799999999914e+01
3.730000000000000000e+02,4.043294199999999705e+01
3.740000000000000000e+02,4.043548299999999784e+01
3.750000000000000000e+02,4.043805100000000152e+01
3.760000000000000000e+02,4.044064699999999846e+01
3.770000000000000000e+02,4.044326999999999828e+01
3.780000000000000000e+02,4.044592200000000304e+01
3.790000000000000000e+02,4.044860299999999853e+01
3.800000000000000000e+02,4.045131200000000149e+01
3.810000000000000000e+02,4.045405199999999724e+01
3.820000000000000000e+02,4.045682099999999792e+01
3.830000000000000000e+02,4.045962200000000308e+01
3.840000000000000000e+02,4.046245299999999645e+01
3.850000000000000000e+02,4.046531600000000140e+01
3.860000000000000000e+02,4.046821099999999660e+01
3.870000000000000000e+02,4.047113900000000086e+01
3.880000000000000000e+02,4.047409999999999997e+01
3.890000000000000000e+02,4.047709499999999849e+01
3.900000000000000000e+02,4.048012400000000355e+01
3.910000000000000000e+02,4.048318799999999840e+01
3.920000000000000000e+02,4.048628800000000183e+01
3.930000000000000000e+02,4.048942399999999964e+01
3.940000000000000000e+02,4.049259599999999892e+01
3.950000000000000000e+02,4.049580600000000175e+01
3.960000000000000000e+02,4.049905400000000100e+01
3.970000000000000000e+02,4.050233999999999668e+01
3.980000000000000000e+02,4.050566500000000048e+01
3.990000000000000000e+02,4.050903100000000023e+01
4.000000000000000000e+02,4.051243699999999848e+01
4.010000000000000000e+02,4.051588399999999979e+01
4.020000000000000000e+02,4.051937399999999911e+01
4.030000000000000000e+02,4.052290599999999898e+01
4.040000000000000000e+02,4.052648200000000145e+01
4.050000000000000000e+02,4.053010299999999688e+01
4.060000000000000000e+02,4.053376800000000202e+01
4.070000000000000000e+02,4.053748000000000218e+01
4.080000000000000000e+02,4.054123799999999989e+01
4.090000000000000000e+02,4.054504399999999720e+01
4.100000000000000000e+02,4.054889800000000122e+01
4.110000000000000000e+02,4.055280199999999979e+01
4.120000000000000000e+02,4.055675600000000003e+01
4.130000000000000000e+02,4.056076199999999687e+01
4.140000000000000000e+02,4.056481899999999996e+01
4.150000000000000000e+02,4.056893000000000171e+01
4.160000000000000000e+02,4.057309599999999961e+01
4.170000000000000000e+02,4.057731600000000327e+01
4.180000000000000000e+02,4.058159299999999803e+01
4.190000000000000000e+02,4.058592699999999809e+01
4.200000000000000000e+02,4.059031900000000093e+01
4.210000000000000000e+02,4.059477100000000149e+01
4.220000000000000000e+02,4.059928399999999726e+01
4.230000000000000000e+02,4.060385899999999992e+01
4.240000000000000000e+02,4.060849799999999732e+01
4.250000000000000000e+02,4.061319999999999908e+01
4.260000000000000000e+02,4.061796900000000221e+01
4.270000000000000000e+02,4.062280400000000213e+01
4.280000000000000000e+02,4.062770799999999838e+01
4.290000000000000000e+02,4.063268200000000263e+01
4.300000000000000000e+02,4.063772699999999816e+01
4.310000000000000000e+02,4.064284399999999664e+01
4.320000000000000000e+02,4.064803599999999761e+01
4.330000000000000000e+02,4.065330300000000108e+01
4.340000000000000000e+02,4.065864799999999946e+01
4.350000000000000000e+02,4.066407199999999733e+01
4.360000000000000000e+02,4.066957599999999928e+01
4.370000000000000000e+02,4.067516299999999774e+01
4.380000000000000000e+02,4.068083399999999727e+01
4.390000000000000000e+02,4.068659000000000248e+01
4.400000000000000000e+02,4.069243500000000324e+01
4.410000000000000000e+02,4.069836899999999957e+01
4.420000000000000000e+02,4.070439400000000063e+01
4.430000000000000000e+02,4.071051299999999884e+01
4.440000000000000000e+02,4.071672800000000336e+01
4.450000000000000000e+02,4.072304100000000204e+01
4.460000000000000000e+02,4.072945399999999694e+01
4.470000000000000000e+02,4.073596799999999973e+01
4.480000000000000000e+02,4.074258799999999781e+01
4.490000000000000000e+02,4.074931500000000284e+01
4.500000000000000000e+02,4.075614999999999810e+01
4.510000000000000000e+02,4.076309799999999939e+01
4.520000000000000000e+02,4.077016100000000165e+01
4.530000000000000000e+02,4.077734099999999984e+01
4.540000000000000000e+02,4.078464000000000311e+01
4.550000000000000000e+02,4.079206299999999885e+01
4.560000000000000000e+02,4.079961099999999874e+01
4.570000000000000000e+02,4.080728799999999978e+01
4.580000000000000000e+02,4.081509700000000151e+01
4.590000000000000000e+02,4.082304200000000094e+01
4.600000000000000000e+02,4.083112400000000264e+01
4.610000000000000000e+02,4.083934899999999857e+01
4.620000000000000000e+02,4.084771899999999789e+01
4.630000000000000000e+02,4.085623700000000014e+01
4.640000000000000000e+02,4.086490899999999726e+01
4.650000000000000000e+02,4.087373699999999843e+01
4.660000000000000000e+02,4.088272599999999812e+01
4.670000000000000000e+02,4.089187900000000297e+01
4.680000000000000000e+02,4.090120199999999784e+01
4.690000000000000000e+02,4.091069799999999645e+01
4.700000000000000000e+02,4.092037100000000294e+01
4.710000000000000000e+02,4.093022799999999961e+01
4.720000000000000000e+02,4.094027200000000022e+01
4.730000000000000000e+02,4.095050799999999924e+01
4.740000000000000000e+02,4.096094200000000285e+01
4.750000000000000000e+02,4.097157899999999842e+01
4.760000000000000000e+02,4.098242499999999922e+01
4.770000000000000000e+02,4.099348499999999973e+01
4.780000000000000000e+02,4.100476499999999902e+01
4.790000000000000000e+02,4.101627100000000326e+01
4.800000000000000000e+02,4.102801099999999934e+01
4.810000000000000000e+02,4.103999000000000308e+01
4.820000000000000000e+02,4.105221499999999679e+01
4.830000000000000000e+02,4.106469299999999834e+01
4.840000000000000000e+02,4.107743299999999920e+01
4.850000000000000000e+02,4.109044000000000096e+01
4.860000000000000000e+02,4.110372399999999971e+01
4.870000000000000000e+02,4.111729199999999906e+01
4.880000000000000000e+02,4.113115299999999763e+01
4.890000000000000000e+02,4.114531600000000111e+01
4.900000000000000000e+02,4.115978900000000351e+01
4.910000000000000000e+02,4.117458299999999838e+01
4.920000000000000000e+02,4.118970800000000310e+01
4.930000000000000000e+02,4.120517300000000205e+01
4.940000000000000000e+02,4.122099000000000046e+01
4.950000000000000000e+02,4.123716799999999694e+01
4.960000000000000000e+02,4.125372099999999875e+01
4.970000000000000000e+02,4.127065999999999946e+01
4.980000000000000000e+02,4.128799800000000175e+01
4.990000000000000000e+02,4.130574699999999666e+01
5.000000000000000000e+02,4.132392200000000315e+01
5.010000000000000000e+02,4.134253499999999804e+01
5.020000000000000000e+02,4.136160300000000234e+01
5.030000000000000000e+02,4.138114000000000203e+01
5.040000000000000000e+02,4.140116299999999683e+01
5.050000000000000000e+02,4.142168800000000317e+01
5.060000000000000000e+02,4.144273299999999693e+01
5.070000000000000000e+02,4.146431599999999662e+01
5.080000000000000000e+02,4.148645599999999689e+01
5.090000000000000000e+02,4.150917199999999951e+01
5.100000000000000000e+02,4.153248700000000326e+01
5.110000000000000000e+02,4.155642000000000280e+01
5.120000000000000000e+02,4.158099700000000354e+01
5.130000000000000000e+02,4.160623900000000219e+01
5.140000000000000000e+02,4.163217199999999707e+01
5.150000000000000000e+02,4.165882200000000068e+01
5.160000000000000000e+02,4.168621699999999919e+01
5.170000000000000000e+02,4.171438400000000257e+01
5.180000000000000000e+02,4.174335599999999857e+01
5.190000000000000000e+02,4.177316199999999924e+01
5.200000000000000000e+02,4.180383599999999689e+01
5.210000000000000000e+02,4.183541300000000263e+01
5.220000000000000000e+02,4.186792899999999662e+01
5.230000000000000000e+02,4.190142399999999867e+01
5.240000000000000000e+02,4.193593700000000268e+01
5.250000000000000000e+02,4.197151099999999957e+01
5.260000000000000000e+02,4.200818999999999903e+01
5.270000000000000000e+02,4.204602299999999815e+01
5.280000000000000000e+02,4.208505900000000111e+01
5.290000000000000000e+02,4.212535100000000199e+01
5.300000000000000000e+02,4.216695399999999694e+01
5.310000000000000000e+02,4.220992600000000294e+01
5.320000000000000000e+02,4.225432899999999847e+01
5.330000000000000000e+02,4.230022999999999911e+01
5.340000000000000000e+02,4.234769599999999912e+01
5.350000000000000000e+02,4.239680200000000099e+01
5.360000000000000000e+02,4.244762399999999758e+01
5.370000000000000000e+02,4.250024599999999708e+01
5.380000000000000000e+02,4.255475400000000263e+01
5.390000000000000000e+02,4.261124099999999970e+01
5.400000000000000000e+02,4.266980499999999665e+01
5.410000000000000000e+02,4.273055099999999840e+01
5.420000000000000000e+02,4.279359099999999927e+01
5.430000000000000000e+02,4.285904099999999772e+01
5.440000000000000000e+02,4.292702899999999744e+01
5.450000000000000000e+02,4.299768900000000116e+01
5.460000000000000000e+02,4.307116400000000311e+01
5.470000000000000000e+02,4.314760799999999819e+01
5.480000000000000000e+02,4.322718400000000116e+01
5.490000000000000000e+02,4.331006800000000112e+01
5.500000000000000000e+02,4.339644799999999947e+01
5.510000000000000000e+02,4.348652400000000284e+01
5.520000000000000000e+02,4.358051300000000339e+01
5.530000000000000000e+02,4.367864600000000053e+01
5.540000000000000000e+02,4.378117199999999798e+01
5.550000000000000000e+02,4.388836100000000329e+01
5.560000000000000000e+02,4.400050000000000239e+01
5.570000000000000000e+02,4.411790100000000336e+01
5.580000000000000000e+02,4.424090100000000092e+01
5.590000000000000000e+02,4.436986399999999975e+01
5.600000000000000000e+02,4.450518399999999986e+01
5.610000000000000000e+02,4.464728699999999861e+01
5.620000000000000000e+02,4.479663599999999946e+01
5.630000000000000000e+02,4.495373500000000178e+01
5.640000000000000000e+02,4.511913100000000298e+01
5.650000000000000000e+02,4.529342100000000215e+01
5.660000000000000000e+02,4.547725499999999954e+01
5.670000000000000000e+02,4.567134500000000230e+01
5.680000000000000000e+02,4.587647100000000222e+01
5.690000000000000000e+02,4.609348399999999657e+01
5.700000000000000000e+02,4.632332399999999950e+01
5.710000000000000000e+02,4.656702099999999689e+01
5.720000000000000000e+02,4.682571200000000289e+01
5.730000000000000000e+02,4.710065300000000121e+01
5.740000000000000000e+02,4.739323000000000263e+01
5.750000000000000000e+02,4.770498500000000064e+01
5.760000000000000000e+02,4.803762499999999847e+01
5.770000000000000000e+02,4.839305499999999682e+01
5.780000000000000000e+02,4.877339700000000278e+01
5.790000000000000000e+02,4.918102700000000027e+01
5.800000000000000000e+02,4.961860699999999724e+01
5.810000000000000000e+02,5.008912899999999979e+01
5.820000000000000000e+02,5.059596700000000169e+01
5.830000000000000000e+02,5.114293200000000184e+01
5.840000000000000000e+02,5.173434300000000263e+01
5.850000000000000000e+02,5.237511200000000144e+01
5.860000000000000000e+02,5.307083999999999691e+01
5.870000000000000000e+02,5.382793499999999653e+01
5.880000000000000000e+02,5.465375600000000134e+01
5.890000000000000000e+02,5.555678300000000291e+01
5.900000000000000000e+02,5.654682600000000292e+01
5.910000000000000000e+02,5.763527700000000209e+01
5.920000000000000000e+02,5.883542400000000328e+01
5.930000000000000000e+02,6.016283399999999659e+01
5.940000000000000000e+02,6.163582199999999744e+01
5.950000000000000000e+02,6.327605199999999996e+01
5.960000000000000000e+02,6.510926499999999351e+01
5.970000000000000000e+02,6.716621999999999559e+01
5.980000000000000000e+02,6.948386999999999603e+01
5.990000000000000000e+02,7.210685999999999751e+01
6.000000000000000000e+02,7.508945900000000506e+01
6.010000000000000000e+02,7.849802800000000502e+01
6.020000000000000000e+02,8.241422500000000184e+01
6.030000000000000000e+02,8.693915300000000457e+01
6.040000000000000000e+02,9.219876200000000210e+01
6.050000000000000000e+02,9.835085300000000075e+01
6.060000000000000000e+02,1.055941229999999962e+02
6.070000000000000000e+02,1.141797109999999975e+02
6.080000000000000000e+02,1.244255310000000065e+02
6.090000000000000000e+02,1.367331949999999949e+02
6.100000000000000000e+02,1.516058789999999874e+02
6.110000000000000000e+02,1.696621370000000013e+02
6.120000000000000000e+02,1.916333410000000015e+02
6.130000000000000000e+02,2.183176819999999907e+02
6.140000000000000000e+02,2.504373310000000004e+02
6.150000000000000000e+02,2.883081999999999994e+02
6.160000000000000000e+02,3.312106089999999767e+02
6.170000000000000000e+02,3.764434239999999932e+02
6.180000000000000000e+02,4.184454850000000192e+02
6.190000000000000000e+02,4.490962099999999850e+02
6.200000000000000000e+02,4.604496520000000146e+02
6.210000000000000000e+02,4.491004070000000183e+02
6.220000000000000000e+02,4.184538810000000240e+02
6.230000000000000000e+02,3.764560190000000262e+02
6.240000000000000000e+02,3.312274029999999811e+02
6.250000000000000000e+02,2.883291950000000270e+02
6.260000000000000000e+02,2.504625279999999918e+02
6.270000000000000000e+02,2.183470829999999978e+02
6.280000000000000000e+02,1.916669489999999882e+02
6.290000000000000000e+02,1.696999539999999911e+02
6.300000000000000000e+02,1.516479080000000010e+02
6.310000000000000000e+02,1.367794389999999964e+02
6.320000000000000000e+02,1.244759930000000026e+02
6.330000000000000000e+02,1.142343939999999947e+02
6.340000000000000000e+02,1.056530319999999961e+02
6.350000000000000000e+02,9.841399199999999325e+01
6.360000000000000000e+02,9.226613700000000051e+01
6.370000000000000000e+02,8.701076700000000130e+01
6.380000000000000000e+02,8.249008399999999597e+01
6.390000000000000000e+02,7.857813799999999560e+01
6.400000000000000000e+02,7.517382600000000537e+01
6.410000000000000000e+02,7.219549000000000660e+01
6.420000000000000000e+02,6.957676899999999875e+01
6.430000000000000000e+02,6.726339600000000019e+01
6.440000000000000000e+02,6.521072399999999902e+01
6.450000000000000000e+02,6.338180200000000042e+01
6.460000000000000000e+02,6.174587199999999854e+01
6.470000000000000000e+02,6.027718999999999738e+01
6.480000000000000000e+02,5.895409699999999731e+01
6.490000000000000000e+02,5.775827400000000011e+01
6.500000000000000000e+02,5.667415600000000353e+01
6.510000000000000000e+02,5.568845699999999965e+01
6.520000000000000000e+02,5.478978299999999990e+01
6.530000000000000000e+02,5.396832500000000010e+01
6.540000000000000000e+02,5.321560399999999902e+01
6.550000000000000000e+02,5.252426100000000275e+01
6.560000000000000000e+02,5.188788799999999668e+01
6.570000000000000000e+02,5.130088400000000348e+01
6.580000000000000000e+02,5.075833899999999943e+01
6.590000000000000000e+02,5.025593299999999886e+01
6.600000000000000000e+02,4.978985399999999828e+01
6.610000000000000000e+02,4.935673200000000094e+01
6.620000000000000000e+02,4.895357299999999867e+01
6.630000000000000000e+02,4.857771499999999776e+01
6.640000000000000000e+02,4.822678400000000210e+01
6.650000000000000000e+02,4.789865600000000256e+01
6.660000000000000000e+02,4.759143000000000256e+01
6.670000000000000000e+02,4.730339500000000186e+01
6.680000000000000000e+02,4.703301299999999685e+01
6.690000000000000000e+02,4.677889600000000314e+01
6.700000000000000000e+02,4.653979000000000354e+01
6.710000000000000000e+02,4.631455799999999812e+01
6.720000000000000000e+02,4.610216799999999893e+01
6.730000000000000000e+02,4.590168500000000051e+01
6.740000000000000000e+02,4.571225499999999897e+01
6.750000000000000000e+02,4.553309899999999999e+01
6.760000000000000000e+02,4.536350600000000099e+01
6.770000000000000000e+02,4.520282600000000173e+01
6.780000000000000000e+02,4.505046300000000059e+01
6.790000000000000000e+02,4.490586900000000270e+01
6.800000000000000000e+02,4.476854199999999651e+01
6.810000000000000000e+02,4.463801899999999989e+01
6.820000000000000000e+02,4.451387400000000127e+01
6.830000000000000000e+02,4.439571399999999812e+01
6.840000000000000000e+02,4.428317400000000248e+01
6.850000000000000000e+02,4.417591900000000038e+01
6.860000000000000000e+02,4.407363800000000253e+01
6.870000000000000000e+02,4.397604199999999963e+01
6.880000000000000000e+02,4.388286399999999787e+01
6.890000000000000000e+02,4.379385400000000317e+01
6.900000000000000000e+02,4.370878199999999936e+01
6.910000000000000000e+02,4.362743199999999888e+01
6.920000000000000000e+02,4.354960299999999762e+01
6.930000000000000000e+02,4.347510700000000128e+01
6.940000000000000000e+02,4.340377199999999647e+01
6.950000000000000000e+02,4.333543199999999729e+01
6.960000000000000000e+02,4.326993499999999671e+01
6.970000000000000000e+02,4.320713800000000049e+01
6.980000000000000000e+02,4.314690800000000337e+01
6.990000000000000000e+02,4.308911899999999662e+01
7.000000000000000000e+02,4.303365199999999646e+01
7.010000000000000000e+02,4.298039800000000099e+01
7.020000000000000000e+02,4.292925199999999819e+01
7.030000000000000000e+02,4.288011600000000101e+01
7.040000000000000000e+02,4.283289899999999761e+01
7.050000000000000000e+02,4.278751400000000160e+01
7.060000000000000000e+02,4.274387800000000226e+01
7.070000000000000000e+02,4.270191599999999710e+01
7.080000000000000000e+02,4.266155400000000242e+01
7.090000000000000000e+02,4.262272399999999806e+01
7.100000000000000000e+02,4.258536099999999891e+01
7.110000000000000000e+02,4.254940400000000267e+01
7.120000000000000000e+02,4.251479499999999945e+01
7.130000000000000000e+02,4.248147800000000274e+01
7.140000000000000000e+02,4.244940299999999667e+01
7.150000000000000000e+02,4.241852000000000089e+01
7.160000000000000000e+02,4.238878199999999907e+01
7.170000000000000000e+02,4.236014600000000030e+01
7.180000000000000000e+02,4.233256800000000197e+01
7.190000000000000000e+02,4.230601000000000056e+01
7.200000000000000000e+02,4.228043399999999963e+01
7.210000000000000000e+02,4.225580399999999770e+01
7.220000000000000000e+02,4.223208499999999788e+01
7.230000000000000000e+02,4.220924600000000027e+01
7.240000000000000000e+02,4.218725500000000039e+01
7.250000000000000000e+02,4.216608300000000042e+01
7.260000000000000000e+02,4.214570200000000000e+01
7.270000000000000000e+02,4.212608500000000333e+01
7.280000000000000000e+02,4.210720799999999997e+01
7.290000000000000000e+02,4.208904700000000076e+01
7.300000000000000000e+02,4.207157699999999778e+01
7.310000000000000000e+02,4.205477700000000141e+01
7.320000000000000000e+02,4.203862699999999819e+01
7.330000000000000000e+02,4.202310599999999852e+01
7.340000000000000000e+02,4.200819500000000062e+01
7.350000000000000000e+02,4.199387699999999768e+01
7.360000000000000000e+02,4.198013300000000214e+01
7.370000000000000000e+02,4.196694800000000214e+01
7.380000000000000000e+02,4.195430499999999796e+01
7.390000000000000000e+02,4.194218899999999906e+01
7.400000000000000000e+02,4.193058700000000272e+01
7.410000000000000000e+02,4.191948399999999708e+01
7.420000000000000000e+02,4.190886700000000076e+01
7.430000000000000000e+02,4.189872299999999683e+01
7.440000000000000000e+02,4.189872299999999683e+01
7.450000000000000000e+02,4.187980999999999909e+01
7.460000000000000000e+02,4.187101700000000193e+01
7.470000000000000000e+02,4.186265300000000167e+01
7.480000000000000000e+02,4.185470699999999766e+01
7.490000000000000000e+02,4.184717100000000300e+01
7.500000000000000000e+02,4.184003500000000031e+01
7.510000000000000000e+02,4.183328999999999809e+01
7.520000000000000000e+02,4.182692800000000233e+01
7.530000000000000000e+02,4.182094099999999770e+01
7.540000000000000000e+02,4.181532200000000188e+01
7.550000000000000000e+02,4.181006299999999953e+01
7.560000000000000000e+02,4.180515700000000123e+01
7.570000000000000000e+02,4.180059700000000333e+01
7.580000000000000000e+02,4.179637900000000172e+01
7.590000000000000000e+02,4.179249399999999781e+01
7.600000000000000000e+02,4.178893899999999917e+01
7.610000000000000000e+02,4.178570700000000215e+01
7.620000000000000000e+02,4.178279299999999807e+01
7.630000000000000000e+02,4.178019199999999955e+01
7.640000000000000000e+02,4.177790000000000248e+01
7.650000000000000000e+02,4.177591300000000274e+01
7.660000000000000000e+02,4.177422500000000127e+01
7.670000000000000000e+02,4.177283400000000313e+01
7.680000000000000000e+02,4.177173499999999962e+01
7.690000000000000000e+02,4.177092499999999831e+01
7.700000000000000000e+02,4.177040099999999967e+01
7.710000000000000000e+02,4.177015899999999959e+01
7.720000000000000000e+02,4.177019700000000313e+01
7.730000000000000000e+02,4.177051199999999653e+01
7.740000000000000000e+02,4.177110100000000159e+01
7.750000000000000000e+02,4.177196200000000204e+01
7.760000000000000000e+02,4.177309300000000292e+01
7.770000000000000000e+02,4.177449099999999760e+01
7.780000000000000000e+02,4.177615600000000029e+01
7.790000000000000000e+02,4.177808399999999978e+01
7.800000000000000000e+02,4.178027500000000316e+01
7.810000000000000000e+02,4.178272799999999876e+01
7.820000000000000000e+02,4.178544099999999872e+01
7.830000000000000000e+02,4.178841200000000100e+01
7.840000000000000000e+02,4.179164200000000307e+01
7.850000000000000000e+02,4.179512900000000286e+01
7.860000000000000000e+02,4.179887300000000039e+01
7.870000000000000000e+02,4.180287200000000070e+01
7.880000000000000000e+02,4.180712799999999874e+01
7.890000000000000000e+02,4.181163899999999956e+01
7.900000000000000000e+02,4.181640600000000063e+01
7.910000000000000000e+02,4.182142900000000196e+01
7.920000000000000000e+02,4.182670699999999897e+01
7.930000000000000000e+02,4.183224200000000081e+01
7.940000000000000000e+02,4.183803300000000291e+01
7.950000000000000000e+02,4.184408100000000275e+01
7.960000000000000000e+02,4.185038699999999778e+01
7.970000000000000000e+02,4.185695299999999719e+01
7.980000000000000000e+02,4.186377800000000349e+01
7.990000000000000000e+02,4.187086399999999742e+01
8.000000000000000000e+02,4.187821199999999777e+01
8.010000000000000000e+02,4.188582399999999950e+01
8.020000000000000000e+02,4.189370100000000008e+01
8.030000000000000000e+02,4.190184500000000156e+01
8.040000000000000000e+02,4.191025799999999890e+01
8.050000000000000000e+02,4.191894099999999668e+01
8.060000000000000000e+02,4.192789700000000153e+01
8.070000000000000000e+02,4.193712800000000129e+01
8.080000000000000000e+02,4.194663700000000262e+01
8.090000000000000000e+02,4.195642500000000297e+01
8.100000000000000000e+02,4.196649500000000188e+01
8.110000000000000000e+02,4.197685100000000347e+01
8.120000000000000000e+02,4.198749500000000268e+01
8.130000000000000000e+02,4.199843099999999652e+01
8.140000000000000000e+02,4.200965999999999667e+01
8.150000000000000000e+02,4.202118800000000221e+01
8.160000000000000000e+02,4.203301700000000096e+01
8.170000000000000000e+02,4.204515200000000164e+01
8.180000000000000000e+02,4.205759499999999917e+01
8.190000000000000000e+02,4.207035199999999975e+01
8.200000000000000000e+02,4.208342600000000289e+01
8.210000000000000000e+02,4.209682200000000307e+01
8.220000000000000000e+02,4.211054299999999984e+01
8.230000000000000000e+02,4.212459599999999682e+01
8.240000000000000000e+02,4.213898499999999814e+01
8.250000000000000000e+02,4.215371499999999827e+01
8.260000000000000000e+02,4.216879200000000338e+01
8.270000000000000000e+02,4.218422000000000338e+01
8.280000000000000000e+02,4.220000600000000190e+01
8.290000000000000000e+02,4.221615599999999802e+01
8.300000000000000000e+02,4.223267599999999788e+01
8.310000000000000000e+02,4.224957100000000310e+01
8.320000000000000000e+02,4.226684900000000056e+01
8.330000000000000000e+02,4.228451700000000102e+01
8.340000000000000000e+02,4.230258200000000102e+01
8.350000000000000000e+02,4.232104999999999961e+01
8.360000000000000000e+02,4.233993000000000251e+01
8.370000000000000000e+02,4.235922999999999661e+01
8.380000000000000000e+02,4.237895699999999977e+01
8.390000000000000000e+02,4.239912000000000347e+01
8.400000000000000000e+02,4.241972799999999921e+01
8.410000000000000000e+02,4.244078999999999979e+01
8.420000000000000000e+02,4.246231399999999923e+01
8.430000000000000000e+02,4.248431099999999816e+01
8.440000000000000000e+02,4.250679099999999977e+01
8.450000000000000000e+02,4.252976400000000012e+01
8.460000000000000000e+02,4.255324000000000240e+01
8.470000000000000000e+02,4.257723099999999761e+01
8.480000000000000000e+02,4.260174800000000062e+01
8.490000000000000000e+02,4.262680300000000244e+01
8.500000000000000000e+02,4.265240899999999868e+01
8.510000000000000000e+02,4.267857599999999962e+01
8.520000000000000000e+02,4.270532000000000039e+01
8.530000000000000000e+02,4.273265299999999911e+01
8.540000000000000000e+02,4.276059000000000054e+01
8.550000000000000000e+02,4.278914499999999776e+01
8.560000000000000000e+02,4.281833199999999806e+01
8.570000000000000000e+02,4.284816899999999862e+01
8.580000000000000000e+02,4.287866900000000214e+01
8.590000000000000000e+02,4.290985200000000077e+01
8.600000000000000000e+02,4.294173299999999927e+01
8.610000000000000000e+02,4.297433000000000192e+01
8.620000000000000000e+02,4.300766300000000086e+01
8.630000000000000000e+02,4.304175000000000040e+01
8.640000000000000000e+02,4.307661199999999724e+01
8.650000000000000000e+02,4.311226800000000026e+01
8.660000000000000000e+02,4.314874100000000112e+01
8.670000000000000000e+02,4.318605199999999655e+01
8.680000000000000000e+02,4.322422600000000159e+01
8.690000000000000000e+02,4.326328500000000332e+01
8.700000000000000000e+02,4.330325400000000258e+01
8.710000000000000000e+02,4.334416000000000224e+01
8.720000000000000000e+02,4.338602900000000062e+01
8.730000000000000000e+02,4.342888899999999808e+01
8.740000000000000000e+02,4.347276800000000208e+01
8.750000000000000000e+02,4.351769800000000288e+01
8.760000000000000000e+02,4.356370799999999832e+01
8.770000000000000000e+02,4.361083099999999746e+01
8.780000000000000000e+02,4.365910199999999719e+01
8.790000000000000000e+02,4.370855499999999694e+01
8.800000000000000000e+02,4.375922599999999818e+01
8.810000000000000000e+02,4.381115400000000193e+01
8.820000000000000000e+02,4.386437800000000209e+01
8.830000000000000000e+02,4.391893900000000173e+01
8.840000000000000000e+02,4.397488100000000344e+01
8.850000000000000000e+02,4.403224699999999814e+01
8.860000000000000000e+02,4.409108499999999964e+01
8.870000000000000000e+02,4.415144300000000044e+01
8.880000000000000000e+02,4.421337199999999967e+01
8.890000000000000000e+02,4.427692400000000106e+01
8.900000000000000000e+02,4.434215600000000279e+01
8.910000000000000000e+02,4.440912300000000101e+01
8.920000000000000000e+02,4.447788700000000262e+01
8.930000000000000000e+02,4.454851099999999775e+01
8.940000000000000000e+02,4.462105999999999995e+01
8.950000000000000000e+02,4.469560299999999842e+01
8.960000000000000000e+02,4.477221200000000323e+01
8.970000000000000000e+02,4.485096300000000014e+01
8.980000000000000000e+02,4.493193399999999826e+01
8.990000000000000000e+02,4.501520699999999664e+01
9.000000000000000000e+02,4.510087000000000046e+01
9.010000000000000000e+02,4.518901400000000024e+01
9.020000000000000000e+02,4.527973300000000023e+01
9.030000000000000000e+02,4.537312699999999666e+01
9.040000000000000000e+02,4.546930100000000152e+01
9.050000000000000000e+02,4.556836599999999748e+01
9.060000000000000000e+02,4.567043699999999973e+01
9.070000000000000000e+02,4.577563700000000324e+01
9.080000000000000000e+02,4.588409200000000254e+01
9.090000000000000000e+02,4.599593899999999991e+01
9.100000000000000000e+02,4.611131900000000172e+01
9.110000000000000000e+02,4.623038199999999875e+01
9.120000000000000000e+02,4.635328499999999963e+01
9.130000000000000000e+02,4.648019599999999940e+01
9.140000000000000000e+02,4.661128999999999678e+01
9.150000000000000000e+02,4.674675299999999822e+01
9.160000000000000000e+02,4.688678000000000168e+01
9.170000000000000000e+02,4.703157999999999817e+01
9.180000000000000000e+02,4.718137099999999862e+01
9.190000000000000000e+02,4.733638700000000199e+01
9.200000000000000000e+02,4.749687399999999826e+01
9.210000000000000000e+02,4.766309300000000349e+01
9.220000000000000000e+02,4.783532199999999790e+01
9.230000000000000000e+02,4.801385499999999951e+01
9.240000000000000000e+02,4.819900499999999965e+01
9.250000000000000000e+02,4.839110399999999856e+01
9.260000000000000000e+02,4.859050799999999981e+01
9.270000000000000000e+02,4.879759299999999911e+01
9.280000000000000000e+02,4.901276299999999964e+01
9.290000000000000000e+02,4.923644500000000335e+01
9.300000000000000000e+02,4.946909999999999741e+01
9.310000000000000000e+02,4.971121699999999777e+01
9.320000000000000000e+02,4.996332199999999801e+01
9.330000000000000000e+02,5.022597499999999826e+01
9.340000000000000000e+02,5.078538100000000099e+01
9.350000000000000000e+02,5.078538100000000099e+01
9.360000000000000000e+02,5.108347499999999997e+01
9.370000000000000000e+02,5.139480799999999761e+01
9.380000000000000000e+02,5.172018400000000327e+01
9.390000000000000000e+02,5.206047000000000224e+01
9.400000000000000000e+02,5.241660000000000252e+01
9.410000000000000000e+02,5.278958500000000242e+01
9.420000000000000000e+02,5.318051799999999929e+01
9.430000000000000000e+02,5.359058199999999772e+01
9.440000000000000000e+02,5.402106200000000058e+01
9.450000000000000000e+02,5.447335100000000097e+01
9.460000000000000000e+02,5.494896599999999864e+01
9.470000000000000000e+02,5.544955900000000071e+01
9.480000000000000000e+02,5.597693199999999791e+01
9.490000000000000000e+02,5.653305199999999786e+01
9.500000000000000000e+02,5.712007499999999993e+01
9.510000000000000000e+02,5.774036000000000257e+01
9.520000000000000000e+02,5.839650100000000066e+01
9.530000000000000000e+02,5.909134999999999849e+01
9.540000000000000000e+02,5.982805100000000209e+01
9.550000000000000000e+02,6.061007299999999987e+01
9.560000000000000000e+02,6.144125900000000229e+01
9.570000000000000000e+02,6.232586599999999777e+01
9.580000000000000000e+02,6.326862599999999759e+01
9.590000000000000000e+02,6.427481199999999717e+01
9.600000000000000000e+02,6.535030600000000334e+01
9.610000000000000000e+02,6.650169400000000053e+01
9.620000000000000000e+02,6.773636500000000638e+01
9.630000000000000000e+02,6.906263199999999358e+01
9.640000000000000000e+02,7.048987300000000289e+01
9.650000000000000000e+02,7.202870299999999304e+01
9.660000000000000000e+02,7.369116400000000056e+01
9.670000000000000000e+02,7.549097100000000182e+01
9.680000000000000000e+02,7.744379100000000449e+01
9.690000000000000000e+02,7.956758600000000570e+01
9.700000000000000000e+02,8.188302400000000603e+01
9.710000000000000000e+02,8.441397600000000523e+01
9.720000000000000000e+02,8.718812900000000354e+01
9.730000000000000000e+02,9.023772700000000668e+01
9.740000000000000000e+02,9.360048999999999353e+01
9.750000000000000000e+02,9.732074799999999470e+01
9.760000000000000000e+02,1.014508579999999967e+02
9.770000000000000000e+02,1.060529669999999953e+02
9.780000000000000000e+02,1.112012409999999960e+02
9.790000000000000000e+02,1.169846799999999973e+02
9.800000000000000000e+02,1.235107059999999990e+02
9.810000000000000000e+02,1.309097559999999874e+02
9.820000000000000000e+02,1.393411839999999984e+02
9.830000000000000000e+02,1.490009009999999989e+02
9.840000000000000000e+02,1.601312780000000089e+02
9.850000000000000000e+02,1.730340129999999874e+02
9.860000000000000000e+02,1.880868340000000103e+02
9.870000000000000000e+02,2.057650759999999934e+02
9.880000000000000000e+02,2.266691779999999881e+02
9.890000000000000000e+02,2.515588610000000074e+02
9.900000000000000000e+02,2.813934540000000197e+02
9.910000000000000000e+02,3.173744829999999979e+02
9.920000000000000000e+02,3.609786159999999882e+02
9.930000000000000000e+02,4.139516330000000153e+02
9.940000000000000000e+02,4.781989800000000059e+02
9.950000000000000000e+02,5.554457720000000336e+02
9.960000000000000000e+02,6.464506109999999808e+02
9.970000000000000000e+02,7.495073109999999588e+02
9.980000000000000000e+02,8.581929930000000013e+02
9.990000000000000000e+02,9.592764359999999897e+02
1.000000000000000000e+03,1.033434027999999898e+03
1.001000000000000000e+03,1.061759698000000071e+03
1.002000000000000000e+03,1.036160260000000108e+03
1.003000000000000000e+03,9.647612239999999701e+02
1.004000000000000000e+03,8.665018939999999930e+02
1.005000000000000000e+03,7.607409800000000359e+02
1.006000000000000000e+03,6.607477069999999912e+02
1.007000000000000000e+03,5.729870630000000347e+02
1.008000000000000000e+03,4.992128510000000006e+02
1.009000000000000000e+03,4.387212940000000003e+02
1.010000000000000000e+03,3.898514030000000048e+02
1.011000000000000000e+03,3.507737930000000119e+02
1.012000000000000000e+03,3.198340089999999805e+02
1.013000000000000000e+03,2.956662349999999719e+02
1.014000000000000000e+03,2.772048369999999977e+02
1.015000000000000000e+03,2.636585329999999772e+02
1.016000000000000000e+03,2.544770310000000109e+02
1.017000000000000000e+03,2.493225879999999961e+02
1.018000000000000000e+03,2.480509849999999972e+02
1.019000000000000000e+03,2.507028300000000058e+02
1.020000000000000000e+03,2.575041679999999928e+02
1.021000000000000000e+03,2.688731980000000021e+02
1.022000000000000000e+03,2.854255150000000185e+02
1.023000000000000000e+03,3.079608680000000049e+02
1.024000000000000000e+03,3.373953030000000126e+02
1.025000000000000000e+03,3.745682249999999840e+02
1.026000000000000000e+03,4.198053499999999758e+02
1.027000000000000000e+03,4.720910139999999728e+02
1.028000000000000000e+03,5.278267260000000078e+02
1.029000000000000000e+03,5.796784490000000005e+02
1.030000000000000000e+03,6.169684780000000046e+02
1.031000000000000000e+03,6.292543540000000348e+02
1.032000000000000000e+03,6.120449869999999919e+02
1.033000000000000000e+03,5.697727149999999483e+02
1.034000000000000000e+03,5.128195970000000443e+02
1.035000000000000000e+03,4.517995440000000258e+02
1.036000000000000000e+03,3.939775139999999851e+02
1.037000000000000000e+03,3.428754589999999780e+02
1.038000000000000000e+03,2.994224869999999896e+02
1.039000000000000000e+03,2.631932219999999916e+02
1.040000000000000000e+03,2.332316849999999988e+02
1.041000000000000000e+03,2.084835620000000063e+02
1.042000000000000000e+03,1.879830839999999910e+02
1.043000000000000000e+03,1.709131240000000105e+02
1.044000000000000000e+03,1.566084329999999909e+02
1.045000000000000000e+03,1.445374469999999860e+02
1.046000000000000000e+03,1.342788070000000005e+02
1.047000000000000000e+03,1.254991219999999998e+02
1.048000000000000000e+03,1.179341330000000028e+02
1.049000000000000000e+03,1.113735470000000021e+02
1.050000000000000000e+03,1.056491390000000052e+02
1.051000000000000000e+03,1.006255359999999968e+02
1.052000000000000000e+03,9.619311600000000340e+01
1.053000000000000000e+03,9.619311600000000340e+01
1.054000000000000000e+03,8.876051800000000469e+01
1.055000000000000000e+03,8.562657900000000666e+01
1.056000000000000000e+03,8.281049500000000307e+01
1.057000000000000000e+03,8.027031399999999906e+01
1.058000000000000000e+03,7.797079300000000046e+01
1.059000000000000000e+03,7.588216900000000464e+01
1.060000000000000000e+03,7.397917300000000296e+01
1.061000000000000000e+03,7.224024699999999655e+01
1.062000000000000000e+03,7.064691399999999533e+01
1.063000000000000000e+03,6.918326299999999662e+01
1.064000000000000000e+03,6.783554100000000631e+01
1.065000000000000000e+03,6.659180399999999622e+01
1.066000000000000000e+03,6.544164600000000576e+01
1.067000000000000000e+03,6.437596600000000535e+01
1.068000000000000000e+03,6.338677599999999757e+01
1.069000000000000000e+03,6.246704199999999929e+01
1.070000000000000000e+03,6.161055199999999843e+01
1.071000000000000000e+03,6.081180499999999967e+01
1.072000000000000000e+03,6.006591399999999936e+01
1.073000000000000000e+03,5.936852600000000280e+01
1.074000000000000000e+03,5.871575700000000353e+01
1.075000000000000000e+03,5.810413100000000242e+01
1.076000000000000000e+03,5.753053200000000089e+01
1.077000000000000000e+03,5.699216299999999791e+01
1.078000000000000000e+03,5.648650500000000108e+01
1.079000000000000000e+03,5.601128800000000041e+01
1.080000000000000000e+03,5.556446600000000302e+01
1.081000000000000000e+03,5.514418799999999976e+01
1.082000000000000000e+03,5.474878100000000103e+01
1.083000000000000000e+03,5.437673300000000154e+01
1.084000000000000000e+03,5.402667199999999781e+01
1.085000000000000000e+03,5.369736100000000079e+01
1.086000000000000000e+03,5.338767599999999902e+01
1.087000000000000000e+03,5.309660399999999925e+01
1.088000000000000000e+03,5.282322899999999777e+01
1.089000000000000000e+03,5.256672700000000020e+01
1.090000000000000000e+03,5.232635499999999951e+01
1.091000000000000000e+03,5.210145299999999935e+01
1.092000000000000000e+03,5.189142799999999767e+01
1.093000000000000000e+03,5.169575999999999993e+01
1.094000000000000000e+03,5.151399099999999720e+01
1.095000000000000000e+03,5.134572699999999656e+01
1.096000000000000000e+03,5.119063200000000080e+01
1.097000000000000000e+03,5.104842800000000125e+01
1.098000000000000000e+03,5.091889299999999707e+01
1.099000000000000000e+03,5.080186299999999733e+01
1.100000000000000000e+03,5.069722699999999804e+01
1.101000000000000000e+03,5.060493000000000308e+01
1.102000000000000000e+03,5.052497699999999980e+01
1.103000000000000000e+03,5.045742899999999764e+01
1.104000000000000000e+03,5.040240800000000121e+01
1.105000000000000000e+03,5.036010199999999770e+01
1.106000000000000000e+03,5.033076400000000206e+01
1.107000000000000000e+03,5.031472099999999870e+01
1.108000000000000000e+03,5.031237800000000249e+01
1.109000000000000000e+03,5.032422400000000096e+01
1.110000000000000000e+03,5.035083999999999804e+01
1.111000000000000000e+03,5.039291099999999801e+01
1.112000000000000000e+03,5.045123499999999694e+01
1.113000000000000000e+03,5.052673399999999759e+01
1.114000000000000000e+03,5.062047499999999900e+01
1.115000000000000000e+03,5.073368399999999667e+01
1.116000000000000000e+03,5.086776900000000268e+01
1.117000000000000000e+03,5.102434699999999879e+01
1.118000000000000000e+03,5.120526900000000126e+01
1.119000000000000000e+03,5.141266499999999695e+01
1.120000000000000000e+03,5.164897799999999961e+01
1.121000000000000000e+03,5.191701799999999878e+01
1.122000000000000000e+03,5.222002899999999670e+01
1.123000000000000000e+03,5.256175300000000306e+01
1.124000000000000000e+03,5.294652800000000070e+01
1.125000000000000000e+03,5.337939300000000031e+01
1.126000000000000000e+03,5.386622100000000302e+01
1.127000000000000000e+03,5.441388100000000350e+01
1.128000000000000000e+03,5.503044100000000327e+01
1.129000000000000000e+03,5.572541400000000067e+01
1.130000000000000000e+03,5.651006799999999686e+01
1.131000000000000000e+03,5.739781200000000183e+01
1.132000000000000000e+03,5.840468800000000016e+01
1.133000000000000000e+03,5.954998199999999997e+01
1.134000000000000000e+03,6.085701699999999903e+01
1.135000000000000000e+03,6.235415600000000325e+01
1.136000000000000000e+03,6.407609899999999925e+01
1.137000000000000000e+03,6.606556399999999485e+01
1.138000000000000000e+03,6.837545500000000231e+01
1.139000000000000000e+03,7.107169399999999371e+01
1.140000000000000000e+03,7.423688699999999585e+01
1.141000000000000000e+03,7.797506699999999569e+01
1.142000000000000000e+03,8.241773700000000247e+01
1.143000000000000000e+03,8.773138000000000147e+01
1.144000000000000000e+03,9.412632100000000435e+01
1.145000000000000000e+03,1.018660869999999932e+02
1.146000000000000000e+03,1.112746460000000042e+02
1.147000000000000000e+03,1.227350590000000068e+02
1.148000000000000000e+03,1.366653890000000047e+02
1.149000000000000000e+03,1.534438839999999971e+02
1.150000000000000000e+03,1.732359869999999944e+02
1.151000000000000000e+03,1.956646920000000023e+02
1.152000000000000000e+03,2.193150870000000054e+02
1.153000000000000000e+03,2.412741560000000050e+02
1.154000000000000000e+03,2.572882299999999987e+02
1.155000000000000000e+03,2.631951220000000262e+02
1.156000000000000000e+03,2.572110200000000191e+02
1.157000000000000000e+03,2.411196840000000066e+02
1.158000000000000000e+03,2.190832509999999900e+02
1.159000000000000000e+03,1.953553359999999941e+02
1.160000000000000000e+03,1.728489050000000020e+02
1.161000000000000000e+03,1.529788159999999948e+02
1.162000000000000000e+03,1.361220240000000103e+02
1.163000000000000000e+03,1.221130310000000065e+02
1.164000000000000000e+03,1.105735370000000017e+02
1.165000000000000000e+03,1.010854230000000058e+02
1.166000000000000000e+03,9.326557200000000591e+01
1.167000000000000000e+03,8.678996100000000524e+01
1.168000000000000000e+03,8.139500499999999761e+01
1.169000000000000000e+03,7.687032000000000664e+01
1.170000000000000000e+03,7.304936399999999708e+01
1.171000000000000000e+03,6.980057200000000250e+01
1.172000000000000000e+03,6.701985000000000525e+01
1.173000000000000000e+03,6.462452600000000302e+01
1.174000000000000000e+03,6.254861400000000060e+01
1.175000000000000000e+03,6.073913900000000154e+01
1.176000000000000000e+03,5.915331799999999873e+01
1.177000000000000000e+03,5.775637499999999847e+01
1.178000000000000000e+03,5.651987499999999898e+01
1.179000000000000000e+03,5.542041700000000048e+01
1.180000000000000000e+03,5.443863600000000247e+01
1.181000000000000000e+03,5.355840899999999749e+01
1.182000000000000000e+03,5.276624100000000084e+01
1.183000000000000000e+03,5.205077500000000157e+01
1.184000000000000000e+03,5.140240599999999915e+01
1.185000000000000000e+03,5.081297200000000203e+01
1.186000000000000000e+03,5.027550200000000302e+01
1.187000000000000000e+03,4.978402100000000274e+01
1.188000000000000000e+03,4.933338100000000281e+01
1.189000000000000000e+03,4.891913199999999762e+01
1.190000000000000000e+03,4.853741000000000128e+01
1.191000000000000000e+03,4.818485199999999935e+01
1.192000000000000000e+03,4.785851499999999703e+01
1.193000000000000000e+03,4.755582100000000167e+01
1.194000000000000000e+03,4.727449800000000124e+01
1.195000000000000000e+03,4.701254300000000086e+01
1.196000000000000000e+03,4.676818399999999798e+01
1.197000000000000000e+03,4.653984499999999969e+01
1.198000000000000000e+03,4.632612600000000214e+01
1.199000000000000000e+03,4.612577699999999936e+01
1.200000000000000000e+03,4.593767900000000282e+01
1.201000000000000000e+03,4.576082999999999856e+01
1.202000000000000000e+03,4.559432799999999730e+01
1.203000000000000000e+03,4.543736299999999773e+01
1.204000000000000000e+03,4.528920099999999849e+01
1.205000000000000000e+03,4.514918000000000120e+01
1.206000000000000000e+03,4.501669900000000268e+01
1.207000000000000000e+03,4.489121500000000253e+01
1.208000000000000000e+03,4.477223000000000042e+01
1.209000000000000000e+03,4.465929299999999813e+01
1.210000000000000000e+03,4.455199199999999848e+01
1.211000000000000000e+03,4.444995000000000118e+01
1.212000000000000000e+03,4.435282300000000077e+01
1.213000000000000000e+03,4.426029199999999975e+01
1.214000000000000000e+03,4.417206900000000047e+01
1.215000000000000000e+03,4.408788499999999999e+01
1.216000000000000000e+03,4.400749400000000122e+01
1.217000000000000000e+03,4.393066999999999922e+01
1.218000000000000000e+03,4.385720299999999838e+01
1.219000000000000000e+03,4.378689800000000076e+01
1.220000000000000000e+03,4.371957700000000102e+01
1.221000000000000000e+03,4.365507399999999905e+01
1.222000000000000000e+03,4.359323299999999790e+01
1.223000000000000000e+03,4.353391100000000336e+01
1.224000000000000000e+03,4.347697600000000051e+01
1.225000000000000000e+03,4.342230299999999943e+01
1.226000000000000000e+03,4.336977600000000166e+01
1.227000000000000000e+03,4.331928800000000024e+01
1.228000000000000000e+03,4.327073899999999895e+01
1.229000000000000000e+03,4.322403299999999859e+01
1.230000000000000000e+03,4.317908299999999855e+01
1.231000000000000000e+03,4.313580699999999979e+01
1.232000000000000000e+03,4.309412700000000029e+01
1.233000000000000000e+03,4.305397099999999710e+01
1.234000000000000000e+03,4.301527200000000306e+01
1.235000000000000000e+03,4.297796400000000006e+01
1.236000000000000000e+03,4.294198999999999700e+01
1.237000000000000000e+03,4.290729100000000074e+01
1.238000000000000000e+03,4.287381500000000045e+01
1.239000000000000000e+03,4.284151200000000159e+01
1.240000000000000000e+03,4.281033599999999950e+01
1.241000000000000000e+03,4.278024099999999663e+01
1.242000000000000000e+03,4.275118499999999955e+01
1.243000000000000000e+03,4.272312999999999761e+01
1.244000000000000000e+03,4.269603800000000149e+01
1.245000000000000000e+03,4.266987300000000261e+01
1.246000000000000000e+03,4.264460199999999901e+01
1.247000000000000000e+03,4.262019399999999791e+01
1.248000000000000000e+03,4.259661899999999690e+01
1.249000000000000000e+03,4.257384799999999814e+01
1.250000000000000000e+03,4.255185500000000332e+01
1.251000000000000000e+03,4.253061399999999992e+01
1.252000000000000000e+03,4.251010200000000339e+01
1.253000000000000000e+03,4.249029500000000326e+01
1.254000000000000000e+03,4.247117200000000281e+01
1.255000000000000000e+03,4.245271300000000281e+01
1.256000000000000000e+03,4.243489699999999942e+01
1.257000000000000000e+03,4.241770700000000005e+01
1.258000000000000000e+03,4.240112500000000040e+01
1.259000000000000000e+03,4.238513499999999823e+01
1.260000000000000000e+03,4.236972000000000094e+01
1.261000000000000000e+03,4.235486600000000124e+01
1.262000000000000000e+03,4.234055899999999895e+01
1.263000000000000000e+03,4.232678400000000352e+01
1.264000000000000000e+03,4.231353000000000009e+01
1.265000000000000000e+03,4.230078400000000016e+01
1.266000000000000000e+03,4.228853500000000309e+01
1.267000000000000000e+03,4.227677200000000113e+01
1.268000000000000000e+03,4.226548400000000072e+01
1.269000000000000000e+03,4.225466200000000327e+01
1.270000000000000000e+03,4.224429599999999851e+01
1.271000000000000000e+03,4.223437899999999701e+01
1.272000000000000000e+03,4.222489999999999810e+01
1.273000000000000000e+03,4.221585400000000021e+01
1.274000000000000000e+03,4.220723100000000017e+01
1.275000000000000000e+03,4.219902600000000348e+01
1.276000000000000000e+03,4.219123199999999940e+01
1.277000000000000000e+03,4.218384300000000309e+01
1.278000000000000000e+03,4.217685199999999668e+01
1.279000000000000000e+03,4.217025600000000196e+01
1.280000000000000000e+03,4.216404800000000108e+01
1.281000000000000000e+03,4.215822399999999703e+01
1.282000000000000000e+03,4.215277900000000244e+01
1.283000000000000000e+03,4.214771100000000104e+01
1.284000000000000000e+03,4.214301400000000086e+01
1.285000000000000000e+03,4.213868599999999986e+01
1.286000000000000000e+03,4.213472399999999851e+01
1.287000000000000000e+03,4.213112499999999727e+01
1.288000000000000000e+03,4.212788599999999661e+01
1.289000000000000000e+03,4.212500500000000159e+01
1.290000000000000000e+03,4.212248100000000051e+01
1.291000000000000000e+03,4.212031199999999842e+01
1.292000000000000000e+03,4.211849699999999785e+01
1.293000000000000000e+03,4.211703399999999675e+01
1.294000000000000000e+03,4.211592199999999764e+01
1.295000000000000000e+03,4.211516199999999799e+01
1.296000000000000000e+03,4.211475300000000033e+01
1.297000000000000000e+03,4.211469499999999755e+01
1.298000000000000000e+03,4.211498900000000134e+01
1.299000000000000000e+03,4.211563400000000001e+01
1.300000000000000000e+03,4.211663200000000273e+01
1.301000000000000000e+03,4.211798499999999734e+01
1.302000000000000000e+03,4.211969200000000058e+01
1.303000000000000000e+03,4.212175599999999775e+01
1.304000000000000000e+03,4.212417899999999804e+01
1.305000000000000000e+03,4.212696400000000096e+01
1.306000000000000000e+03,4.213011199999999690e+01
1.307000000000000000e+03,4.213362599999999958e+01
1.308000000000000000e+03,4.213750900000000144e+01
1.309000000000000000e+03,4.214176499999999947e+01
1.310000000000000000e+03,4.214639799999999781e+01
1.311000000000000000e+03,4.215141100000000307e+01
1.312000000000000000e+03,4.215680900000000264e+01
1.313000000000000000e+03,4.216259500000000315e+01
1.314000000000000000e+03,4.216877600000000115e+01
1.315000000000000000e+03,4.217535600000000073e+01
1.316000000000000000e+03,4.218234100000000097e+01
1.317000000000000000e+03,4.218973700000000093e+01
1.318000000000000000e+03,4.219754999999999967e+01
1.319000000000000000e+03,4.220578700000000083e+01
1.320000000000000000e+03,4.221445500000000095e+01
1.321000000000000000e+03,4.222356200000000115e+01
1.322000000000000000e+03,4.223311499999999796e+01
1.323000000000000000e+03,4.224312299999999709e+01
1.324000000000000000e+03,4.225359399999999965e+01
1.325000000000000000e+03,4.226453800000000172e+01
1.326000000000000000e+03,4.227596400000000187e+01
1.327000000000000000e+03,4.228788300000000078e+01
1.328000000000000000e+03,4.230030599999999907e+01
1.329000000000000000e+03,4.231324299999999994e+01
1.330000000000000000e+03,4.232670699999999897e+01
1.331000000000000000e+03,4.234071000000000140e+01
1.332000000000000000e+03,4.235526500000000283e+01
1.333000000000000000e+03,4.237038700000000091e+01
1.334000000000000000e+03,4.238608899999999835e+01
1.335000000000000000e+03,4.240238599999999991e+01
1.336000000000000000e+03,4.241929499999999820e+01
1.337000000000000000e+03,4.243683099999999797e+01
1.338000000000000000e+03,4.245501399999999848e+01
1.339000000000000000e+03,4.247386000000000195e+01
1.340000000000000000e+03,4.249338900000000052e+01
1.341000000000000000e+03,4.251362100000000055e+01
1.342000000000000000e+03,4.253457800000000333e+01
1.343000000000000000e+03,4.255628200000000305e+01
1.344000000000000000e+03,4.257875599999999849e+01
1.345000000000000000e+03,4.260202400000000011e+01
1.346000000000000000e+03,4.262611299999999659e+01
1.347000000000000000e+03,4.265104900000000043e+01
1.348000000000000000e+03,4.267686100000000238e+01
1.349000000000000000e+03,4.270357800000000026e+01
1.350000000000000000e+03,4.273123300000000313e+01
1.351000000000000000e+03,4.275985800000000125e+01
1.352000000000000000e+03,4.278948799999999864e+01
1.353000000000000000e+03,4.282015899999999675e+01
1.354000000000000000e+03,4.285191100000000120e+01
1.355000000000000000e+03,4.288478400000000335e+01
1.356000000000000000e+03,4.291881999999999664e+01
1.357000000000000000e+03,4.295406499999999994e+01
1.358000000000000000e+03,4.299056600000000117e+01
1.359000000000000000e+03,4.302837399999999946e+01
1.360000000000000000e+03,4.306754200000000310e+01
1.361000000000000000e+03,4.310812599999999861e+01
1.362000000000000000e+03,4.315018400000000298e+01
1.363000000000000000e+03,4.319378100000000131e+01
1.364000000000000000e+03,4.323898100000000255e+01
1.365000000000000000e+03,4.328585600000000255e+01
1.366000000000000000e+03,4.333447900000000175e+01
1.367000000000000000e+03,4.338492999999999711e+01
1.368000000000000000e+03,4.343729100000000187e+01
1.369000000000000000e+03,4.349165299999999945e+01
1.370000000000000000e+03,4.354811000000000121e+01
1.371000000000000000e+03,4.360676000000000130e+01
1.372000000000000000e+03,4.366771200000000164e+01
1.373000000000000000e+03,4.373107900000000114e+01
1.374000000000000000e+03,4.379698199999999986e+01
1.375000000000000000e+03,4.386554900000000146e+01
1.376000000000000000e+03,4.393691799999999859e+01
1.377000000000000000e+03,4.401123700000000127e+01
1.378000000000000000e+03,4.408866199999999935e+01
1.379000000000000000e+03,4.416936100000000209e+01
1.380000000000000000e+03,4.425351500000000016e+01
1.381000000000000000e+03,4.434131500000000159e+01
1.382000000000000000e+03,4.443296899999999994e+01
1.383000000000000000e+03,4.452869900000000314e+01
1.384000000000000000e+03,4.462874399999999753e+01
1.385000000000000000e+03,4.473335999999999757e+01
1.386000000000000000e+03,4.484282400000000024e+01
1.387000000000000000e+03,4.495743499999999671e+01
1.388000000000000000e+03,4.507751400000000075e+01
1.389000000000000000e+03,4.520340999999999809e+01
1.390000000000000000e+03,4.533549899999999866e+01
1.391000000000000000e+03,4.547419000000000011e+01
1.392000000000000000e+03,4.561992500000000206e+01
1.393000000000000000e+03,4.577318600000000259e+01
1.394000000000000000e+03,4.593449600000000288e+01
1.395000000000000000e+03,4.610442499999999910e+01
1.396000000000000000e+03,4.628359499999999827e+01
1.397000000000000000e+03,4.647268700000000052e+01
1.398000000000000000e+03,4.667244300000000123e+01
1.399000000000000000e+03,4.688367900000000077e+01
1.400000000000000000e+03,4.710729099999999647e+01
1.401000000000000000e+03,4.734426299999999799e+01
1.402000000000000000e+03,4.759568099999999902e+01
1.403000000000000000e+03,4.786274099999999976e+01
1.404000000000000000e+03,4.814676999999999651e+01
1.405000000000000000e+03,4.844923599999999908e+01
1.406000000000000000e+03,4.877176899999999904e+01
1.407000000000000000e+03,4.911618599999999901e+01
1.408000000000000000e+03,4.948451200000000227e+01
1.409000000000000000e+03,4.987901099999999843e+01
1.410000000000000000e+03,5.030222400000000249e+01
1.411000000000000000e+03,5.075700199999999995e+01
1.412000000000000000e+03,5.124656300000000186e+01
1.413000000000000000e+03,5.177453899999999720e+01
1.414000000000000000e+03,5.234504900000000305e+01
1.415000000000000000e+03,5.296277299999999855e+01
1.416000000000000000e+03,5.363304999999999723e+01
1.417000000000000000e+03,5.436198799999999665e+01
1.418000000000000000e+03,5.515659800000000246e+01
1.419000000000000000e+03,5.602496200000000215e+01
1.420000000000000000e+03,5.697642599999999646e+01
1.421000000000000000e+03,5.802184599999999648e+01
1.422000000000000000e+03,5.917388100000000151e+01
1.423000000000000000e+03,6.044736100000000079e+01
1.424000000000000000e+03,6.185973599999999806e+01
1.425000000000000000e+03,6.343164199999999653e+01
1.426000000000000000e+03,6.518760100000000079e+01
1.427000000000000000e+03,6.715691200000000549e+01
1.428000000000000000e+03,6.937477400000000216e+01
1.429000000000000000e+03,7.188371399999999767e+01
1.430000000000000000e+03,7.473542000000000485e+01
1.431000000000000000e+03,7.799310199999999327e+01
1.432000000000000000e+03,8.173453399999999647e+01
1.433000000000000000e+03,8.605601400000000467e+01
1.434000000000000000e+03,9.107750099999999804e+01
1.435000000000000000e+03,9.694928600000000074e+01
1.436000000000000000e+03,1.038606159999999932e+02
1.437000000000000000e+03,1.120506759999999957e+02
1.438000000000000000e+03,1.218222509999999943e+02
1.439000000000000000e+03,1.335578370000000064e+02
1.440000000000000000e+03,1.477366560000000106e+02
1.441000000000000000e+03,1.649478180000000123e+02
1.442000000000000000e+03,1.858878760000000057e+02
1.443000000000000000e+03,2.113170220000000086e+02
1.444000000000000000e+03,2.419230489999999918e+02
1.445000000000000000e+03,2.780068350000000237e+02
1.446000000000000000e+03,3.188829809999999725e+02
1.447000000000000000e+03,3.619789890000000128e+02
1.448000000000000000e+03,4.019985280000000216e+02
1.449000000000000000e+03,4.312077229999999872e+02
1.450000000000000000e+03,4.420390179999999987e+02
1.451000000000000000e+03,4.312491820000000189e+02
1.452000000000000000e+03,4.020814740000000143e+02
1.453000000000000000e+03,3.621034730000000081e+02
1.454000000000000000e+03,3.190490819999999985e+02
1.455000000000000000e+03,2.782146599999999808e+02
1.456000000000000000e+03,2.421727300000000014e+02
1.457000000000000000e+03,2.116087190000000078e+02
1.458000000000000000e+03,1.862217750000000080e+02
1.459000000000000000e+03,1.653241319999999916e+02
1.460000000000000000e+03,1.481556280000000072e+02
1.461000000000000000e+03,1.340197369999999921e+02
1.462000000000000000e+03,1.223273779999999960e+02
1.463000000000000000e+03,1.125993569999999977e+02
1.464000000000000000e+03,1.044532080000000036e+02
1.465000000000000000e+03,9.758617700000000639e+01
1.466000000000000000e+03,9.175910799999999767e+01
1.467000000000000000e+03,8.678278699999999901e+01
1.468000000000000000e+03,8.250695399999999324e+01
1.469000000000000000e+03,7.881168300000000215e+01
1.470000000000000000e+03,7.560071100000000399e+01
1.471000000000000000e+03,7.279629599999999812e+01
1.472000000000000000e+03,7.033526600000000428e+01
1.473000000000000000e+03,6.816596900000000403e+01
1.474000000000000000e+03,6.624591399999999908e+01
1.475000000000000000e+03,6.453994299999999384e+01
1.476000000000000000e+03,6.301879699999999929e+01
1.477000000000000000e+03,6.165799299999999761e+01
1.478000000000000000e+03,6.043693999999999988e+01
1.479000000000000000e+03,5.933823199999999787e+01
1.480000000000000000e+03,5.834708499999999987e+01
1.481000000000000000e+03,5.745088599999999701e+01
1.482000000000000000e+03,5.663883100000000326e+01
1.483000000000000000e+03,5.590162399999999820e+01
1.484000000000000000e+03,5.523123700000000014e+01
1.485000000000000000e+03,5.462071300000000207e+01
1.486000000000000000e+03,5.406400299999999959e+01
1.487000000000000000e+03,5.355583000000000027e+01
1.488000000000000000e+03,5.309157400000000138e+01
1.489000000000000000e+03,5.266718399999999889e+01
1.490000000000000000e+03,5.227909499999999809e+01
1.491000000000000000e+03,5.192416399999999754e+01
1.492000000000000000e+03,5.159961100000000300e+01
1.493000000000000000e+03,5.130297800000000308e+01
1.494000000000000000e+03,5.103208200000000261e+01
1.495000000000000000e+03,5.078498299999999688e+01
1.496000000000000000e+03,5.055995800000000173e+01
1.497000000000000000e+03,5.035547199999999890e+01
1.498000000000000000e+03,5.017015500000000117e+01
1.499000000000000000e+03,5.000278999999999741e+01
1.500000000000000000e+03,4.985229000000000354e+01
1.501000000000000000e+03,4.971768800000000255e+01
1.502000000000000000e+03,4.959812199999999649e+01
1.503000000000000000e+03,4.949282900000000041e+01
1.504000000000000000e+03,4.940113099999999946e+01
1.505000000000000000e+03,4.932243100000000169e+01
1.506000000000000000e+03,4.925620299999999929e+01
1.507000000000000000e+03,4.920199099999999959e+01
1.508000000000000000e+03,4.915939699999999846e+01
1.509000000000000000e+03,4.912808199999999914e+01
1.510000000000000000e+03,4.910776200000000102e+01
1.511000000000000000e+03,4.909819999999999851e+01
1.512000000000000000e+03,4.909920999999999935e+01
1.513000000000000000e+03,4.911065099999999717e+01
1.514000000000000000e+03,4.913242499999999779e+01
1.515000000000000000e+03,4.916447900000000004e+01
1.516000000000000000e+03,4.920679799999999915e+01
1.517000000000000000e+03,4.925941300000000211e+01
1.518000000000000000e+03,4.932239200000000068e+01
1.519000000000000000e+03,4.939584700000000339e+01
1.520000000000000000e+03,4.947993000000000308e+01
1.521000000000000000e+03,4.957483599999999768e+01
1.522000000000000000e+03,4.968080599999999691e+01
1.523000000000000000e+03,4.979812299999999681e+01
1.524000000000000000e+03,4.992712000000000216e+01
1.525000000000000000e+03,5.006817999999999813e+01
1.526000000000000000e+03,5.022173800000000199e+01
1.527000000000000000e+03,5.038828600000000080e+01
1.528000000000000000e+03,5.056837500000000318e+01
1.529000000000000000e+03,5.076262400000000241e+01
1.530000000000000000e+03,5.097172100000000228e+01
1.531000000000000000e+03,5.119642999999999944e+01
1.532000000000000000e+03,5.143759899999999874e+01
1.533000000000000000e+03,5.169616700000000264e+01
1.534000000000000000e+03,5.197317600000000226e+01
1.535000000000000000e+03,5.226977800000000229e+01
1.536000000000000000e+03,5.258724800000000243e+01
1.537000000000000000e+03,5.292699799999999755e+01
1.538000000000000000e+03,5.329059600000000074e+01
1.539000000000000000e+03,5.367977700000000141e+01
1.540000000000000000e+03,5.409647199999999856e+01
1.541000000000000000e+03,5.454282700000000261e+01
1.542000000000000000e+03,5.502123300000000228e+01
1.543000000000000000e+03,5.553435900000000203e+01
1.544000000000000000e+03,5.608519100000000179e+01
1.545000000000000000e+03,5.667707300000000004e+01
1.546000000000000000e+03,5.731376199999999699e+01
1.547000000000000000e+03,5.799949099999999902e+01
1.548000000000000000e+03,5.873903899999999823e+01
1.549000000000000000e+03,5.953781800000000146e+01
1.550000000000000000e+03,6.040197599999999767e+01
1.551000000000000000e+03,6.133851899999999802e+01
1.552000000000000000e+03,6.235546200000000283e+01
1.553000000000000000e+03,6.346200199999999825e+01
1.554000000000000000e+03,6.466873900000000219e+01
1.555000000000000000e+03,6.598793700000000229e+01
1.556000000000000000e+03,6.743384799999999757e+01
1.557000000000000000e+03,6.902311000000000263e+01
1.558000000000000000e+03,7.077524099999999407e+01
1.559000000000000000e+03,7.271325299999999459e+01
1.560000000000000000e+03,7.486442599999999459e+01
1.561000000000000000e+03,7.726127599999999518e+01
1.562000000000000000e+03,7.994279400000000635e+01
1.563000000000000000e+03,8.295601399999999614e+01
1.564000000000000000e+03,8.635803900000000510e+01
1.565000000000000000e+03,9.021863500000000613e+01
1.566000000000000000e+03,9.462360099999999363e+01
1.567000000000000000e+03,9.967913000000000068e+01
1.568000000000000000e+03,1.055174590000000023e+02
1.569000000000000000e+03,1.123041539999999969e+02
1.570000000000000000e+03,1.202473849999999942e+02
1.571000000000000000e+03,1.296094459999999913e+02
1.572000000000000000e+03,1.407203560000000095e+02
1.573000000000000000e+03,1.539922720000000140e+02
1.574000000000000000e+03,1.699308049999999923e+02
1.575000000000000000e+03,1.891335689999999943e+02
1.576000000000000000e+03,2.122547429999999906e+02
1.577000000000000000e+03,2.398937099999999987e+02
1.578000000000000000e+03,2.723366809999999987e+02
1.579000000000000000e+03,3.090635849999999891e+02
1.580000000000000000e+03,3.480066410000000019e+02
1.581000000000000000e+03,3.848622639999999819e+02
1.582000000000000000e+03,4.133300960000000259e+02
1.583000000000000000e+03,4.272648479999999722e+02
1.584000000000000000e+03,4.241113760000000070e+02
1.585000000000000000e+03,4.066945989999999824e+02
1.586000000000000000e+03,3.814436759999999822e+02
1.587000000000000000e+03,3.549719989999999825e+02
1.588000000000000000e+03,3.319423620000000028e+02
1.589000000000000000e+03,3.148478039999999964e+02
1.590000000000000000e+03,3.047230850000000260e+02
1.591000000000000000e+03,3.019128349999999728e+02
1.592000000000000000e+03,3.065924120000000244e+02
1.593000000000000000e+03,3.190477639999999724e+02
1.594000000000000000e+03,3.397838800000000106e+02
1.595000000000000000e+03,3.694930279999999811e+02
1.596000000000000000e+03,4.088459129999999959e+02
1.597000000000000000e+03,4.579933239999999728e+02
1.598000000000000000e+03,5.156230819999999540e+02
1.599000000000000000e+03,5.775504690000000210e+02
1.600000000000000000e+03,6.354100280000000112e+02
1.601000000000000000e+03,6.770902429999999868e+02
1.602000000000000000e+03,6.907624210000000176e+02
1.603000000000000000e+03,6.713200910000000476e+02
1.604000000000000000e+03,6.237261150000000498e+02
1.605000000000000000e+03,5.596580790000000434e+02
1.606000000000000000e+03,4.910608669999999734e+02
1.607000000000000000e+03,4.261087259999999901e+02
1.608000000000000000e+03,3.687600090000000250e+02
1.609000000000000000e+03,3.200529290000000060e+02
1.610000000000000000e+03,2.795009099999999762e+02
1.611000000000000000e+03,2.460208680000000072e+02
1.612000000000000000e+03,2.184201250000000130e+02
1.613000000000000000e+03,1.956068040000000110e+02
1.614000000000000000e+03,1.766573579999999879e+02
1.615000000000000000e+03,1.608200490000000116e+02
1.616000000000000000e+03,1.474943120000000079e+02
1.617000000000000000e+03,1.362041780000000131e+02
1.618000000000000000e+03,1.265731380000000001e+02
1.619000000000000000e+03,1.183028340000000043e+02
1.620000000000000000e+03,1.111559220000000039e+02
1.621000000000000000e+03,1.049426160000000010e+02
1.622000000000000000e+03,9.951026899999999387e+01
1.623000000000000000e+03,9.473534399999999778e+01
1.624000000000000000e+03,9.051722499999999627e+01
1.625000000000000000e+03,8.677345200000000602e+01
1.626000000000000000e+03,8.343602099999999666e+01
1.627000000000000000e+03,8.044851800000000708e+01
1.628000000000000000e+03,7.776386700000000474e+01
1.629000000000000000e+03,7.534256899999999746e+01
1.630000000000000000e+03,7.315130299999999863e+01
1.631000000000000000e+03,7.116181799999999669e+01
1.632000000000000000e+03,6.935004399999999691e+01
1.633000000000000000e+03,6.769537699999999347e+01
1.634000000000000000e+03,6.618010599999999499e+01
1.635000000000000000e+03,6.478893800000000169e+01
1.636000000000000000e+03,6.350861499999999893e+01
1.637000000000000000e+03,6.232760400000000089e+01
1.638000000000000000e+03,6.123583099999999746e+01
1.639000000000000000e+03,6.022446699999999709e+01
1.640000000000000000e+03,5.928575000000000017e+01
1.641000000000000000e+03,5.841283399999999659e+01
1.642000000000000000e+03,5.759966000000000008e+01
1.643000000000000000e+03,5.684085300000000274e+01
1.644000000000000000e+03,5.613163099999999872e+01
1.645000000000000000e+03,5.546772699999999645e+01
1.646000000000000000e+03,5.484532399999999797e+01
1.647000000000000000e+03,5.426100100000000026e+01
1.648000000000000000e+03,5.371168399999999821e+01
1.649000000000000000e+03,5.319460200000000327e+01
1.650000000000000000e+03,5.319460200000000327e+01
1.651000000000000000e+03,5.224738399999999672e+01
1.652000000000000000e+03,5.181293699999999802e+01
1.653000000000000000e+03,5.140205499999999716e+01
1.654000000000000000e+03,5.101304400000000072e+01
1.655000000000000000e+03,5.064436100000000351e+01
1.656000000000000000e+03,5.029459800000000058e+01
1.657000000000000000e+03,4.996246800000000121e+01
1.658000000000000000e+03,4.964678899999999828e+01
1.659000000000000000e+03,4.934647999999999968e+01
1.660000000000000000e+03,4.906054799999999716e+01
1.661000000000000000e+03,4.878807700000000125e+01
1.662000000000000000e+03,4.852822400000000158e+01
1.663000000000000000e+03,4.828021300000000338e+01
1.664000000000000000e+03,4.804332600000000042e+01
1.665000000000000000e+03,4.781689800000000190e+01
1.666000000000000000e+03,4.760031500000000193e+01
1.667000000000000000e+03,4.739300599999999974e+01
1.668000000000000000e+03,4.719444200000000222e+01
1.669000000000000000e+03,4.700413199999999847e+01
1.670000000000000000e+03,4.682161700000000337e+01
1.671000000000000000e+03,4.664647200000000282e+01
1.672000000000000000e+03,4.647829999999999728e+01
1.673000000000000000e+03,4.631672999999999973e+01
1.674000000000000000e+03,4.616141700000000014e+01
1.675000000000000000e+03,4.601203600000000193e+01
1.676000000000000000e+03,4.586828400000000272e+01
1.677000000000000000e+03,4.572987899999999684e+01
1.678000000000000000e+03,4.559655399999999759e+01
1.679000000000000000e+03,4.546806099999999873e+01
1.680000000000000000e+03,4.534416399999999925e+01
1.681000000000000000e+03,4.522464300000000037e+01
1.682000000000000000e+03,4.510929300000000097e+01
1.683000000000000000e+03,4.499791700000000105e+01
1.684000000000000000e+03,4.489033400000000285e+01
1.685000000000000000e+03,4.478636800000000306e+01
1.686000000000000000e+03,4.468585900000000066e+01
1.687000000000000000e+03,4.458865099999999870e+01
1.688000000000000000e+03,4.449459900000000090e+01
1.689000000000000000e+03,4.440356599999999787e+01
1.690000000000000000e+03,4.431542100000000062e+01
1.691000000000000000e+03,4.423004300000000200e+01
1.692000000000000000e+03,4.414731299999999692e+01
1.693000000000000000e+03,4.406712300000000226e+01
1.694000000000000000e+03,4.398936700000000144e+01
1.695000000000000000e+03,4.391394600000000281e+01
1.696000000000000000e+03,4.384076499999999754e+01
1.697000000000000000e+03,4.376973600000000175e+01
1.698000000000000000e+03,4.370077400000000267e+01
1.699000000000000000e+03,4.363379700000000128e+01
1.700000000000000000e+03,4.356872800000000012e+01
1.701000000000000000e+03,4.350549500000000336e+01
1.702000000000000000e+03,4.344402800000000298e+01
1.703000000000000000e+03,4.338425999999999760e+01
1.704000000000000000e+03,4.332612799999999709e+01
1.705000000000000000e+03,4.326957300000000117e+01
1.706000000000000000e+03,4.321453499999999792e+01
1.707000000000000000e+03,4.316096100000000035e+01
1.708000000000000000e+03,4.310879800000000017e+01
1.709000000000000000e+03,4.305799600000000282e+01
1.710000000000000000e+03,4.300850700000000160e+01
1.711000000000000000e+03,4.300850700000000160e+01
1.712000000000000000e+03,4.291328599999999938e+01
1.713000000000000000e+03,4.286746999999999730e+01
1.714000000000000000e+03,4.282279499999999928e+01
1.715000000000000000e+03,4.277922300000000178e+01
1.716000000000000000e+03,4.273671699999999873e+01
1.717000000000000000e+03,4.269524299999999783e+01
1.718000000000000000e+03,4.265476600000000218e+01
1.719000000000000000e+03,4.261525400000000019e+01
1.720000000000000000e+03,4.257667500000000160e+01
1.721000000000000000e+03,4.253900099999999895e+01
1.722000000000000000e+03,4.250220300000000151e+01
1.723000000000000000e+03,4.246625199999999722e+01
1.724000000000000000e+03,4.243112299999999948e+01
1.725000000000000000e+03,4.239679000000000286e+01
1.726000000000000000e+03,4.236322799999999944e+01
1.727000000000000000e+03,4.233041500000000212e+01
1.728000000000000000e+03,4.229832799999999793e+01
1.729000000000000000e+03,4.226694400000000229e+01
1.730000000000000000e+03,4.223624399999999923e+01
1.731000000000000000e+03,4.220620600000000167e+01
1.732000000000000000e+03,4.217681199999999819e+01
1.733000000000000000e+03,4.214804300000000126e+01
1.734000000000000000e+03,4.211988099999999946e+01
1.735000000000000000e+03,4.209230800000000272e+01
1.736000000000000000e+03,4.206530800000000170e+01
1.737000000000000000e+03,4.203886399999999668e+01
1.738000000000000000e+03,4.201296200000000169e+01
1.739000000000000000e+03,4.198758600000000030e+01
1.740000000000000000e+03,4.196272100000000194e+01
1.741000000000000000e+03,4.193835399999999680e+01
1.742000000000000000e+03,4.191447099999999892e+01
1.743000000000000000e+03,4.189105899999999849e+01
1.744000000000000000e+03,4.186810599999999738e+01
1.745000000000000000e+03,4.184559800000000251e+01
1.746000000000000000e+03,4.182352499999999651e+01
1.747000000000000000e+03,4.180187600000000003e+01
1.748000000000000000e+03,4.178063800000000327e+01
1.749000000000000000e+03,4.175980100000000306e+01
1.750000000000000000e+03,4.173935600000000079e+01
1.751000000000000000e+03,4.171929200000000293e+01
1.752000000000000000e+03,4.169959899999999919e+01
1.753000000000000000e+03,4.168026799999999810e+01
1.754000000000000000e+03,4.166129099999999852e+01
1.755000000000000000e+03,4.164265699999999981e+01
1.756000000000000000e+03,4.162436000000000291e+01
1.757000000000000000e+03,4.160638900000000007e+01
1.758000000000000000e+03,4.158873899999999679e+01
1.759000000000000000e+03,4.157139999999999702e+01
1.760000000000000000e+03,4.155436600000000169e+01
1.761000000000000000e+03,4.153762799999999800e+01
1.762000000000000000e+03,4.152118099999999856e+01
1.763000000000000000e+03,4.150501700000000227e+01
1.764000000000000000e+03,4.148912899999999837e+01
1.765000000000000000e+03,4.147351100000000201e+01
1.766000000000000000e+03,4.145815699999999993e+01
1.767000000000000000e+03,4.144306100000000015e+01
1.768000000000000000e+03,4.142821699999999652e+01
1.769000000000000000e+03,4.141361899999999707e+01
1.770000000000000000e+03,4.139926100000000275e+01
1.771000000000000000e+03,4.138513900000000234e+01
1.772000000000000000e+03,4.137124599999999930e+01
1.773000000000000000e+03,4.135757799999999662e+01
1.774000000000000000e+03,4.134412999999999982e+01
1.775000000000000000e+03,4.133089700000000022e+01
1.776000000000000000e+03,4.131787400000000332e+01
1.777000000000000000e+03,4.130505699999999791e+01
1.778000000000000000e+03,4.129244200000000120e+01
1.779000000000000000e+03,4.128002299999999991e+01
1.780000000000000000e+03,4.126779700000000162e+01
1.781000000000000000e+03,4.125576000000000221e+01
1.782000000000000000e+03,4.124390700000000010e+01
1.783000000000000000e+03,4.123223600000000033e+01
1.784000000000000000e+03,4.122074099999999675e+01
1.785000000000000000e+03,4.120942000000000149e+01
1.786000000000000000e+03,4.119826799999999878e+01
1.787000000000000000e+03,4.118728300000000075e+01
1.788000000000000000e+03,4.117646100000000331e+01
1.789000000000000000e+03,4.116579899999999981e+01
1.790000000000000000e+03,4.115529300000000035e+01
1.791000000000000000e+03,4.114493999999999829e+01
1.792000000000000000e+03,4.113473700000000122e+01
1.793000000000000000e+03,4.112468199999999996e+01
1.794000000000000000e+03,4.111477099999999751e+01
1.795000000000000000e+03,4.110500100000000145e+01
1.796000000000000000e+03,4.109537000000000262e+01
1.797000000000000000e+03,4.108587599999999895e+01
1.798000000000000000e+03,4.107651400000000308e+01
1.799000000000000000e+03,4.106728400000000079e+01
1.800000000000000000e+03,4.105818099999999760e+01
1.801000000000000000e+03,4.104920500000000061e+01
1.802000000000000000e+03,4.104035199999999861e+01
1.803000000000000000e+03,4.103161999999999665e+01
1.804000000000000000e+03,4.102300799999999725e+01
1.805000000000000000e+03,4.101451200000000341e+01
1.806000000000000000e+03,4.100612999999999886e+01
1.807000000000000000e+03,4.099786100000000033e+01
1.808000000000000000e+03,4.098970200000000119e+01
1.809000000000000000e+03,4.098165099999999939e+01
1.810000000000000000e+03,4.097370699999999744e+01
1.811000000000000000e+03,4.096586700000000292e+01
1.812000000000000000e+03,4.095812999999999704e+01
1.813000000000000000e+03,4.095049300000000159e+01
1.814000000000000000e+03,4.094295499999999777e+01
1.815000000000000000e+03,4.093551399999999774e+01
1.816000000000000000e+03,4.092816899999999691e+01
1.817000000000000000e+03,4.092091800000000035e+01
1.818000000000000000e+03,4.091375800000000140e+01
1.819000000000000000e+03,4.090668900000000008e+01
1.820000000000000000e+03,4.089970900000000142e+01
1.821000000000000000e+03,4.089281600000000338e+01
1.822000000000000000e+03,4.088600999999999885e+01
1.823000000000000000e+03,4.087928699999999793e+01
1.824000000000000000e+03,4.087264799999999809e+01
1.825000000000000000e+03,4.086608999999999980e+01
1.826000000000000000e+03,4.085961199999999849e+01
1.827000000000000000e+03,4.085321299999999667e+01
1.828000000000000000e+03,4.084689199999999687e+01
1.829000000000000000e+03,4.084064699999999704e+01
1.830000000000000000e+03,4.083447699999999969e+01
1.831000000000000000e+03,4.082838000000000278e+01
1.832000000000000000e+03,4.082235599999999920e+01
1.833000000000000000e+03,4.081640300000000110e+01
1.834000000000000000e+03,4.081052100000000138e+01
1.835000000000000000e+03,4.080470700000000051e+01
1.836000000000000000e+03,4.079896200000000306e+01
1.837000000000000000e+03,4.079328300000000240e+01
1.838000000000000000e+03,4.078766999999999854e+01
1.839000000000000000e+03,4.078212200000000109e+01
1.840000000000000000e+03,4.077663700000000091e+01
1.841000000000000000e+03,4.077121499999999799e+01
1.842000000000000000e+03,4.076585500000000195e+01
1.843000000000000000e+03,4.076055499999999654e+01
1.844000000000000000e+03,4.075531500000000307e+01
1.845000000000000000e+03,4.075013400000000274e+01
1.846000000000000000e+03,4.074501099999999809e+01
1.847000000000000000e+03,4.073994499999999874e+01
1.848000000000000000e+03,4.073493500000000012e+01
1.849000000000000000e+03,4.072998100000000221e+01
1.850000000000000000e+03,4.072508100000000297e+01
1.851000000000000000e+03,4.072023399999999782e+01
1.852000000000000000e+03,4.071544000000000096e+01
1.853000000000000000e+03,4.071069899999999819e+01
1.854000000000000000e+03,4.070600799999999708e+01
1.855000000000000000e+03,4.070136800000000221e+01
1.856000000000000000e+03,4.069677800000000190e+01
1.857000000000000000e+03,4.069223699999999866e+01
1.858000000000000000e+03,4.068774400000000213e+01
1.859000000000000000e+03,4.068329899999999810e+01
1.860000000000000000e+03,4.067889999999999873e+01
1.861000000000000000e+03,4.067454800000000148e+01
1.862000000000000000e+03,4.067024099999999720e+01
1.863000000000000000e+03,4.066597999999999757e+01
1.864000000000000000e+03,4.066176200000000307e+01
1.865000000000000000e+03,4.065758799999999695e+01
1.866000000000000000e+03,4.065345700000000306e+01
1.867000000000000000e+03,4.064936800000000261e+01
1.868000000000000000e+03,4.064532100000000270e+01
1.869000000000000000e+03,4.064131499999999875e+01
1.870000000000000000e+03,4.063734999999999786e+01
1.871000000000000000e+03,4.063342500000000257e+01
1.872000000000000000e+03,4.062953900000000118e+01
1.873000000000000000e+03,4.062569200000000080e+01
1.874000000000000000e+03,4.062188400000000144e+01
1.875000000000000000e+03,4.061811300000000102e+01
1.876000000000000000e+03,4.061437999999999704e+01
1.877000000000000000e+03,4.061068399999999912e+01
1.878000000000000000e+03,4.060702299999999809e+01
1.879000000000000000e+03,4.060339900000000313e+01
1.880000000000000000e+03,4.059980999999999796e+01
1.881000000000000000e+03,4.059625599999999679e+01
1.882000000000000000e+03,4.059273600000000215e+01
1.883000000000000000e+03,4.058924999999999983e+01
1.884000000000000000e+03,4.058579799999999693e+01
1.885000000000000000e+03,4.058237900000000309e+01
1.886000000000000000e+03,4.057899199999999951e+01
1.887000000000000000e+03,4.057563799999999787e+01
1.888000000000000000e+03,4.057231500000000324e+01
1.889000000000000000e+03,4.056902300000000139e+01
1.890000000000000000e+03,4.056576299999999691e+01
1.891000000000000000e+03,4.056253300000000195e+01
1.892000000000000000e+03,4.055933300000000230e+01
1.893000000000000000e+03,4.055616299999999796e+01
1.894000000000000000e+03,4.055302199999999857e+01
1.895000000000000000e+03,4.054990999999999701e+01
1.896000000000000000e+03,4.054682700000000040e+01
1.897000000000000000e+03,4.054377199999999704e+01
1.898000000000000000e+03,4.054074500000000114e+01
1.899000000000000000e+03,4.053774500000000103e+01
1.900000000000000000e+03,4.053477300000000128e+01
1.901000000000000000e+03,4.053182699999999983e+01
1.902000000000000000e+03,4.052890800000000127e+01
1.903000000000000000e+03,4.052601500000000101e+01
1.904000000000000000e+03,4.052314799999999906e+01
1.905000000000000000e+03,4.052030700000000252e+01
1.906000000000000000e+03,4.051749099999999970e+01
1.907000000000000000e+03,4.051469900000000024e+01
1.908000000000000000e+03,4.051193299999999908e+01
1.909000000000000000e+03,4.050918999999999670e+01
1.910000000000000000e+03,4.050647200000000225e+01
1.911000000000000000e+03,4.050377699999999948e+01
1.912000000000000000e+03,4.050110600000000005e+01
1.913000000000000000e+03,4.049845700000000193e+01
1.914000000000000000e+03,4.049583200000000005e+01
1.915000000000000000e+03,4.049322899999999947e+01
1.916000000000000000e+03,4.049064899999999767e+01
1.917000000000000000e+03,4.048809099999999717e+01
1.918000000000000000e+03,4.048555400000000049e+01
1.919000000000000000e+03,4.048303899999999800e+01
1.920000000000000000e+03,4.048054599999999681e+01
1.921000000000000000e+03,4.047807300000000197e+01
1.922000000000000000e+03,4.047562099999999674e+01
1.923000000000000000e+03,4.047319000000000244e+01
1.924000000000000000e+03,4.047077900000000028e+01
1.925000000000000000e+03,4.046838799999999736e+01
1.926000000000000000e+03,4.046601600000000332e+01
1.927000000000000000e+03,4.046366499999999888e+01
1.928000000000000000e+03,4.046133300000000332e+01
1.929000000000000000e+03,4.045902000000000243e+01
1.930000000000000000e+03,4.045672600000000330e+01
1.931000000000000000e+03,4.045445099999999883e+01
1.932000000000000000e+03,4.045219399999999865e+01
1.933000000000000000e+03,4.044995500000000277e+01
1.934000000000000000e+03,4.044773500000000155e+01
1.935000000000000000e+03,4.044553200000000004e+01
1.936000000000000000e+03,4.044334800000000030e+01
1.937000000000000000e+03,4.044118000000000279e+01
1.938000000000000000e+03,4.043903000000000247e+01
1.939000000000000000e+03,4.043689799999999934e+01
1.940000000000000000e+03,4.043478199999999845e+01
1.941000000000000000e+03,4.043268299999999726e+01
1.942000000000000000e+03,4.043059999999999832e+01
1.943000000000000000e+03,4.042853399999999908e+01
1.944000000000000000e+03,4.042648400000000208e+01
1.945000000000000000e+03,4.042445000000000022e+01
1.946000000000000000e+03,4.042243100000000311e+01
1.947000000000000000e+03,4.042042899999999861e+01
1.948000000000000000e+03,4.041844199999999887e+01
1.949000000000000000e+03,4.041646999999999679e+01
1.950000000000000000e+03,4.041451399999999694e+01
1.951000000000000000e+03,4.041257199999999727e+01
1.952000000000000000e+03,4.041064599999999984e+01
1.953000000000000000e+03,4.040873400000000260e+01
1.954000000000000000e+03,4.040683599999999842e+01
1.955000000000000000e+03,4.040495299999999901e+01
1.956000000000000000e+03,4.040308399999999978e+01
1.957000000000000000e+03,4.040122999999999820e+01
1.958000000000000000e+03,4.039938899999999933e+01
1.959000000000000000e+03,4.039756200000000064e+01
1.960000000000000000e+03,4.039574900000000213e+01
1.961000000000000000e+03,4.039394899999999922e+01
1.962000000000000000e+03,4.039216199999999901e+01
1.963000000000000000e+03,4.039038899999999899e+01
1.964000000000000000e+03,4.038862900000000167e+01
1.965000000000000000e+03,4.038688199999999995e+01
1.966000000000000000e+03,4.038514700000000346e+01
1.967000000000000000e+03,4.038342600000000004e+01
1.968000000000000000e+03,4.038171700000000186e+01
1.969000000000000000e+03,4.038002000000000180e+01
1.970000000000000000e+03,4.037833499999999987e+01
1.971000000000000000e+03,4.037666300000000064e+01
1.972000000000000000e+03,4.037500299999999953e+01
1.973000000000000000e+03,4.037335499999999655e+01
1.974000000000000000e+03,4.037171899999999880e+01
1.975000000000000000e+03,4.037009400000000170e+01
1.976000000000000000e+03,4.036848100000000272e+01
1.977000000000000000e+03,4.036687899999999729e+01
1.978000000000000000e+03,4.036528899999999709e+01
1.979000000000000000e+03,4.036370999999999754e+01
1.980000000000000000e+03,4.036214199999999863e+01
1.981000000000000000e+03,4.036058500000000038e+01
1.982000000000000000e+03,4.035903900000000277e+01
1.983000000000000000e+03,4.035750399999999871e+01
1.984000000000000000e+03,4.035598000000000241e+01
1.985000000000000000e+03,4.035446600000000217e+01
1.986000000000000000e+03,4.035296300000000258e+01
1.987000000000000000e+03,4.035146999999999906e+01
1.988000000000000000e+03,4.034998699999999872e+01
1.989000000000000000e+03,4.034851499999999902e+01
1.990000000000000000e+03,4.034705199999999792e+01
1.991000000000000000e+03,4.034559999999999746e+01
1.992000000000000000e+03,4.034415800000000019e+01
1.993000000000000000e+03,4.034272500000000150e+01
1.994000000000000000e+03,4.034130199999999888e+01
1.995000000000000000e+03,4.033988899999999944e+01
1.996000000000000000e+03,4.033848600000000317e+01
1.997000000000000000e+03,4.033709100000000092e+01
1.998000000000000000e+03,4.033570600000000184e+01
1.999000000000000000e+03,4.033433099999999882e+01
2.000000000000000000e+03,4.033296399999999693e+01
