pixel_index,raman_shift_cm-1,intensity
0,200.000,20.22455646031233
1,201.000,16.945352138936187
2,202.000,23.2564153933115
3,203.000,27.12405745820888
4,204.000,31.27219356839896
5,205.000,24.968411958652155
6,206.000,20.84828286373903
7,207.000,19.309216518430333
8,208.000,28.363848157496477
9,209.000,33.53329201570807
10,210.000,25.21417832783561
11,211.000,16.03031832864974
12,212.000,17.53318325292105
13,213.000,32.735134335420014
14,214.000,24.204326810917223
15,215.000,12.446004914183277
16,216.000,22.188192879988833
17,217.000,15.56234694310416
18,218.000,18.617089338300104
19,219.000,19.31568430034713
20,220.000,17.814529064015744
21,221.000,25.265163864076612
22,222.000,21.41665793530018
23,223.000,18.108667512457203
24,224.000,23.952968830318127
25,225.000,26.323968123653458
26,226.000,11.33620462723377
27,227.000,19.503287575829745
28,228.000,15.008329204211861
29,229.000,19.702850747150706
30,230.000,12.854065439416843
31,231.000,20.56334851578083
32,232.000,20.060354211013248
33,233.000,18.30994475988456
34,234.000,13.696558397165518
35,235.000,17.454967357626515
36,236.000,13.13197887603826
37,237.000,11.396397187171203
38,238.000,20.723918525795966
39,239.000,12.566522126683026
40,240.000,26.09168022460301
41,241.000,23.216581054326525
42,242.000,6.7771798506241225
43,243.000,20.24375484826635
44,244.000,11.847463282023739
45,245.000,18.502772386666777
46,246.000,18.412774396966256
47,247.000,6.066848547692587
48,248.000,16.44323307361634
49,249.000,16.155267209508168
50,250.000,23.30815119013846
51,251.000,10.293515250277949
52,252.000,21.65640462469713
53,253.000,10.480187548166612
54,254.000,14.932067255456843
55,255.000,11.722681981338496
56,256.000,25.303540960582097
57,257.000,19.865992427958247
58,258.000,30.89260161823745
59,259.000,19.99913176619026
60,260.000,21.062956106587365
61,261.000,20.882405874199208
62,262.000,12.04389330379638
63,263.000,15.108594630149469
64,264.000,23.476255088029063
65,265.000,12.839730912205596
66,266.000,16.196905337449834
67,267.000,14.781803598532122
68,268.000,18.409446930223226
69,269.000,12.40966956729352
70,270.000,13.529899744513727
71,271.000,15.743284696654428
72,272.000,14.752042658486005
73,273.000,8.788958864779204
74,274.000,19.19837255030444
75,275.000,5.87765894983238
76,276.000,6.3067182981334895
77,277.000,5.663325829978476
78,278.000,19.004976780137838
79,279.000,10.884364383382092
80,280.000,7.066676874481857
81,281.000,5.921659488207695
82,282.000,15.109482459330138
83,283.000,6.098579022619788
84,284.000,4.64010241284717
85,285.000,15.801505864782825
86,286.000,4.782305613197423
87,287.000,9.872958892861448
88,288.000,11.612091938545461
89,289.000,8.825759985020113
90,290.000,11.018363267055804
91,291.000,19.220768019423247
92,292.000,7.932011476893024
93,293.000,3.322835874235466
94,294.000,-0.2964385537786143
95,295.000,9.340856427621304
96,296.000,8.301390053205694
97,297.000,11.851022557745125
98,298.000,7.320623176010315
99,299.000,7.079946142771632
100,300.000,5.469644692799818
101,301.000,6.524821060865293
102,302.000,10.45066148173862
103,303.000,7.053193190190484
104,304.000,9.784056420991305
105,305.000,20.43471640891181
106,306.000,11.748584388722463
107,307.000,-0.736282404806218
108,308.000,18.96791626309647
109,309.000,10.500186627201003
110,310.000,2.611538922277873
111,311.000,13.54911738309778
112,312.000,8.059676244431216
113,313.000,4.109466741048777
114,314.000,3.846880107721006
115,315.000,1.534622579218535
116,316.000,7.631332390311854
117,317.000,13.603054775771454
118,318.000,5.087509970368103
119,319.000,9.410570208872173
120,320.000,17.98744472605432
121,321.000,-0.7058902433149115
122,322.000,7.975016535535019
123,323.000,4.439638297374756
124,324.000,-0.22874772302532165
125,325.000,-0.1796112908943428
126,326.000,5.732600828538011
127,327.000,8.276491870042378
128,328.000,2.3329360683893015
129,329.000,5.698147658349399
130,330.000,9.554554874693167
131,331.000,6.850341952191229
132,332.000,10.132841125614107
133,333.000,7.53921762973232
134,334.000,7.549083699316498
135,335.000,15.43124356913728
136,336.000,8.061046473965064
137,337.000,4.949608648570518
138,338.000,8.283403327724272
139,339.000,-1.6398462538032845
140,340.000,1.700020138758589
141,341.000,8.33712974018033
142,342.000,7.21428378523251
143,343.000,12.571700508685637
144,344.000,3.196546145310492
145,345.000,-5.787869070122497
146,346.000,14.522185097157319
147,347.000,9.248884881920276
148,348.000,-3.8078504810628715
149,349.000,10.65278724297849
150,350.000,2.4457602888147107
151,351.000,-8.778501108783473
152,352.000,-0.5630917150455161
153,353.000,-1.2401952952008628
154,354.000,11.212751385521017
155,355.000,-3.2300734381094003
156,356.000,-0.14444553132130977
157,357.000,-0.42813965934431053
158,358.000,-1.185995587407831
159,359.000,-4.540935080741292
160,360.000,2.113954095425754
161,361.000,7.11644017586417
162,362.000,4.255919395344165
163,363.000,-5.196237011363394
164,364.000,-6.6731678094880635
165,365.000,0.7968062357407462
166,366.000,-4.299006640906612
167,367.000,-3.9827372046592586
168,368.000,-10.42185122074676
169,369.000,11.217603545601435
170,370.000,4.8729883291558735
171,371.000,-6.611266635312859
172,372.000,4.54062988696586
173,373.000,7.005772130762409
174,374.000,-15.526698669152381
175,375.000,-4.622979278008245
176,376.000,-3.796785461034233
177,377.000,2.281245016539799
178,378.000,-2.476107610515214
179,379.000,-3.26863110742903
180,380.000,-2.3746922394308285
181,381.000,8.957380228249747
182,382.000,10.659510530383386
183,383.000,-5.586813098259313
184,384.000,-8.132483422907853
185,385.000,13.443453791208299
186,386.000,-8.726854221140343
187,387.000,-6.424996225183008
188,388.000,-2.900963986149293
189,389.000,-0.35651426926858676
190,390.000,2.7830141602297545
191,391.000,-1.1802074628839136
192,392.000,-8.894902903838783
193,393.000,-0.7565039278645145
194,394.000,-2.429144300190387
195,395.000,7.199357213954045
196,396.000,-4.2853151506604945
197,397.000,-12.34996315926361
198,398.000,-10.730703577084626
199,399.000,4.108230830647017
200,400.000,-7.965220701298108
201,401.000,-17.482616938149647
202,402.000,-8.471044645136772
203,403.000,-5.117417587489058
204,404.000,1.8851804695641476
205,405.000,-11.464538239206604
206,406.000,-1.5071854790306816
207,407.000,-0.8646730151378961
208,408.000,-9.961603612757244
209,409.000,-7.019240037118266
210,410.000,4.594951946549486
211,411.000,4.173493573016685
212,412.000,-1.1435629229462165
213,413.000,-4.411909306568646
214,414.000,0.29976765692015306
215,415.000,-7.500264797709519
216,416.000,-7.352476435686867
217,417.000,-12.069400022241439
218,418.000,-6.998780322602784
219,419.000,-7.648781102000157
220,420.000,9.360991874336946
221,421.000,-8.561569158820816
222,422.000,0.09709403329691213
223,423.000,0.2722756854608406
224,424.000,-8.892060967558564
225,425.000,-0.8788726909906472
226,426.000,-21.077788250064714
227,427.000,-7.568574410010569
228,428.000,-3.115377936057257
229,429.000,-22.766524593434497
230,430.000,-15.454320147371732
231,431.000,-2.282383363098006
232,432.000,-10.279992005843269
233,433.000,-15.445789840836596
234,434.000,-11.216406633307656
235,435.000,-12.34816014848559
236,436.000,-4.86330515160023
237,437.000,-6.603591407880799
238,438.000,-11.12475168255662
239,439.000,-13.551465740857338
240,440.000,-9.998244348012236
241,441.000,-1.8391842692508362
242,442.000,-7.8106412698024315
243,443.000,-6.185347114896786
244,444.000,-11.036876569762967
245,445.000,-17.9969923996307
246,446.000,-14.624001369729172
247,447.000,-6.563903245287975
248,448.000,-9.96394279153651
249,449.000,-16.117726773704135
250,450.000,-20.512887957020553
251,451.000,-10.252080106714857
252,452.000,-13.063387988016757
253,453.000,-13.238936366155372
254,454.000,-13.221530006360467
255,455.000,-9.649991673861223
256,456.000,-9.694845133887384
257,457.000,-5.796382151668126
258,458.000,-6.105758492432869
259,459.000,-3.79037292141129
260,460.000,-7.05090320383249
261,461.000,-14.008384104926108
262,462.000,-12.425505389921682
263,463.000,-9.239257824048423
264,464.000,-14.170455172535867
265,465.000,-9.115717200613517
266,466.000,-5.593834673510742
267,467.000,-17.42559835645693
268,468.000,-23.342545014681605
269,469.000,-5.659914413414185
270,470.000,-12.816371317883977
271,471.000,-8.771477493320617
272,472.000,-21.117372704953368
273,473.000,-2.8251037180117464
274,474.000,-8.8903302977252
275,475.000,-14.176954209323185
276,476.000,-15.630365218035081
277,477.000,-12.932452089090248
278,478.000,-14.71306858771834
279,479.000,-15.481132479148641
280,480.000,-20.62235852861079
281,481.000,-6.423121501333753
282,482.000,-14.332114162547441
283,483.000,-13.740951277481031
284,484.000,-13.724829611364157
285,485.000,-28.524630929426053
286,486.000,-11.304917996896279
287,487.000,-16.534569579004142
288,488.000,-16.38631644097927
289,489.000,-14.322951348050992
290,490.000,-20.666689065448622
291,491.000,-9.861129358401854
292,492.000,-19.18559799214006
293,493.000,-20.520768731892417
294,494.000,-20.359778342888603
295,495.000,-14.321350590358065
296,496.000,-10.885819239530292
297,497.000,-19.01684305563424
298,498.000,-24.593065803900117
299,499.000,-9.241813249556685
300,500.000,-22.091456157833704
301,501.000,-8.615551293960493
302,502.000,-16.193264423166738
303,503.000,-20.139916310681542
304,504.000,-19.87175172173454
305,505.000,-13.341371421555095
306,506.000,-10.856751175372665
307,507.000,-17.461768748416603
308,508.000,-10.67025190591653
309,509.000,-3.9084394131016325
310,510.000,-17.757944035201717
311,511.000,-23.48188653744569
312,512.000,-22.98804368506353
313,513.000,-25.079403243284332
314,514.000,-20.650440977337666
315,515.000,-21.229481652452932
316,516.000,-24.911077033859442
317,517.000,-13.85228788678694
318,518.000,-32.77364197646466
319,519.000,-25.101884068121876
320,520.000,-5.156321926988312
321,521.000,-11.09101131829334
322,522.000,-14.250311007266305
323,523.000,-14.711971759136645
324,524.000,-6.897589339133901
325,525.000,-14.376329512487473
326,526.000,-17.19073704442667
327,527.000,-25.102438700181096
328,528.000,-18.22793024498003
329,529.000,-22.252843444053042
330,530.000,-22.149346062629547
331,531.000,-22.259613865938945
332,532.000,-18.30306161921078
333,533.000,-20.07354408767435
334,534.000,-12.927795036559132
335,535.000,-26.169787231094347
336,536.000,-19.286804436509897
337,537.000,-7.169304418034926
338,538.000,-18.14821094089882
339,539.000,-11.24418777033111
340,540.000,-11.667934671561284
341,541.000,-10.641392409818764
342,542.000,-14.163626750332924
343,543.000,-26.924951458333112
344,544.000,-20.295373299048833
345,545.000,-21.020638037709773
346,546.000,-28.07810343954509
347,547.000,-21.613342269784198
348,548.000,-26.37430329365668
349,549.000,-28.909554276391873
350,550.000,-17.691891983219307
351,551.000,-19.258394179368338
352,552.000,-23.16181263006854
353,553.000,-24.774962100549033
354,554.000,-22.353987356039625
355,555.000,-21.50410816176941
356,556.000,-21.61969128296812
357,557.000,-19.516908484865098
358,558.000,-21.841624532689707
359,559.000,-16.932264191671152
360,560.000,-16.140485227039562
361,561.000,-17.151903404023756
362,562.000,-23.296833487853405
363,563.000,-23.033898243757676
364,564.000,-16.73974843696658
365,565.000,-20.542536832709175
366,566.000,-19.627653196214737
367,567.000,-34.32611729271309
368,568.000,-35.57692088743329
369,569.000,-17.35209574560497
370,570.000,-17.392626632457677
371,571.000,-11.000431313220702
372,572.000,-15.020857553123392
373,573.000,-17.999674117395443
374,574.000,-19.20931577126612
375,575.000,-27.840047279964665
376,576.000,-13.946968408720977
377,577.000,-22.827788922764057
378,578.000,-16.14491458732357
379,579.000,-17.905825167629246
380,580.000,-17.411784428909755
381,581.000,-13.617891136395087
382,582.000,-21.83315005531449
383,583.000,-21.126847950897513
384,584.000,-23.836466588373696
385,585.000,-20.849200732972236
386,586.000,-8.461338149922426
387,587.000,-20.491650604454207
388,588.000,-11.034968861796756
389,589.000,-13.00951168717927
390,590.000,-13.384245845831629
391,591.000,-12.710678102982797
392,592.000,-23.354253223862543
393,593.000,-14.734624973700306
394,594.000,-7.113584117725395
395,595.000,-20.443811421167197
396,596.000,-16.125944649255416
397,597.000,-19.49343156721909
398,598.000,-12.90231094028809
399,599.000,-20.63974153369145
400,600.000,-3.7775931126589057
401,601.000,-14.847647442419657
402,602.000,-20.853521288203297
403,603.000,0.3065845847606852
404,604.000,-3.2466845887570344
405,605.000,-4.331586573985874
406,606.000,-2.296065136155221
407,607.000,-5.2775880404946065
408,608.000,-1.5855940522336596
409,609.000,7.661717063398669
410,610.000,13.274969541172368
411,611.000,18.99156461585858
412,612.000,21.864879522227398
413,613.000,27.079979495049656
414,614.000,40.791582769095726
415,615.000,64.2343035791364
416,616.000,86.070528159942
417,617.000,99.2779437462832
418,618.000,123.9777655729307
419,619.000,155.396442874655
420,620.000,160.6504938862264
421,621.000,152.05114584241562
422,622.000,118.88049097799365
423,623.000,98.95262952773044
424,624.000,74.16685472639676
425,625.000,58.606395808763295
426,626.000,31.573172009600285
427,627.000,37.203998563678965
428,628.000,22.04199470576907
429,629.000,15.613002670641663
430,630.000,0.22892769306736227
431,631.000,2.6800930078163674
432,632.000,7.239560849659597
433,633.000,-13.11502554663275
434,634.000,-4.266563946289693
435,635.000,-3.9029321145409313
436,636.000,-13.918132816615866
437,637.000,-6.289859817743832
438,638.000,-14.361625883154375
439,639.000,-6.0352087780768215
440,640.000,-11.141274267740869
441,641.000,-13.736537117375747
442,642.000,-3.708548092210549
443,643.000,-11.368248957475544
444,644.000,-9.03611847839943
445,645.000,-24.49425642021197
446,646.000,-21.655265548142552
447,647.000,-13.130919627420667
448,648.000,-13.053393423275452
449,649.000,-19.125115700936703
450,650.000,-14.386911225633753
451,651.000,-25.66445176259606
452,652.000,-18.2578080770528
453,653.000,-26.630985934233877
454,654.000,-17.892481099368297
455,655.000,-23.025605337685874
456,656.000,-24.11291541441551
457,657.000,-20.074606094787214
458,658.000,-9.641470144030109
459,659.000,-26.740085327373663
460,660.000,-24.393718410047427
461,661.000,-14.482193157280562
462,662.000,-23.526556334302995
463,663.000,-10.459230706343646
464,664.000,-19.8225730386323
465,665.000,-20.69069709639814
466,666.000,-19.164197644870683
467,667.000,-10.92413944927955
468,668.000,-17.49984327485413
469,669.000,-18.387959886823523
470,670.000,-20.029039050417623
471,671.000,-30.962664530865368
472,672.000,-26.944015093396615
473,673.000,-12.773044503240726
474,674.000,-16.779269525627114
475,675.000,-18.70847292578503
476,676.000,-17.95387346894404
477,677.000,-25.06641892033349
478,678.000,-19.803054045183217
479,679.000,-27.259083608722108
480,680.000,-19.527237376179983
481,681.000,-26.17904711278618
482,682.000,-23.19381058376996
483,683.000,-19.204981554361098
484,684.000,-23.89878378978858
485,685.000,-18.063241055281992
486,686.000,-19.22133611607103
487,687.000,-19.8078767373853
488,688.000,-14.023501684453322
489,689.000,-30.816965722505415
490,690.000,-31.553432616770806
491,691.000,-18.278810132478725
492,692.000,-16.330503034858566
493,693.000,-9.902955089140164
494,694.000,-17.431347060552525
495,695.000,-16.982280714325498
496,696.000,-27.25535881568817
497,697.000,-17.43310512987
498,698.000,-17.896436422100578
499,699.000,-28.26399245760922
500,700.000,-27.294756001625615
501,701.000,-22.569822819378828
502,702.000,-20.15964867609864
503,703.000,-39.542183337014194
504,704.000,-21.434711567354952
505,705.000,-20.453277132350763
506,706.000,-22.88007379723058
507,707.000,-20.197554327223997
508,708.000,-19.041315487560496
509,709.000,-27.823633043469385
510,710.000,-19.232577760180448
511,711.000,-23.212156402922574
512,712.000,-27.353035736925676
513,713.000,-20.395159527418855
514,714.000,-12.69516153963184
515,715.000,-30.35151653879393
516,716.000,-31.47803829013435
517,717.000,-31.445678558882946
518,718.000,-9.628844110269029
519,719.000,-22.966961709521797
520,720.000,-21.77781412187096
521,721.000,-26.10244911254574
522,722.000,-26.98642244677569
523,723.000,-33.46424788979027
524,724.000,-20.238579206818827
525,725.000,-19.660130163090912
526,726.000,-33.03166952383572
527,727.000,-27.384796054283015
528,728.000,-25.542431519662046
529,729.000,-21.183973685202204
530,730.000,-19.51169931613299
531,731.000,-14.168476177683942
532,732.000,-12.681433035084638
533,733.000,-14.400481653564043
534,734.000,-12.703099798351673
535,735.000,-27.689770234677326
536,736.000,-23.955061727770044
537,737.000,-13.701030042859657
538,738.000,-18.762924945175314
539,739.000,-20.312262199946645
540,740.000,-32.2255875724029
541,741.000,-31.431395827773372
542,742.000,-15.811932731288039
543,743.000,-18.066014048175816
544,744.000,-21.80669554366648
545,745.000,-22.4195139829892
546,746.000,-30.205851131373493
547,747.000,-17.52544875404908
548,748.000,-13.445379616244736
549,749.000,-9.693377483190716
550,750.000,-19.14105012011578
551,751.000,-20.545107292249895
552,752.000,-25.774086764822073
553,753.000,-11.730448303061848
554,754.000,-8.69365367219882
555,755.000,-22.471128637462243
556,756.000,-16.896616964081772
557,757.000,-17.937154417286592
558,758.000,-21.75419076230628
559,759.000,-33.11500276437039
560,760.000,-20.13324818870808
561,761.000,-14.086081800548868
562,762.000,-26.169084365122444
563,763.000,-22.30437964765781
564,764.000,-36.715564413384755
565,765.000,-9.029116427532472
566,766.000,-13.432984455330711
567,767.000,-15.833268262008687
568,768.000,-17.36993161279588
569,769.000,-19.17686627292153
570,770.000,-15.392080007615391
571,771.000,-16.30111858210671
572,772.000,-15.395988761624949
573,773.000,-13.513226311399649
574,774.000,-11.888291996660087
575,775.000,-2.5946535826359423
576,776.000,-19.730229834556326
577,777.000,-8.486397517650857
578,778.000,-12.685686397148743
579,779.000,-14.481053238280083
580,780.000,-20.347425806273463
581,781.000,-0.7326518663588786
582,782.000,-8.233821183765599
583,783.000,-4.373904523723013
584,784.000,5.907581348539225
585,785.000,0.15898866779195941
586,786.000,11.141420668805836
587,787.000,15.788078586350935
588,788.000,27.416418655198413
589,789.000,36.3238951101182
590,790.000,34.07508218588157
591,791.000,54.98653711725842
592,792.000,59.66215513901989
593,793.000,70.97435048593582
594,794.000,76.27138039277759
595,795.000,84.94207209431534
596,796.000,70.38555482531979
597,797.000,72.02265682056122
598,798.000,67.63417831481013
599,799.000,48.23059354283748
600,800.000,52.00422673941398
601,801.000,26.518250139309657
602,802.000,24.673384977295427
603,803.000,14.239746488141918
604,804.000,8.282839906619074
605,805.000,1.0875144674980675
606,806.000,1.0823054055492776
607,807.000,1.1572239555434862
608,808.000,-5.71170064774924
609,809.000,2.4307408304421187
610,810.000,4.605818624888116
611,811.000,-15.083453029641078
612,812.000,-2.0834028983745156
613,813.000,-6.9722877465419515
614,814.000,-7.504517339372114
615,815.000,5.05522555790435
616,816.000,-3.1240138199409557
617,817.000,-8.900863238137845
618,818.000,-10.292210461915829
619,819.000,-24.747352256504087
620,820.000,-7.487584387132529
621,821.000,-16.93693861902989
622,822.000,-11.673409717426011
623,823.000,-12.390237447550362
624,824.000,-7.431691574632396
625,825.000,-1.201811863901412
626,826.000,-7.650639080587098
627,827.000,-6.061074989918325
628,828.000,-15.233955357125296
629,829.000,-11.20340594743675
630,830.000,-9.4190675260827
631,831.000,-22.75552585829223
632,832.000,-1.939702709294579
633,833.000,-18.538543844319975
634,834.000,-21.965161028597095
635,835.000,-4.53729902735563
636,836.000,-1.6644906058249944
637,837.000,-18.6199175292345
638,838.000,-18.10053756281377
639,839.000,4.2376095282079405
640,840.000,-13.765654021399314
641,841.000,-26.347942976864488
642,842.000,-18.11459810341671
643,843.000,-2.4211821662863713
644,844.000,-10.467906930701929
645,845.000,-9.89495516189345
646,846.000,-7.041516625090253
647,847.000,-10.312155085521226
648,848.000,-16.340897308416743
649,849.000,-23.87946305900573
650,850.000,-11.604552102517573
651,851.000,-20.945601204181685
652,852.000,-14.551019129227825
653,853.000,-3.621681642885278
654,854.000,-10.891378510382765
655,855.000,-13.736072496951238
656,856.000,-13.654760367818653
657,857.000,-9.618080888215218
658,858.000,-8.42769982337063
659,859.000,-21.80660393851349
660,860.000,-12.741894998873704
661,861.000,-3.5084407696806466
662,862.000,-9.2222330161635
663,863.000,-18.283951503552544
664,864.000,-17.714400997076154
665,865.000,-25.95034626196457
666,866.000,-18.280047063446773
667,867.000,-3.8177771667519664
668,868.000,-13.815379337110699
669,869.000,-18.46587833975127
670,870.000,-16.729058939903098
671,871.000,-13.872308902796476
672,872.000,-13.781619993660343
673,873.000,-15.199727977724478
674,874.000,-17.623053620217206
675,875.000,-9.120751686369204
676,876.000,-3.639752941409597
677,877.000,-16.20861315056777
678,878.000,-15.977553079072777
679,879.000,-5.522009492154439
680,880.000,-21.367966155042495
681,881.000,-16.06042983296561
682,882.000,-14.70639529115374
683,883.000,-11.356076294836384
684,884.000,-13.9365626092424
685,885.000,-17.529930999601902
686,886.000,-10.269876231143598
687,887.000,-19.18100706909763
688,888.000,-22.43088627869315
689,889.000,-24.06564062515963
690,890.000,-7.323426873726703
691,891.000,-22.155504789623365
692,892.000,-8.97001013807926
693,893.000,-7.545306684324032
694,894.000,-6.644594193586727
695,895.000,-12.449730431096896
696,896.000,-14.605688162084334
697,897.000,-10.71651115177815
698,898.000,-14.706192165407629
699,899.000,-18.773418968202577
700,900.000,-3.4351563253921995
701,901.000,-16.245165002205795
702,902.000,-0.013089763873267657
703,903.000,-7.608841375623797
704,904.000,-13.332878602686606
705,905.000,-7.886846210291424
706,906.000,-3.038092963667623
707,907.000,-18.59510162804463
708,908.000,-15.78923596865161
709,909.000,-16.42750375071887
710,910.000,-9.043969739474733
711,911.000,-7.50984070014897
712,912.000,-9.66161739797144
713,913.000,-14.103627598171215
714,914.000,-12.802839065977878
715,915.000,-2.406412566620702
716,916.000,-2.7222948653293315
717,917.000,-8.529785727333092
718,918.000,-17.07417791786156
719,919.000,-5.332956202143805
720,920.000,-7.265482345409737
721,921.000,-7.36324311288854
722,922.000,1.6139727301904259
723,923.000,-3.727901581402193
724,924.000,-14.38123481289631
725,925.000,-14.204244729520724
726,926.000,-0.013250096505544207
727,927.000,-6.938286679079965
728,928.000,-2.72559424247288
729,929.000,-8.55949455191444
730,930.000,-13.488881372633614
731,931.000,-5.715132469860237
732,932.000,2.187313391176531
733,933.000,-4.994498554753136
734,934.000,-13.642981072877546
735,935.000,-8.582007928427629
736,936.000,-9.531404886632117
737,937.000,-5.327557712720136
738,938.000,-0.07041117192170532
739,939.000,5.823690970534244
740,940.000,-4.454378050582363
741,941.000,-8.195228000500265
742,942.000,-4.977130644449289
743,943.000,-5.167059747658641
744,944.000,-7.631370075358063
745,945.000,-4.755742392776938
746,946.000,-4.7044434651443225
747,947.000,-11.561756057690218
748,948.000,-1.0113069356432334
749,949.000,-6.262729864233961
750,950.000,-9.76933160869089
751,951.000,-0.698796934244001
752,952.000,-6.32688560612246
753,953.000,7.2995156104443595
754,954.000,-0.04649604977294075
755,955.000,-2.1903563520040734
756,956.000,-6.914383061478702
757,957.000,-4.53380394342571
758,958.000,3.301054236925438
759,959.000,-5.599215285654736
760,960.000,3.423409723603754
761,961.000,-13.380549500527877
762,962.000,0.7974202767209135
763,963.000,4.898034290120222
764,964.000,2.462092774441544
765,965.000,0.8683639644539198
766,966.000,7.450346094929273
767,967.000,-3.2064855993626225
768,968.000,-3.4003748836505565
769,969.000,3.752241476835934
770,970.000,11.012276716866836
771,971.000,7.1196550712129465
772,972.000,4.164927774644866
773,973.000,8.008013061933525
774,974.000,9.823734167849125
775,975.000,0.7611123271624365
776,976.000,-7.460019225356518
777,977.000,4.572194745063598
778,978.000,3.2285264731926873
779,979.000,10.372827193802095
780,980.000,8.51435414166167
781,981.000,12.67160255154181
782,982.000,22.928975658213858
783,983.000,23.760555696448137
784,984.000,26.357232901014868
785,985.000,40.38426150668488
786,986.000,32.31959674822838
787,987.000,38.399773860416644
788,988.000,55.09726307801952
789,989.000,49.24891663580797
790,990.000,56.69828476855264
791,991.000,87.81405971102367
792,992.000,99.55731069799208
793,993.000,124.54044396422819
794,994.000,156.72090674450214
795,995.000,203.15986027358554
796,996.000,259.52256878624803
797,997.000,356.9414615172609
798,998.000,490.2174537013939
799,999.000,689.2436035734181
800,1000.000,896.6360843681039
801,1001.000,992.3469283202221
802,1002.000,900.1406086645429
803,1003.000,707.9231566358376
804,1004.000,492.6914014688757
805,1005.000,366.0388493984285
806,1006.000,272.6743736592666
807,1007.000,209.84563748615983
808,1008.000,154.8992081138797
809,1009.000,136.14511777719622
810,1010.000,110.80000871087987
811,1011.000,89.99957714970174
812,1012.000,76.8117283284314
813,1013.000,71.58110848184083
814,1014.000,69.3475608446995
815,1015.000,64.59579565177864
816,1016.000,70.19383013784773
817,1017.000,52.95023253767863
818,1018.000,58.79149008604145
819,1019.000,53.928645017706685
820,1020.000,64.23582556744464
821,1021.000,65.27316497002607
822,1022.000,68.25299646022177
823,1023.000,74.43766727280217
824,1024.000,92.75211264253744
825,1025.000,120.03519980419878
826,1026.000,157.5921039925563
827,1027.000,196.16346044238117
828,1028.000,243.085471388443
829,1029.000,320.6005870655131
830,1030.000,394.265003708362
831,1031.000,424.1128595517598
832,1032.000,393.12032083047757
833,1033.000,325.57044777928513
834,1034.000,247.60451963295395
835,1035.000,182.07352062625432
836,1036.000,130.50478699395626
837,1037.000,108.34493397083111
838,1038.000,77.46306479164878
839,1039.000,69.8117856911806
840,1040.000,60.14127290419606
841,1041.000,40.65035366546704
842,1042.000,40.36666220976281
843,1043.000,33.26007377185465
844,1044.000,41.97264858651306
845,1045.000,29.413481888508386
846,1046.000,12.171284912611554
847,1047.000,23.477369893592822
848,1048.000,21.065278066223073
849,1049.000,15.462907665272269
850,1050.000,12.784165925511616
851,1051.000,17.20835808171114
852,1052.000,16.361882368642
853,1053.000,13.920407021074197
854,1054.000,4.392957273778848
855,1055.000,8.006368361526029
856,1056.000,-0.5824004809135204
857,1057.000,-0.8728140187690769
858,1058.000,4.14666498272959
859,1059.000,0.6465537583530931
860,1060.000,4.007156542872281
861,1061.000,20.922002571057646
862,1062.000,8.60553607767929
863,1063.000,-0.03447870249146945
864,1064.000,-8.025405534684296
865,1065.000,-0.3928721841289189
866,1066.000,-4.24985941605496
867,1067.000,-9.089841995691131
868,1068.000,8.199218311732466
869,1069.000,0.7619207409868523
870,1070.000,6.1010585268425075
871,1071.000,21.840326904069343
872,1072.000,4.776950107439234
873,1073.000,3.7204423717214468
874,1074.000,4.989216931687224
875,1075.000,1.1853700221070085
876,1076.000,-2.277495122248638
877,1077.000,1.3189997333909105
878,1078.000,9.371427823796012
879,1079.000,0.8278913837375512
880,1080.000,-5.830661352013976
881,1081.000,-5.149172148688194
882,1082.000,-3.8891907715149046
883,1083.000,2.319288014277163
884,1084.000,5.1158964434582685
885,1085.000,5.096301750799057
886,1086.000,9.342550171070116
887,1087.000,0.9910769390419318
888,1088.000,7.247166289484994
889,1089.000,4.215958457169563
890,1090.000,6.530200676867025
891,1091.000,-8.717885816652142
892,1092.000,9.848350211381785
893,1093.000,-6.860923004260485
894,1094.000,-4.307344228807324
895,1095.000,7.160232772510653
896,1096.000,0.2120502344646411
897,1097.000,13.192530391824903
898,1098.000,3.601851479362267
899,1099.000,-3.4795112681526916
900,1100.000,3.6630433840502974
901,1101.000,0.3692546707418387
902,1102.000,12.142143826692973
903,1103.000,12.65769708667358
904,1104.000,7.368484685454405
905,1105.000,0.5622978578064703
906,1106.000,3.5674108384998817
907,1107.000,9.422174862305155
908,1108.000,-1.6070918360067026
909,1109.000,-1.4959120216658448
910,1110.000,8.45166654009904
911,1111.000,7.85725608405869
912,1112.000,2.137231844982807
913,1113.000,2.0147360576424944
914,1114.000,-7.9798260431921335
915,1115.000,10.939592777250027
916,1116.000,3.260750753739103
917,1117.000,-4.470887878954045
918,1118.000,-2.5234118860587387
919,1119.000,-0.963457032804854
920,1120.000,14.784602915578489
921,1121.000,8.891873193861784
922,1122.000,-3.0726419631844237
923,1123.000,16.295798679210293
924,1124.000,13.430942355817024
925,1125.000,-0.6936786985945673
926,1126.000,-10.013327249253052
927,1127.000,12.028752938612342
928,1128.000,2.982409099770848
929,1129.000,6.15747546899388
930,1130.000,4.244107281051811
931,1131.000,15.416465770715831
932,1132.000,17.25844617275561
933,1133.000,13.835313721942384
934,1134.000,8.73854865304611
935,1135.000,11.973121200837795
936,1136.000,14.998287600088133
937,1137.000,2.8237820855672453
938,1138.000,20.890946892045804
939,1139.000,12.870858254294262
940,1140.000,17.951547407084036
941,1141.000,19.09801858518449
942,1142.000,25.96195002336708
943,1143.000,29.66165195640201
944,1144.000,39.828077619059286
945,1145.000,28.54618824611066
946,1146.000,30.32587307232575
947,1147.000,42.93569533247569
948,1148.000,46.23993426133052
949,1149.000,65.47010209366135
950,1150.000,68.14042606423845
951,1151.000,89.19224340783217
952,1152.000,111.65598135921368
953,1153.000,129.90848315315316
954,1154.000,139.07726402442086
955,1155.000,151.86872320778775
956,1156.000,145.9915509380246
957,1157.000,114.47367244990164
958,1158.000,109.46171397818944
959,1159.000,91.22709475765873
960,1160.000,73.42867302307968
961,1161.000,59.242000009223375
962,1162.000,53.75587295085984
963,1163.000,48.397204082760254
964,1164.000,42.047213639694974
965,1165.000,44.27811585643394
966,1166.000,38.82929396774853
967,1167.000,27.021677208409074
968,1168.000,24.448934813186042
969,1169.000,33.208851016850076
970,1170.000,23.700643054171678
971,1171.000,29.279512159921296
972,1172.000,32.22086156886985
973,1173.000,37.40933251578758
974,1174.000,37.133103235445105
975,1175.000,46.67965496261286
976,1176.000,40.73517193206226
977,1177.000,54.93177337856241
978,1178.000,56.83350353688502
979,1179.000,74.64942364180047
980,1180.000,89.76969992807881
981,1181.000,100.0773426304911
982,1182.000,103.72242198380764
983,1183.000,130.36823622279917
984,1184.000,120.89884258223628
985,1185.000,105.23263329688916
986,1186.000,82.90864960152908
987,1187.000,68.93970073092578
988,1188.000,60.2061449198502
989,1189.000,46.96016540307323
990,1190.000,45.553681415364736
991,1191.000,32.91919519149633
992,1192.000,22.316817966237522
993,1193.000,26.98591197435917
994,1194.000,16.39596245063217
995,1195.000,18.965567629826637
996,1196.000,4.733539746713632
997,1197.000,11.781577036063027
998,1198.000,15.783723732646422
999,1199.000,7.3146160712328765
1000,1200.000,10.015399286594402
1001,1201.000,12.821073613501085
1002,1202.000,8.908081286723245
1003,1203.000,18.53757554103163
1004,1204.000,5.669187611197003
1005,1205.000,5.615405731989313
1006,1206.000,5.254577138179684
1007,1207.000,-6.066392935461408
1008,1208.000,-3.792113254163496
1009,1209.000,8.26004541684415
1010,1210.000,2.7699573123315986
1011,1211.000,12.78866666706972
1012,1212.000,3.720747715829475
1013,1213.000,2.9232766933810126
1014,1214.000,9.88828683449492
1015,1215.000,5.1631883739416935
1016,1216.000,12.930166546492046
1017,1217.000,-3.2194954130834503
1018,1218.000,5.589904729985847
1019,1219.000,6.86680521046992
1020,1220.000,5.974551263140029
1021,1221.000,9.409651122766945
1022,1222.000,8.54552802412013
1023,1223.000,2.4687352019711852
1024,1224.000,-1.2090041089097667
1025,1225.000,7.9163133262475185
1026,1226.000,2.2403437422144634
1027,1227.000,7.607205373760735
1028,1228.000,9.887868455657781
1029,1229.000,2.9077442226755466
1030,1230.000,-3.779560090415316
1031,1231.000,0.02462675115566526
1032,1232.000,6.20778098215942
1033,1233.000,-0.014226162633576678
1034,1234.000,8.409407551546792
1035,1235.000,1.5207913594715592
1036,1236.000,2.0122564959110605
1037,1237.000,-2.60352680436381
1038,1238.000,0.48482969341716853
1039,1239.000,7.569488224024326
1040,1240.000,-1.133302977771109
1041,1241.000,-1.1666806771991105
1042,1242.000,-3.931254639488543
1043,1243.000,5.334564370130465
1044,1244.000,-8.567284413571087
1045,1245.000,-3.4529757558225356
1046,1246.000,5.836455578146342
1047,1247.000,8.821821823105893
1048,1248.000,-1.1329357861727658
1049,1249.000,5.896407985081169
1050,1250.000,-11.869314628362872
1051,1251.000,4.4922076082666536
1052,1252.000,1.6219139297404581
1053,1253.000,-7.54807642917217
1054,1254.000,-10.963165233699101
1055,1255.000,-3.3936692490706264
1056,1256.000,1.1187247594837118
1057,1257.000,1.6995920267349902
1058,1258.000,0.08096378745312904
1059,1259.000,3.9700472764095593
1060,1260.000,3.476050728374048
1061,1261.000,-9.098928621882578
1062,1262.000,-3.1708485395897696
1063,1263.000,-4.013647789976858
1064,1264.000,5.1411268617266614
1065,1265.000,-4.043827349708636
1066,1266.000,4.873085810487964
1067,1267.000,-0.6791484229131584
1068,1268.000,12.773590184858449
1069,1269.000,-1.6635811314265538
1070,1270.000,-1.4098691369972585
1071,1271.000,-2.1766395970837493
1072,1272.000,-0.694159276914661
1073,1273.000,12.922958058279846
1074,1274.000,-4.741161356729663
1075,1275.000,-7.022494287171867
1076,1276.000,-3.0526844982769035
1077,1277.000,2.089181244725978
1078,1278.000,-7.944095823392672
1079,1279.000,2.683687532137583
1080,1280.000,2.4132635460880465
1081,1281.000,-3.2346525467714855
1082,1282.000,-3.833838511670365
1083,1283.000,-7.124970113838117
1084,1284.000,-4.119305118503689
1085,1285.000,-7.346673290896888
1086,1286.000,4.829652603753175
1087,1287.000,7.055098800216683
1088,1288.000,-4.482479466735867
1089,1289.000,-3.102559962333544
1090,1290.000,-14.324092451805882
1091,1291.000,-6.185845700382288
1092,1292.000,-1.0598014732925094
1093,1293.000,-1.5343955357654977
1094,1294.000,-2.510988653031518
1095,1295.000,1.7428114096812806
1096,1296.000,-2.857973112857735
1097,1297.000,-5.807857985877035
1098,1298.000,6.04025502539298
1099,1299.000,-15.134535844276797
1100,1300.000,-10.65361736011505
1101,1301.000,-8.22638128735207
1102,1302.000,-8.258828391217094
1103,1303.000,-8.613822436939245
1104,1304.000,-5.40862818974847
1105,1305.000,-8.41864741487393
1106,1306.000,-4.576628877545318
1107,1307.000,-0.7878443429913204
1108,1308.000,-4.241813576442155
1109,1309.000,-3.700734343127124
1110,1310.000,-10.183191408275206
1111,1311.000,-11.464776537116677
1112,1312.000,-6.499357494879632
1113,1313.000,0.7073369532051856
1114,1314.000,-2.6657619580912524
1115,1315.000,1.5053220060017338
1116,1316.000,0.8624480802548078
1117,1317.000,1.5579174994386449
1118,1318.000,-10.061653501677256
1119,1319.000,2.086252311679118
1120,1320.000,-0.8679358257224976
1121,1321.000,6.924039320888596
1122,1322.000,-2.032947013716921
1123,1323.000,-3.6861655947682266
1124,1324.000,-6.483394187495378
1125,1325.000,-4.8058835571271175
1126,1326.000,-15.734216468893692
1127,1327.000,-7.440249688023869
1128,1328.000,-6.256000979747341
1129,1329.000,-0.20094010929392425
1130,1330.000,-10.103939841892497
1131,1331.000,-5.479088942772478
1132,1332.000,4.543211822836611
1133,1333.000,-9.587085310294924
1134,1334.000,-1.4844961073961258
1135,1335.000,-9.77305133369714
1136,1336.000,-7.268616754426375
1137,1337.000,-4.00656613481442
1138,1338.000,-1.5721412400896497
1139,1339.000,-9.848997835481669
1140,1340.000,-13.08177668622102
1141,1341.000,1.96316344246452
1142,1342.000,-6.042812214655896
1143,1343.000,-2.509848422811274
1144,1344.000,-1.8804969472300854
1145,1345.000,-2.8865415531433882
1146,1346.000,-9.029624005779397
1147,1347.000,-8.364244070367931
1148,1348.000,-16.877539512139037
1149,1349.000,-6.644415096320699
1150,1350.000,-10.583750588143857
1151,1351.000,-8.008720752837235
1152,1352.000,3.152510644369613
1153,1353.000,-3.946077161752555
1154,1354.000,-7.793977936433066
1155,1355.000,-16.261118444901967
1156,1356.000,-3.939808452388206
1157,1357.000,0.6898752758786486
1158,1358.000,-13.29832802533133
1159,1359.000,-5.976024121246837
1160,1360.000,-11.635276777097033
1161,1361.000,-9.54137675811262
1162,1362.000,-10.883274829521724
1163,1363.000,-18.327937756554775
1164,1364.000,-11.900158304440538
1165,1365.000,-18.525077238408812
1166,1366.000,-0.815134323689108
1167,1367.000,-2.921170325510502
1168,1368.000,-8.893119009102747
1169,1369.000,-7.570818139694893
1170,1370.000,-8.945928482516592
1171,1371.000,-8.178210802797594
1172,1372.000,-8.258801865766827
1173,1373.000,-10.892721436654256
1174,1374.000,-10.523908280688602
1175,1375.000,-17.535156163100055
1176,1376.000,-15.569009849117492
1177,1377.000,-13.290480103970367
1178,1378.000,-8.54326069288868
1179,1379.000,-12.014446381101607
1180,1380.000,1.3705520661617356
1181,1381.000,-11.035302116327784
1182,1382.000,-12.065590693800914
1183,1383.000,-7.4538474314861105
1184,1384.000,-3.9744080946131817
1185,1385.000,0.8414145515889686
1186,1386.000,-4.367652258109274
1187,1387.000,-13.603882288937484
1188,1388.000,-11.162612306125538
1189,1389.000,-3.9929420749024302
1190,1390.000,-8.678423360497618
1191,1391.000,-5.498063928140482
1192,1392.000,-10.651466543059996
1193,1393.000,-0.7913789704866758
1194,1394.000,-1.6935849756496282
1195,1395.000,-3.573555323777782
1196,1396.000,-9.25292778010089
1197,1397.000,-19.62060910984792
1198,1398.000,-18.04494707824915
1199,1399.000,-8.160100450533719
1200,1400.000,-6.186833991930598
1201,1401.000,-27.07288946766994
1202,1402.000,-12.685874642980252
1203,1403.000,-3.062561283092009
1204,1404.000,-4.128319153234088
1205,1405.000,-12.546679018636269
1206,1406.000,-5.772291644527513
1207,1407.000,-9.19924579613712
1208,1408.000,-10.508087238695225
1209,1409.000,-2.4874197374304003
1210,1410.000,-2.1833390575734484
1211,1411.000,-11.733100964352388
1212,1412.000,-13.961035222997225
1213,1413.000,-15.822839598737573
1214,1414.000,-16.197293856802844
1215,1415.000,0.290841237577979
1216,1416.000,3.833601919174953
1217,1417.000,-5.507421577240848
1218,1418.000,-0.12111001689913792
1219,1419.000,-9.792196165029509
1220,1420.000,-5.6220137868613165
1221,1421.000,0.7858063523758574
1222,1422.000,-2.027527512547067
1223,1423.000,-3.2920841468594517
1224,1424.000,-11.93737131579087
1225,1425.000,-9.705683784571193
1226,1426.000,-2.492355318429418
1227,1427.000,-2.0329946825952447
1228,1428.000,2.221970357702503
1229,1429.000,0.5647480372338123
1230,1430.000,4.902822590769347
1231,1431.000,8.683243253079354
1232,1432.000,13.815878258935072
1233,1433.000,14.038135843106602
1234,1434.000,13.752186240365063
1235,1435.000,19.187292685480315
1236,1436.000,30.613550413223038
1237,1437.000,29.40999765836409
1238,1438.000,31.204678655674115
1239,1439.000,38.356112639923595
1240,1440.000,54.66261184588279
1241,1441.000,66.66410050832246
1242,1442.000,82.82394886201268
1243,1443.000,88.1816961417253
1244,1444.000,114.70298458222942
1245,1445.000,123.24447341829682
1246,1446.000,143.84143788469714
1247,1447.000,161.65421921620145
1248,1448.000,185.34051164758012
1249,1449.000,200.40509041360406
1250,1450.000,198.38813574904339
1251,1451.000,191.11393988866848
1252,1452.000,172.77826106725047
1253,1453.000,165.1010305195598
1254,1454.000,142.2158514803666
1255,1455.000,122.87212018444211
1256,1456.000,101.50405686655677
1257,1457.000,83.2350257614803
1258,1458.000,71.20060010398424
1259,1459.000,63.79561512883879
1260,1460.000,56.137925070814845
1261,1461.000,41.47666216468224
1262,1462.000,35.79651164521192
1263,1463.000,26.27590674717476
1264,1464.000,21.16348570534069
1265,1465.000,9.174275754481187
1266,1466.000,18.19362612936561
1267,1467.000,12.9751890647658
1268,1468.000,14.895738795451052
1269,1469.000,0.13391355619273781
1270,1470.000,2.0640135817611736
1271,1471.000,-6.1711578930724045
1272,1472.000,-1.270300633538227
1273,1473.000,-5.0670494048656565
1274,1474.000,-1.9203539722843743
1275,1475.000,-8.062790101022983
1276,1476.000,-4.701491556311339
1277,1477.000,-12.418326103379059
1278,1478.000,-7.122592507455465
1279,1479.000,-13.276368533769983
1280,1480.000,-14.917325947551944
1281,1481.000,-12.655075514030841
1282,1482.000,-11.75620099843627
1283,1483.000,-22.775741165997715
1284,1484.000,-24.024301781943905
1285,1485.000,-14.69631961150526
1286,1486.000,-16.673940419910423
1287,1487.000,-28.67962897238931
1288,1488.000,-27.246688034171257
1289,1489.000,-22.264164370485787
1290,1490.000,-16.369685746562254
1291,1491.000,-17.448819927629756
1292,1492.000,-13.163972678918071
1293,1493.000,-12.573094765656606
1294,1494.000,-5.956235953074611
1295,1495.000,-28.441426006401798
1296,1496.000,-20.605275690867984
1297,1497.000,-14.480145771701245
1298,1498.000,-28.259757014132447
1299,1499.000,-29.429810183390146
1300,1500.000,-20.348399044704593
1301,1501.000,-15.375557363304097
1302,1502.000,-14.69985390441866
1303,1503.000,-32.5630874332785
1304,1504.000,-29.510287715111872
1305,1505.000,-23.218065515148737
1306,1506.000,-25.940821598618413
1307,1507.000,-21.181739730750223
1308,1508.000,-22.468707676774102
1309,1509.000,-13.177259201919014
1310,1510.000,-23.969853071414718
1311,1511.000,-22.709050050490305
1312,1512.000,-23.490208904375322
1313,1513.000,-17.64880239829904
1314,1514.000,-30.70652729749122
1315,1515.000,-22.130457367181407
1316,1516.000,-29.00947637259901
1317,1517.000,-32.89562107897291
1318,1518.000,-17.892066251532697
1319,1519.000,-21.81391365550826
1320,1520.000,-16.841474056128845
1321,1521.000,-23.595976218623946
1322,1522.000,-21.39215690822266
1323,1523.000,-24.47471789015458
1324,1524.000,-22.03039592964933
1325,1525.000,-27.82993879193623
1326,1526.000,-15.5319802422448
1327,1527.000,-30.733229045804364
1328,1528.000,-15.641068967844376
1329,1529.000,-26.823628773593782
1330,1530.000,-20.62816022828315
1331,1531.000,-24.937823097140836
1332,1532.000,-23.162346145397123
1333,1533.000,-17.08687813828101
1334,1534.000,-24.964793841021446
1335,1535.000,-31.32344301884882
1336,1536.000,-24.39225343699195
1337,1537.000,-21.978033860680398
1338,1538.000,-40.12506105514399
1339,1539.000,-19.993452785611453
1340,1540.000,-19.265799817312654
1341,1541.000,-35.969305915477435
1342,1542.000,-26.424471845334438
1343,1543.000,-20.60647637211332
1344,1544.000,-32.10944626104356
1345,1545.000,-27.657757277354904
1346,1546.000,-27.032941186276275
1347,1547.000,-21.582081753037528
1348,1548.000,-18.12792274286835
1349,1549.000,-24.63014792099716
1350,1550.000,-23.8246470526542
1351,1551.000,-18.461876903068514
1352,1552.000,-20.402175237470146
1353,1553.000,-23.878872821087953
1354,1554.000,-15.000061419151734
1355,1555.000,-30.709045796890223
1356,1556.000,-20.974286719533666
1357,1557.000,-23.774412952311195
1358,1558.000,-23.61935326045227
1359,1559.000,-18.755202409186495
1360,1560.000,-18.86911016374279
1361,1561.000,-3.667079289350795
1362,1562.000,-13.295369551240583
1363,1563.000,-13.80167471464074
1364,1564.000,-4.739235544781195
1365,1565.000,-6.882717806891151
1366,1566.000,-22.004861266199896
1367,1567.000,-8.126710687937248
1368,1568.000,-1.917351837332717
1369,1569.000,-6.883996479615462
1370,1570.000,1.9995296199851964
1371,1571.000,1.8342146962399966
1372,1572.000,11.92881198391865
1373,1573.000,6.430559717792448
1374,1574.000,12.3618961326315
1375,1575.000,30.37487946320698
1376,1576.000,47.167947944288926
1377,1577.000,69.03133781064821
1378,1578.000,78.60388929705482
1379,1579.000,98.95400763828025
1380,1580.000,135.26935206909434
1381,1581.000,157.00254282426818
1382,1582.000,189.2503801385717
1383,1583.000,188.04388524677552
1384,1584.000,172.13487838365108
1385,1585.000,162.38302378396793
1386,1586.000,140.0746786824975
1387,1587.000,117.06847531400945
1388,1588.000,104.38754391327507
1389,1589.000,93.6516267150646
1390,1590.000,89.9542969541485
1391,1591.000,87.31347886529738
1392,1592.000,96.9465386832826
1393,1593.000,106.3968376428736
1394,1594.000,120.77846197884128
1395,1595.000,144.6114109259563
1396,1596.000,166.31032171898914
1397,1597.000,215.23462259271105
1398,1598.000,284.8361957818918
1399,1599.000,375.54864952130174
1400,1600.000,462.00880004571195
1401,1601.000,553.5119425898931
1402,1602.000,592.2729823886154
1403,1603.000,565.0521966766494
1404,1604.000,466.70243968876616
1405,1605.000,362.38469665973594
1406,1606.000,284.87706882432894
1407,1607.000,211.1817084173165
1408,1608.000,156.59868767346848
1409,1609.000,126.40659882755563
1410,1610.000,85.31801211434868
1411,1611.000,69.76234876861827
1412,1612.000,51.95565102513433
1413,1613.000,43.35960511866847
1414,1614.000,20.411848283990366
1415,1615.000,10.80952675587082
1416,1616.000,9.03358876908078
1417,1617.000,3.777763558390234
1418,1618.000,0.6777533585700439
1419,1619.000,-6.020439595608877
1420,1620.000,-4.833081069376931
1421,1621.000,-6.402385827962689
1422,1622.000,-11.876238636595872
1423,1623.000,-21.83695926050632
1424,1624.000,-10.783065464922174
1425,1625.000,-28.60816501507429
1426,1626.000,-22.348906676191746
1427,1627.000,-17.28976821350352
1428,1628.000,-27.574216392239578
1429,1629.000,-17.399732977628673
1430,1630.000,-14.774864734901257
1431,1631.000,-17.763049429285502
1432,1632.000,-25.444970826011968
1433,1633.000,-23.00802869030963
1434,1634.000,-32.6565337874074
1435,1635.000,-27.905395882535913
1436,1636.000,-28.21318574092379
1437,1637.000,-30.960285127800717
1438,1638.000,-31.142077808395925
1439,1639.000,-33.80843954793886
1440,1640.000,-44.739330111659
1441,1641.000,-31.106796264786226
1442,1642.000,-32.037460772549366
1443,1643.000,-22.064090400178202
1444,1644.000,-30.419171912901675
1445,1645.000,-34.60068207594986
1446,1646.000,-30.116420654551803
1447,1647.000,-31.919512413937355
1448,1648.000,-36.02090511933511
1449,1649.000,-38.46466553597588
1450,1650.000,-45.207038429087106
1451,1651.000,-35.963607563900496
1452,1652.000,-27.231876705644027
1453,1653.000,-48.279062619547176
1454,1654.000,-43.02872807083986
1455,1655.000,-33.04666082475137
1456,1656.000,-36.59456664651134
1457,1657.000,-35.42066830134877
1458,1658.000,-49.19582255449336
1459,1659.000,-41.78091817117479
1460,1660.000,-35.40272691662153
1461,1661.000,-35.05196155606427
1462,1662.000,-36.94703985473143
1463,1663.000,-44.11449757785317
1464,1664.000,-35.75369949065862
1465,1665.000,-46.23282135837735
1466,1666.000,-44.83457294623804
1467,1667.000,-46.28976301947114
1468,1668.000,-30.835485343306118
1469,1669.000,-42.01073168297148
1470,1670.000,-39.316568803697464
1471,1671.000,-52.87687647071289
1472,1672.000,-33.28787444924774
1473,1673.000,-37.1477445045316
1474,1674.000,-49.890092401793254
1475,1675.000,-49.67805190626245
1476,1676.000,-30.234945783168087
1477,1677.000,-45.869341797740844
1478,1678.000,-29.284036715208913
1479,1679.000,-43.158324300802406
1480,1680.000,-55.2652003197511
1481,1681.000,-33.84612053728347
1482,1682.000,-37.52203971862923
1483,1683.000,-36.49960362901834
1484,1684.000,-43.66870303367955
1485,1685.000,-41.95087869784311
1486,1686.000,-34.98674538673754
1487,1687.000,-45.675364865592655
1488,1688.000,-52.563970899638434
1489,1689.000,-35.390861254103584
1490,1690.000,-44.56807669421778
1491,1691.000,-33.25414598521047
1492,1692.000,-43.799776892311
1493,1693.000,-43.49236018074885
1494,1694.000,-42.46390061575403
1495,1695.000,-55.08187396255494
1496,1696.000,-33.94651498638177
1497,1697.000,-44.7697964524632
1498,1698.000,-42.18420112602962
1499,1699.000,-32.24721477231037
1500,1700.000,-40.33212215653407
1501,1701.000,-35.66000204393072
1502,1702.000,-39.013230199729605
1503,1703.000,-36.39240638915999
1504,1704.000,-39.35461137745165
1505,1705.000,-34.08910592983398
1506,1706.000,-42.25796981153667
1507,1707.000,-38.223121787788614
1508,1708.000,-45.21761962381902
1509,1709.000,-33.84555908485822
1510,1710.000,-54.01886893613505
1511,1711.000,-39.80023494287957
1512,1712.000,-38.727597870320096
1513,1713.000,-38.81692748368664
1514,1714.000,-40.88395254820898
1515,1715.000,-32.78079782911641
1516,1716.000,-28.09837609163833
1517,1717.000,-44.31905410100376
1518,1718.000,-52.16084862244247
1519,1719.000,-47.19895842118376
1520,1720.000,-45.51166926245742
1521,1721.000,-41.413404911492535
1522,1722.000,-40.88796513351895
1523,1723.000,-34.04464169376547
1524,1724.000,-43.02648535746175
1525,1725.000,-40.639616889837725
1526,1726.000,-39.70816205612232
1527,1727.000,-45.58211262154509
1528,1728.000,-42.16506435133556
1529,1729.000,-23.670475010722612
1530,1730.000,-40.69774036493641
1531,1731.000,-45.85772717920645
1532,1732.000,-53.083822218761725
1533,1733.000,-33.73267824883169
1534,1734.000,-41.823930034645855
1535,1735.000,-43.625549341433725
1536,1736.000,-25.084396934424603
1537,1737.000,-31.086367578848467
1538,1738.000,-49.87253603993395
1539,1739.000,-41.61155708291085
1540,1740.000,-33.46042547300863
1541,1741.000,-34.35726397545659
1542,1742.000,-45.96065735548427
1543,1743.000,-28.53971037832116
1544,1744.000,-28.009581809197016
1545,1745.000,-45.67109341334026
1546,1746.000,-49.5244819559814
1547,1747.000,-47.18255520234948
1548,1748.000,-34.747570917673784
1549,1749.000,-32.180898867183714
1550,1750.000,-37.44917081610879
1551,1751.000,-42.02902652967873
1552,1752.000,-38.91360877312286
1553,1753.000,-34.86853331167026
1554,1754.000,-45.427374910550725
1555,1755.000,-48.22146633499369
1556,1756.000,-38.44115435022809
1557,1757.000,-30.41251572148417
1558,1758.000,-36.55608521399063
1559,1759.000,-36.419970592977506
1560,1760.000,-41.51170562367406
1561,1761.000,-31.82411707130882
1562,1762.000,-47.466001701112646
1563,1763.000,-37.48741527831453
1564,1764.000,-40.530681568143336
1565,1765.000,-37.76646433582914
1566,1766.000,-42.27309534660071
1567,1767.000,-32.087552365688225
1568,1768.000,-36.911765158320804
1569,1769.000,-39.89024048972783
1570,1770.000,-33.11747012513888
1571,1771.000,-36.34435282978302
1572,1772.000,-39.007773368890184
1573,1773.000,-39.2863855076896
1574,1774.000,-30.927789011410596
1575,1775.000,-41.0825146452828
1576,1776.000,-36.62845117453526
1577,1777.000,-36.750402364397814
1578,1778.000,-33.101494980099915
1579,1779.000,-35.981882786870756
1580,1780.000,-21.718122549940063
1581,1781.000,-44.971816034536914
1582,1782.000,-30.7696770058908
1583,1783.000,-34.349098229231686
1584,1784.000,-27.328654469788034
1585,1785.000,-43.552486492790194
1586,1786.000,-26.32848706346749
1587,1787.000,-41.74489094704859
1588,1788.000,-29.122477908763585
1589,1789.000,-30.014243713842234
1590,1790.000,-32.710464127513205
1591,1791.000,-37.12852191500633
1592,1792.000,-37.412080841550505
1593,1793.000,-31.731753672376044
1594,1794.000,-36.628431172712226
1595,1795.000,-43.62710710778788
1596,1796.000,-42.56448524283269
1597,1797.000,-26.712723343076505
1598,1798.000,-26.356200173747993
1599,1799.000,-27.986828500077536
1600,1800.000,-30.57315208729392
1601,1801.000,-28.354268700627017
1602,1802.000,-27.44174110530571
1603,1803.000,-28.675503066559486
1604,1804.000,-34.70775034961798
1605,1805.000,-34.12503871971103
1606,1806.000,-36.40456694206773
1607,1807.000,-28.349054781917175
1608,1808.000,-34.969509004489055
1609,1809.000,-29.735821375013302
1610,1810.000,-20.649923658718762
1611,1811.000,-30.552538620834866
1612,1812.000,-22.21965902659099
1613,1813.000,-18.44139164121725
1614,1814.000,-38.491393229942105
1615,1815.000,-35.894510557996455
1616,1816.000,-24.190811390607678
1617,1817.000,-31.022878493006374
1618,1818.000,-23.295340630422743
1619,1819.000,-21.99504356808461
1620,1820.000,-29.05206507122307
1621,1821.000,-20.738723905065854
1622,1822.000,-14.95974483484315
1623,1823.000,-19.407974625785073
1624,1824.000,-30.11360404311995
1625,1825.000,-25.45422985207847
1626,1826.000,-27.51599881788843
1627,1827.000,-14.59957570578058
1628,1828.000,-24.87585228098419
1629,1829.000,-27.564701308727763
1630,1830.000,-22.847417554242384
1631,1831.000,-19.74324478275571
1632,1832.000,-24.78197075949788
1633,1833.000,-21.58487524969928
1634,1834.000,-21.912813018587713
1635,1835.000,-17.176109831393887
1636,1836.000,-15.453322453346345
1637,1837.000,-19.335009649675158
1638,1838.000,-23.464935185609875
1639,1839.000,-17.90597482637895
1640,1840.000,-25.369371337213124
1641,1841.000,-13.246827483340667
1642,1842.000,-17.271772029992007
1643,1843.000,-17.56518774239521
1644,1844.000,-33.24473338578082
1645,1845.000,-4.1481327253789
1646,1846.000,-9.293795526416943
1647,1847.000,-10.054598554126414
1648,1848.000,-16.564964573735097
1649,1849.000,-12.943300350473237
1650,1850.000,0.5251003504290566
1651,1851.000,-20.351863236255895
1652,1852.000,-11.410837875759398
1653,1853.000,-11.908351333308929
1654,1854.000,-14.300067374135551
1655,1855.000,-12.65201676346851
1656,1856.000,-20.27436526653628
1657,1857.000,-10.126702648569562
1658,1858.000,-21.48820967479628
1659,1859.000,-2.2464471104469794
1660,1860.000,-8.054009720751537
1661,1861.000,-17.571754270937845
1662,1862.000,-24.630804526236943
1663,1863.000,-11.050678251876661
1664,1864.000,-8.23864221308736
1665,1865.000,-16.856236175098957
1666,1866.000,-0.4201869031398928
1667,1867.000,-8.441518162440389
1668,1868.000,-12.447558718229402
1669,1869.000,-17.631715335735635
1670,1870.000,-9.561954780190945
1671,1871.000,-9.618859816822123
1672,1872.000,-4.107680210860281
1673,1873.000,-1.2979127275334577
1674,1874.000,-6.990011132072141
1675,1875.000,-3.9871261897062595
1676,1876.000,2.218372334336209
1677,1877.000,-2.1956873251756406
1678,1878.000,-7.023899933469693
1679,1879.000,-1.3299082557766724
1680,1880.000,-7.741061057324941
1681,1881.000,-1.4629241033444487
1682,1882.000,-3.4293841590656484
1683,1883.000,-9.881956989716173
1684,1884.000,0.7744146394729796
1685,1885.000,-1.8958040367263038
1686,1886.000,2.4405442164561464
1687,1887.000,-9.460208366210054
1688,1888.000,5.606615450047002
1689,1889.000,6.323693899996442
1690,1890.000,-2.2296787815894277
1691,1891.000,-0.25177735994088835
1692,1892.000,1.088968399711348
1693,1893.000,1.142409732140095
1694,1894.000,6.749449872114155
1695,1895.000,-2.0727139455946144
1696,1896.000,-4.21592548621561
1697,1897.000,1.700399485019716
1698,1898.000,15.024620202884307
1699,1899.000,1.7746999021467218
1700,1900.000,-1.4059761824203179
1701,1901.000,-0.4368758160476318
1702,1902.000,6.566326236034911
1703,1903.000,13.116649208599483
1704,1904.000,2.1400773364148336
1705,1905.000,8.104971854253108
1706,1906.000,8.85051199688428
1707,1907.000,10.873352999077952
1708,1908.000,9.464790095606759
1709,1909.000,15.422834521238656
1710,1910.000,13.766479510746422
1711,1911.000,6.48141829890028
1712,1912.000,25.261826120469323
1713,1913.000,3.0675022102257117
1714,1914.000,3.878768802939021
1715,1915.000,18.54243813338053
1716,1916.000,13.996057436319916
1717,1917.000,11.94028994652922
1718,1918.000,15.18829089877795
1719,1919.000,18.65908452783583
1720,1920.000,12.563250068475554
1721,1921.000,11.854281755465536
1722,1922.000,9.940188823578183
1723,1923.000,11.630795507583343
1724,1924.000,12.572615042250618
1725,1925.000,24.823319662351878
1726,1926.000,20.20510660265677
1727,1927.000,22.37817909793739
1728,1928.000,16.324143382962575
1729,1929.000,26.58646369250323
1730,1930.000,11.526601261330597
1731,1931.000,24.336897324214306
1732,1932.000,26.261886115926245
1733,1933.000,19.223901871236194
1734,1934.000,17.151044824914152
1735,1935.000,27.04215821173193
1736,1936.000,20.2769382664585
1737,1937.000,19.785889223866207
1738,1938.000,25.647742318724795
1739,1939.000,19.693048785803967
1740,1940.000,26.218886859875738
1741,1941.000,39.8363017757099
1742,1942.000,25.694802768077352
1743,1943.000,34.40948207174847
1744,1944.000,23.293366921493316
1745,1945.000,30.76632955208379
1746,1946.000,29.29486419828868
1747,1947.000,30.578949094880272
1748,1948.000,36.787074476628504
1749,1949.000,45.80503057830265
1750,1950.000,32.820411634675565
1751,1951.000,42.08243888051561
1752,1952.000,37.0363785505956
1753,1953.000,40.03630187968474
1754,1954.000,33.49235710255289
1755,1955.000,32.752159453972126
1756,1956.000,36.480857168711964
1757,1957.000,33.74684848154379
1758,1958.000,39.025903627237085
1759,1959.000,33.45208684056365
1760,1960.000,40.52614735629368
1761,1961.000,42.268865409196906
1762,1962.000,52.82208923404528
1763,1963.000,52.992125065607524
1764,1964.000,46.435356138656516
1765,1965.000,41.09243868796102
1766,1966.000,48.48843594829191
1767,1967.000,50.47965715442092
1768,1968.000,45.145288541116315
1769,1969.000,41.97383534315122
1770,1970.000,37.07100079529482
1771,1971.000,48.337168132317174
1772,1972.000,60.85765958899037
1773,1973.000,48.847854400083406
1774,1974.000,53.166371800368324
1775,1975.000,53.81455702461517
1776,1976.000,55.30346730759334
1777,1977.000,57.81610388407512
1778,1978.000,41.92697098882945
1779,1979.000,53.84056285662905
1780,1980.000,57.7942537222425
1781,1981.000,55.7910348204407
1782,1982.000,64.42170838599532
1783,1983.000,55.701228653675344
1784,1984.000,64.27544985825307
1785,1985.000,70.15419823449793
1786,1986.000,58.86173901718007
1787,1987.000,61.37703844107159
1788,1988.000,60.27696874094113
1789,1989.000,67.46000415156118
1790,1990.000,50.855794907701465
1791,1991.000,55.75324824413178
1792,1992.000,63.61255339562422
1793,1993.000,71.45868759694758
1794,1994.000,70.62543508287445
1795,1995.000,63.01668908817328
1796,1996.000,78.4294528476164
1797,1997.000,70.32328159597387
1798,1998.000,66.76927156801503
1799,1999.000,74.5795159985123
1800,2000.000,80.0998271222345
