pixel_index,raman_shift_cm-1,intensity
0,200.000,-3.6352249552830926
1,201.000,-6.773089154496006
2,202.000,-0.3203207809627884
3,203.000,3.6893848227677495
4,204.000,7.979936340361178
5,205.000,1.8189154816589053
6,206.000,-2.1581140173590825
7,207.000,-3.553748394612512
8,208.000,5.644641138041152
9,209.000,10.958162394769317
10,210.000,2.783439215725423
11,211.000,-6.255723532987929
12,212.000,-4.6078609593577085
13,213.000,10.739381854502085
14,214.000,2.354153852312038
15,215.000,-9.258306996410056
16,216.000,0.6300173036127035
17,217.000,-5.84942322662215
18,218.000,-2.648012540433399
19,219.000,-1.8024925654949584
20,220.000,-3.1564722038733066
21,221.000,4.441582667934483
22,222.000,0.7407351989628523
23,223.000,-2.4193644362603095
24,224.000,3.5730539622483093
25,225.000,6.092390619890125
26,226.000,-8.746821212554096
27,227.000,-0.43097825896148834
28,228.000,-4.776974217905433
29,229.000,0.06670623730661873
30,230.000,-6.632729541404501
31,231.000,1.2260878230718504
32,232.000,0.8728067329986402
33,233.000,-0.7277163842467189
34,234.000,-5.1910490762107315
35,235.000,-1.282424865401481
36,236.000,-5.455042249326311
37,237.000,-7.040102700530269
38,238.000,2.438084333366362
39,239.000,-5.568507570370059
40,240.000,8.107588190375623
41,241.000,5.383554242529556
42,242.000,-10.904659762209405
43,243.000,2.7132188525927745
44,244.000,-5.53165821193295
45,245.000,1.2751707700036263
46,246.000,1.33679254881406
47,247.000,-10.85741910050723
48,248.000,-0.32923137841982
49,249.000,-0.4653104608764238
50,250.000,6.83953850064006
51,251.000,-6.023059620921799
52,252.000,5.4919350717804605
53,253.000,-5.5321144995552345
54,254.000,-0.9280103889130373
55,255.000,-3.9851196259971857
56,256.000,9.748061783729952
57,257.000,4.46287685901018
58,258.000,15.641885642751333
59,259.000,4.900846201989282
60,260.000,6.117126627850553
61,261.000,6.089053035513416
62,262.000,-2.5969674358288444
63,263.000,0.6202363769930912
64,264.000,9.140404661087302
65,265.000,-1.34361137253768
66,266.000,2.1660665109895945
67,267.000,0.9034585703652169
68,268.000,4.68358108807206
69,269.000,-1.1637366296580467
70,270.000,0.1089287471179432
71,271.000,2.474719572015772
72,272.000,1.635849222286538
73,273.000,-4.17490190122146
74,274.000,6.386800625899241
75,275.000,-6.781672748422409
76,276.000,-6.20042655277399
77,277.000,-6.691690292297835
78,278.000,6.802026551271581
79,279.000,-1.1665874804306782
80,280.000,-4.832348822437837
81,281.000,-5.825516886489254
82,282.000,3.514073938931517
83,283.000,-5.345147711441143
84,284.000,-6.6520331796928645
85,285.000,4.6608662152331135
86,286.000,-6.206937822502709
87,287.000,-0.9649925656733558
88,288.000,0.9253237359764057
89,289.000,-1.7099381443077277
90,290.000,0.6336175896722693
91,291.000,8.986852757029226
92,292.000,-2.1511998002478663
93,293.000,-6.609802217331037
94,294.000,-10.078638606591483
95,295.000,-0.29104505763768884
96,296.000,-1.1803566373533272
97,297.000,2.5192826100650336
98,298.000,-1.8612623369301673
99,299.000,-1.9522414772753791
100,300.000,-3.4130057873337023
101,301.000,-2.208457220933383
102,302.000,1.8665862905952508
103,303.000,-1.381852161619122
104,304.000,1.4978635359736927
105,305.000,12.297194519307766
106,306.000,3.759547946662508
107,307.000,-8.57702300137504
108,308.000,11.275277878052407
109,309.000,2.955452810033478
110,310.000,-4.785491958148896
111,311.000,6.29958384294406
112,312.000,0.9574305048690803
113,313.000,-2.845704658736622
114,314.000,-2.9614343121937736
115,315.000,-5.127056097818922
116,316.000,1.1160643640379249
117,317.000,7.233968474955134
118,318.000,-1.135627341598422
119,319.000,3.333145359698733
120,320.000,12.055492045983044
121,321.000,-6.4926147938328995
122,322.000,2.333272350902803
123,323.000,-1.0573769874571894
124,324.000,-5.581289254897399
125,325.000,-5.387937875777141
126,326.000,0.6682267471313708
127,327.000,3.35580423260501
128,328.000,-2.4443347790681287
129,329.000,1.0640203738736318
130,330.000,5.063294374627162
131,331.000,2.5016679277869116
132,332.000,5.926469759306713
133,333.000,3.4748616164621353
134,334.000,3.626452267812624
135,335.000,11.650042503163093
136,336.000,4.420978133526489
137,337.000,1.4503719910856603
138,338.000,4.924693929155296
139,339.000,-4.858336177855563
140,340.000,-1.3785614344819237
141,341.000,5.398142075759438
142,342.000,4.414572290331989
143,343.000,9.91094416764173
144,344.000,0.6744206869989853
145,345.000,-8.171691151419509
146,346.000,12.27633567339177
147,347.000,7.140674203228741
148,348.000,-5.7787594993595235
149,349.000,8.818839648890332
150,350.000,0.7484307519189883
151,351.000,-10.339559065694118
152,352.000,-1.9882276587687784
153,353.000,-2.5297618615610986
154,354.000,10.058398512197584
155,355.000,-4.249571330736956
156,356.000,-1.0294501631590833
157,357.000,-1.1790157374524597
158,358.000,-1.803110785626643
159,359.000,-5.0246600193561335
160,360.000,1.7632458699825406
161,361.000,6.898372211272374
162,362.000,4.170112353618094
163,363.000,-5.150165333691746
164,364.000,-6.495602461222688
165,365.000,1.1054773805680043
166,366.000,-3.8596203787073478
167,367.000,-3.413029289403937
168,368.000,-9.722217881883068
169,369.000,12.046763333450542
170,370.000,5.831272866110453
171,371.000,-5.524261754509439
172,372.000,5.755948020827134
173,373.000,8.348993761161239
174,374.000,-14.055985944699444
175,375.000,-3.0251904882184704
176,376.000,-2.0723382411688362
177,377.000,4.131930444329498
178,378.000,-0.4996067642284743
179,379.000,-1.1667401797708976
180,380.000,-0.14783909568654963
181,381.000,11.3087652141366
182,382.000,13.1349944952741
183,383.000,-2.9876654872732615
184,384.000,-5.410109949117441
185,385.000,16.288612913479028
186,386.000,-5.7593520764345385
187,387.000,-3.3355960765355803
188,388.000,0.3098867747343661
189,389.000,2.975337358131469
190,390.000,6.235414573571575
191,391.000,2.3922873400925937
192,392.000,-5.202770404183639
193,393.000,3.0548072979106564
194,394.000,1.5008844225515077
195,395.000,11.247639964885025
196,396.000,-0.11924406101024942
197,397.000,-8.066571622161689
198,398.000,-6.33046166673995
199,399.000,8.624850875902439
200,400.000,-3.3326969048060846
201,401.000,-12.734665900694893
202,402.000,-3.6081449848883267
203,403.000,-0.14005001184409593
204,404.000,6.976533182609046
205,405.000,-6.259685218766776
206,406.000,3.810680985343538
207,407.000,4.565718014769914
208,408.000,-4.419178892179843
209,409.000,-1.3652744787594884
210,410.000,10.359963530178788
211,411.000,10.049054428146178
212,412.000,4.842048526979738
213,413.000,1.6832521568030643
214,414.000,6.503976665990194
215,415.000,-1.1875125788734522
216,416.000,-0.9316871930286652
217,417.000,-5.541081773580686
218,418.000,-0.3634428995364942
219,419.000,-0.9069361318433948
220,420.000,16.208830986573503
221,421.000,-1.6082510692267533
222,422.000,7.155374193760622
223,423.000,7.434999286449283
224,424.000,-1.625414262377376
225,425.000,6.491175093897027
226,426.000,-13.604863080317045
227,427.000,0.006702797147340789
228,428.000,4.561724326176204
229,429.000,-14.98812587566431
230,430.000,-7.575155173165058
231,431.000,5.697016086488247
232,432.000,-2.2008914263237784
233,433.000,-7.267523023690842
234,434.000,-2.939510000212408
235,435.000,-3.9731716330340987
236,436.000,3.6092358181133477
237,437.000,1.9659611108763784
238,438.000,-2.4587299797588003
239,439.000,-4.7895186615048715
240,440.000,-1.1409171248110397
241,441.000,7.11297645709908
242,442.000,1.2358049281896228
243,443.000,2.9548351495744782
244,444.000,-1.8035090005205348
245,445.000,-8.670991626796308
246,446.000,-5.205920816917342
247,447.000,2.9457023584501485
248,448.000,-0.3633681544006322
249,449.000,-6.426740392253919
250,450.000,-10.73204837500964
251,451.000,-0.3819471057215651
252,452.000,-3.104522570635254
253,453.000,-3.191900739225389
254,454.000,-3.08688756423453
255,455.000,0.5716930182899205
256,456.000,0.6133160889564806
257,457.000,4.597688744992865
258,458.000,4.373654100208
259,459.000,6.773812284952669
260,460.000,3.5974844460836266
261,461.000,-3.2763652530758236
262,462.000,-1.6104276327731668
263,463.000,1.658305503135466
264,464.000,-3.1909806328530976
265,465.000,1.9450931880735425
266,466.000,5.547735211005261
267,467.000,-6.203846302729062
268,468.000,-12.04118907559814
269,469.000,5.720466186092153
270,470.000,-1.3575462078379132
271,471.000,2.7652110685197613
272,472.000,-9.503402642877404
273,473.000,8.865565015940547
274,474.000,2.876453418917322
275,475.000,-2.334640044067214
276,476.000,-3.713105967235265
277,477.000,-0.9408339289485639
278,478.000,-2.6476784917465466
279,479.000,-3.3425582023845664
280,480.000,-8.41118859187111
281,481.000,5.860054824493545
282,482.000,-1.977521452920314
283,483.000,-1.315532908109276
284,484.000,-1.2291770094758476
285,485.000,-15.959336209865114
286,486.000,1.329426053396105
287,487.000,-3.8317696415374485
288,488.000,-3.6156547010683653
289,489.000,-1.485022516193908
290,490.000,-7.762088462544398
291,491.000,3.109547099579231
292,492.000,-6.149442174832643
293,493.000,-7.419730615536196
294,494.000,-7.194455537072145
295,495.000,-1.0923412388036695
296,496.000,2.4062779950456843
297,497.000,-5.662257104645846
298,498.000,-11.176590791936519
299,499.000,4.235950694141366
300,500.000,-8.55300387045645
301,501.000,4.982988305175695
302,502.000,-2.5352389731444873
303,503.000,-6.423006884724828
304,504.000,-6.096560594037783
305,505.000,0.4914987492434193
306,506.000,3.0331950102053042
307,507.000,-3.5153499313429393
308,508.000,3.3320358190924253
309,509.000,10.149113170651503
310,510.000,-3.6457309529167787
311,511.000,-9.315617613292602
312,512.000,-8.768323857623727
313,513.000,-10.806837718562974
314,514.000,-6.325635214305748
315,515.000,-6.853041348629063
316,516.000,-10.483608110928458
317,517.000,0.6256035237435071
318,518.000,-18.24593440536023
319,519.000,-10.524966844719643
320,520.000,9.469198273414804
321,521.000,3.582505030983725
322,522.000,0.47059452408200286
323,523.000,0.05571586291955555
324,524.000,7.916273171784269
325,525.000,0.4831005890034703
326,526.000,-2.2863467330932963
327,527.000,-10.153695628212859
328,528.000,-3.235441916135869
329,529.000,-7.217217402755068
330,530.000,-7.071189880113252
331,531.000,-7.139535126440364
332,532.000,-3.1416679061927653
333,533.000,-4.8714429700903565
334,534.000,2.3144059448458165
335,535.000,-10.888093884745217
336,536.000,-3.966226168601679
337,537.000,8.189551397122614
338,538.000,-2.7516848701790195
339,539.000,4.189401360395209
340,540.000,3.8021104332179902
341,541.000,4.864501706094984
342,542.000,1.3775095502269323
343,543.000,-11.34917964982833
344,544.000,-4.6855724961941405
345,545.000,-5.377414577712216
346,546.000,-12.402063469981044
347,547.000,-5.905091735393853
348,548.000,-10.63444792317648
349,549.000,-13.138699569424944
350,550.000,-1.8906431971440725
351,551.000,-3.427356316284545
352,552.000,-7.30159042378159
353,553.000,-8.886160003592863
354,554.000,-6.437209526735387
355,555.000,-5.5599584513250875
356,556.000,-5.648773222613158
357,557.000,-3.5198252730251625
358,558.000,-5.81897902219805
359,559.000,-0.8846588770188646
360,560.000,-0.06852223166231397
361,561.000,-1.0561844676282135
362,562.000,-7.177959953780714
363,563.000,-6.892471046384571
364,564.000,-0.5763680891443528
365,565.000,-4.357803413242095
366,566.000,-3.422166337374506
367,567.000,-18.10047616779218
368,568.000,-19.331724198335905
369,569.000,-1.0879417104763434
370,570.000,-1.1101129733503967
371,571.000,5.299844756199832
372,572.000,1.2965842335893285
373,573.000,-1.6656627735474103
374,574.000,-2.8593304853942527
375,575.000,-11.47468310999227
376,576.000,2.433180156723324
377,577.000,-6.433449869114952
378,578.000,0.26302164065486977
379,579.000,-1.4848844738136222
380,580.000,-0.9784313604126282
381,581.000,2.827282844881097
382,582.000,-5.376745982031025
383,583.000,-4.659803953407504
384,584.000,-7.359372169704784
385,585.000,-4.362644719615446
386,586.000,8.034091319894742
387,587.000,-3.9879351164521495
388,588.000,5.476445917716546
389,589.000,3.5090163803859014
390,590.000,3.140810241115787
391,591.000,3.8203214810023383
392,592.000,-6.817893907359348
393,593.000,1.8065110800860111
394,594.000,9.431746458817429
395,595.000,-3.894867744301564
396,596.000,0.42603150893899056
397,597.000,-2.9390027319409455
398,598.000,3.6539915938489003
399,599.000,-4.082143441667085
400,600.000,12.780723244729643
401,601.000,1.7108107474158487
402,602.000,-4.2954968281126185
403,603.000,16.863600634721706
404,604.000,13.308749263539653
405,605.000,12.221692196968093
406,606.000,14.254486584600954
407,607.000,11.269665586962788
408,608.000,14.957791375469355
409,609.000,24.200665132390554
410,610.000,29.80891205081241
411,611.000,35.51993433459904
412,612.000,38.387110198354435
413,613.000,43.59550586738533
414,614.000,57.29984057766217
415,615.000,80.73472957578213
416,616.000,102.56256011893095
417,617.000,115.7610204748446
418,618.000,140.45132692177185
419,619.000,171.85992974843612
420,620.000,177.1033482539974
421,621.000,168.49281074801468
422,622.000,135.31041055040805
423,623.000,115.37024899141977
424,624.000,90.57162041157835
425,625.000,74.99775516165857
426,626.000,47.950573602644454
427,627.000,53.56689210569152
428,628.000,38.38983105208865
429,629.000,31.945233833219845
430,630.000,16.54500685052699
431,631.000,18.979474515471225
432,632.000,23.521700249495325
433,633.000,3.1493284839859825
434,634.000,11.979462660235754
435,635.000,12.324226229404417
436,636.000,2.2896176524823204
437,637.000,9.897944400251845
438,638.000,1.8056949532488034
439,639.000,10.111092801725704
440,640.000,4.9834734456131855
441,641.000,2.366123394482088
442,642.000,12.371493167505832
443,643.000,4.688642293421822
444,644.000,6.997093310494392
445,645.000,-8.485252233523738
446,646.000,-5.6709957814288146
447,647.000,2.82809023339496
448,648.000,2.8798323869390288
449,649.000,-3.218196735469178
450,650.000,1.493179460797478
451,651.000,-9.81170942037329
452,652.000,-2.4329327658701914
453,653.000,-10.834494953397552
454,654.000,-2.124890351511567
455,655.000,-7.287429319659395
456,656.000,-8.404667208217234
457,657.000,-4.396797358527579
458,658.000,6.0053888970633125
459,659.000,-11.124684764834228
460,660.000,-8.810283658689627
461,661.000,1.0687699099094061
462,662.000,-8.008569355781106
463,663.000,5.02527725630091
464,664.000,-4.372045533014671
465,665.000,-5.274649994167703
466,666.000,-3.7831293889061044
467,667.000,4.421453029676854
468,668.000,-2.1902219828966736
469,669.000,-3.1148036625254463
470,670.000,-4.792840236567713
471,671.000,-15.763913923879954
472,672.000,-11.783201934853196
473,673.000,2.3493435285472515
474,674.000,-1.695792727254343
475,675.000,-3.6643918874833616
476,676.000,-2.949671129052149
477,677.000,-10.102576620598143
478,678.000,-4.880051522522081
479,679.000,-12.377398987025003
480,680.000,-4.687347158147304
481,681.000,-11.381426171805856
482,682.000,-8.438932155832276
483,683.000,-4.493317230010803
484,684.000,-9.230803506116331
485,685.000,-3.439413087951948
486,686.000,-4.642127071387563
487,687.000,-5.273751544396987
488,688.000,0.46507641290361335
489,689.000,-16.374396271782302
490,690.000,-17.157331662969113
491,691.000,-3.9296358174274246
492,692.000,-2.0287117842216276
493,693.000,4.350998395251963
494,694.000,-3.2256843127728416
495,695.000,-2.8253599344699296
496,696.000,-13.147629488458847
497,697.000,-3.3750149858425402
498,698.000,-3.8884314302458733
499,699.000,-14.30651681785298
500,700.000,-13.388252137444852
501,701.000,-8.714731370438471
502,702.000,-6.356408490923741
503,703.000,-25.791231465701912
504,704.000,-7.736483254322934
505,705.000,-6.808205809123706
506,706.000,-9.288591075266595
507,707.000,-6.6600899907767825
508,708.000,-5.558297486579136
509,709.000,-14.395487486538741
510,710.000,-5.859728907496219
511,711.000,-9.895026659307177
512,712.000,-14.092045644879704
513,713.000,-7.190727760212326
514,714.000,0.45229510556828245
515,715.000,-17.26144992983086
516,716.000,-18.445774741906803
517,717.000,-18.47162919939933
518,718.000,3.286581835672564
519,719.000,-10.110566492028397
520,720.000,-8.980855031195802
521,721.000,-13.365329623916182
522,722.000,-14.309544105708824
523,723.000,-20.848010305561843
524,724.000,-7.683380045971262
525,725.000,-7.166365142978748
526,726.000,-20.599732406209228
527,727.000,-15.015078638909245
528,728.000,-13.23532363798438
529,729.000,-8.939863194037343
530,730.000,-7.330972091406579
531,731.000,-2.0515161082030318
532,732.000,-0.6286220163489133
533,733.000,-2.412199581615255
534,734.000,-0.7797245636598973
535,735.000,-15.831677716065883
536,736.000,-12.162625786378385
537,737.000,-1.9746225161435405
538,738.000,-7.1029156409462075
539,739.000,-8.71901889044716
540,740.000,-20.69947598842225
541,741.000,-19.972779652799318
542,742.000,-4.421173595696359
543,743.000,-6.743471523460016
544,744.000,-10.552727136702629
545,745.000,-11.234475130340797
546,746.000,-19.090095193633147
547,747.000,-6.479327010217844
548,748.000,-2.4692412581515555
549,749.000,1.2124303900542373
550,750.000,-8.305917732606417
551,751.000,-9.780993287671095
552,752.000,-15.081331931246268
553,753.000,-1.1093913140462064
554,754.000,1.8553689185691837
555,755.000,-11.994474873442982
556,756.000,-6.492664324847169
557,757.000,-7.606233065166407
558,758.000,-11.496628718721354
559,759.000,-22.931125904667965
560,760.000,-10.023380237033962
561,761.000,-4.05054432475913
562,762.000,-16.20819677173165
563,763.000,-12.418459176826218
564,764.000,-26.904926133942126
565,765.000,0.7059267679580898
566,766.000,-3.7738470551881846
567,767.000,-6.250345182581668
568,768.000,-7.863529188599955
569,769.000,-9.74728864283452
570,770.000,-6.039629110129567
571,771.000,-7.026094150618746
572,772.000,-6.198688319764415
573,773.000,-4.393945168394453
574,774.000,-2.8473232427411403
575,775.000,6.3677119155220225
576,776.000,-10.846756230758956
577,777.000,0.31789778574534466
578,778.000,-3.9608535631926998
579,779.000,-5.835964801393402
580,780.000,-11.782361448308507
581,781.000,7.7521109809406425
582,782.000,0.17036497552510355
583,783.000,3.949432028871115
584,784.000,14.149797638621521
585,785.000,8.319816306598455
586,786.000,19.22059353876432
587,787.000,23.785332845185053
588,788.000,35.331492739991404
589,789.000,44.156529741341615
590,790.000,41.825020371383175
591,791.000,62.65352415621453
592,792.000,67.245938625848
593,793.000,78.474680314171
594,794.000,83.68800875890895
595,795.000,92.27475350158625
596,796.000,77.63404608748976
597,797.000,79.18671706562952
598,798.000,74.7135689887017
599,799.000,55.22507841305014
600,800.000,58.91357189862924
601,801.000,33.34222400896488
602,802.000,31.411758311117296
603,803.000,20.892292375643365
604,804.000,14.849333776556932
605,805.000,7.567734091293914
606,806.000,7.476030900671731
607,807.000,7.464237788852415
608,808.000,0.5083863433044371
609,809.000,8.56368815476526
610,810.000,10.65141581720286
611,811.000,-9.125414072221247
612,812.000,3.7868720868077617
613,813.000,-1.1899801022773318
614,814.000,-1.8103780329640813
615,815.000,10.66099790429962
616,816.000,2.393195322070369
617,817.000,-3.4724111641310174
618,818.000,-4.952706935855986
619,819.000,-19.496986371766184
620,820.000,-2.326542847672499
621,821.000,-11.865405736571802
622,822.000,-6.691567408685387
623,823.000,-7.498265231497271
624,824.000,-2.6297665697911725
625,825.000,3.50989121431121
626,826.000,-3.0293302386892265
627,827.000,-1.5303302857039398
628,828.000,-10.79394228109777
629,829.000,-6.854289576723886
630,830.000,-5.161010521964954
631,831.000,-18.58868846376754
632,832.000,2.1357572533161147
633,833.000,-14.554616712905954
634,834.000,-18.07291970230608
635,835.000,-0.7368940524747813
636,836.000,2.043929901244155
637,837.000,-15.00362717428834
638,838.000,-14.57652061004137
639,839.000,7.669212265145688
640,840.000,-10.42660387547221
641,841.000,-23.10158135658571
642,842.000,-14.96105850086883
643,843.000,0.6394043709844937
644,844.000,-7.500402059779617
645,845.000,-7.020658110010345
646,846.000,-4.260551094692573
647,847.000,-7.6246423269833485
648,848.000,-13.74695611825041
649,849.000,-21.37920977810927
650,850.000,-9.198100614462419
651,851.000,-18.63306293353571
652,852.000,-12.332503039918947
653,853.000,-1.4972942365998279
654,854.000,-8.861223825006164
655,855.000,-11.80025210503959
656,856.000,-11.813373375117408
657,857.000,-7.871223932208068
658,858.000,-6.775467071869798
659,859.000,-20.24908708828798
660,860.000,-11.279183274314164
661,861.000,-2.1406209215035688
662,862.000,-7.94938932015225
663,863.000,-17.106165759336136
664,864.000,-16.631752526948276
665,865.000,-24.962911909736704
666,866.000,-17.387901193342714
667,867.000,-3.020991662338929
668,868.000,-13.114023600267501
669,869.000,-17.86001928967562
670,870.000,-16.218761012156847
671,871.000,-13.457634048387717
672,872.000,-13.462627678164608
673,873.000,-14.976475180442776
674,874.000,-17.49559483337407
675,875.000,-9.089138914344858
676,876.000,-3.7040357000144013
677,877.000,-16.368838466351463
678,878.000,-16.23376548867327
679,879.000,-5.874251041683465
680,880.000,-21.81627639950989
681,881.000,-16.604845835742026
682,882.000,-15.346951623470204
683,883.000,-12.092805035321135
684,884.000,-14.769493343498652
685,885.000,-18.45909081981995
686,886.000,-11.29528973575384
687,887.000,-20.302696362458164
688,888.000,-23.6488709708201
689,889.000,-25.37993783148977
690,890.000,-8.734051214922602
691,891.000,-23.662468391414677
692,892.000,-10.573322631141309
693,893.000,-9.244975204195043
694,894.000,-8.440623380622583
695,895.000,-14.342122430465679
696,896.000,-16.59444262379543
697,897.000,-12.801625230751824
698,898.000,-16.887660521582347
699,899.000,-21.051233766678706
700,900.000,-5.809307236615496
701,901.000,-18.715639202188186
702,902.000,-2.5798719344495566
703,903.000,-10.271913704749977
704,904.000,-16.0922207847741
705,905.000,-10.742435446578156
706,906.000,-5.989903962628887
707,907.000,-21.643106605841922
708,908.000,-18.933404649617387
709,909.000,-19.66780336788065
710,910.000,-12.38036503511853
711,911.000,-10.942293926418415
712,912.000,-13.190088317503523
713,913.000,-17.728073484774768
714,914.000,-16.523214705345936
715,915.000,-6.2226702570822
716,916.000,-6.634384418638547
717,917.000,-12.537654469496829
718,918.000,-21.177770690004536
719,919.000,-9.532215361412682
720,920.000,-11.560347765912866
721,921.000,-11.75365218667639
722,922.000,-2.871914907891096
723,923.000,-8.30920021479983
724,924.000,-19.057874393738757
725,925.000,-18.97615273217434
726,926.000,-4.880351518741691
727,927.000,-11.90050404328349
728,928.000,-7.782847596885858
729,929.000,-13.711701471917877
730,930.000,-18.735956962069167
731,931.000,-11.056989362387867
732,932.000,-3.249234969318195
733,933.000,-10.525646080738397
734,934.000,-19.268632995998587
735,935.000,-14.302067015960347
736,936.000,-15.345771443031254
737,937.000,-11.236129581206797
738,938.000,-6.073083736104991
739,939.000,-0.27297521500554467
740,940.000,-10.644928326889158
741,941.000,-14.479550382472326
742,942.000,-11.355110694248879
743,943.000,-11.638580576524873
744,944.000,-14.19631234545841
745,945.000,-11.413984319096699
746,946.000,-11.455860817414077
747,947.000,-18.406222162350332
748,948.000,-7.9486926778481575
749,949.000,-13.292903689891773
750,950.000,-16.892159526543765
751,951.000,-7.914142517983237
752,952.000,-13.634609996545578
753,953.000,-0.1004462967573545
754,954.000,-7.5385517553768295
755,955.000,-9.774359711429952
756,956.000,-14.590185506250464
757,957.000,-12.301254483515322
758,958.000,-4.557890989284715
759,959.000,-13.549499372038554
760,960.000,-4.6180549827151935
761,961.000,-21.513034174749237
762,962.000,-7.425921304109352
763,963.000,-3.41599872933557
764,964.000,-5.942463811578591
765,965.000,-7.626545914637518
766,966.000,-1.1347444049961268
767,967.000,-11.881581651862234
768,968.000,-12.16529902720481
769,969.000,-5.102330905793906
770,970.000,2.0682383347643736
771,971.000,-1.9136646860119981
772,972.000,-4.957486351518128
773,973.000,-1.2033060481007851
774,974.000,0.5237018349039317
775,975.000,-8.627439094866759
776,976.000,-16.936893232840475
777,977.000,-4.992802977548081
778,978.000,-6.4243937306619046
779,979.000,0.6321881029671204
780,980.000,-1.313797884727137
781,981.000,2.7561458949314783
782,982.000,12.926425027329742
783,983.000,13.671124094521701
784,984.000,16.181135675193673
785,985.000,30.12171634462584
786,986.000,21.970823674653275
787,987.000,27.96499523362968
788,988.000,44.576703586388476
789,989.000,38.64280329420444
790,990.000,46.00684691475681
791,991.000,77.03752900209065
792,992.000,88.69592110657936
793,993.000,113.59443177488583
794,994.000,145.69051054992656
795,995.000,192.0453209708312
796,996.000,248.32412957290626
797,997.000,345.65936788759745
798,998.000,478.85195344244926
799,999.000,677.7949467610708
800,1000.000,885.1045233630944
801,1001.000,980.73271776414
802,1002.000,888.4440054757763
803,1003.000,696.1444200054832
804,1004.000,480.83079285661256
805,1005.000,354.0966325283523
806,1006.000,260.65081451568744
807,1007.000,197.74100430936141
808,1008.000,142.71377139584
809,1009.000,123.87915025727261
810,1010.000,98.45378537145211
811,1011.000,77.57337521178056
812,1012.000,64.3058272472299
813,1013.000,58.99578994230251
814,1014.000,56.68310875699535
815,1015.000,51.852496146760586
816,1016.000,57.3719715624693
817,1017.000,40.050105450371575
818,1018.000,45.81338725205978
819,1019.000,40.87286140443052
820,1020.000,51.102658339646496
821,1021.000,52.06291348509876
822,1022.000,54.965962263368965
823,1023.000,61.07415409219061
824,1024.000,79.31242638441199
825,1025.000,106.51964854795801
826,1026.000,144.00099798579163
827,1027.000,182.49711209587804
828,1028.000,229.344195271143
829,1029.000,306.7846998994387
830,1030.000,380.37482436350433
831,1031.000,410.1487090409271
832,1032.000,379.08252230410585
833,1033.000,311.45932652021247
834,1034.000,233.42040305115415
835,1035.000,167.81673825353528
836,1036.000,116.17567047862008
837,1037.000,93.94381707229309
838,1038.000,62.990283375023864
839,1039.000,55.267677721825976
840,1040.000,45.526178442221635
841,1041.000,25.964614860203255
842,1042.000,25.610623294193147
843,1043.000,18.434081057009962
844,1044.000,27.077050455826566
845,1045.000,14.448628792134286
846,1046.000,-2.8624706382947807
847,1047.000,8.37506645455187
848,1048.000,5.894783354893434
849,1049.000,0.22458034111355119
850,1050.000,-2.52163331427505
851,1051.000,1.8354496553311037
852,1052.000,0.9222295105871581
853,1053.000,-1.5856234938360103
854,1054.000,-11.179082109291585
855,1055.000,-7.631309093194204
856,1056.000,-16.285343209056464
857,1057.000,-16.640647226529836
858,1058.000,-11.685681921438572
859,1059.000,-15.249928075822481
860,1060.000,-11.95307947797005
861,1061.000,4.898395077540727
862,1062.000,-7.481058210195442
863,1063.000,-16.18367314844795
864,1064.000,-24.23681155088798
865,1065.000,-16.66609923762894
866,1066.000,-20.584515035261802
867,1067.000,-25.485531776893595
868,1068.000,-8.257109302186109
869,1069.000,-15.75464645739271
870,1070.000,-10.475348095397294
871,1071.000,5.204482924247486
872,1072.000,-11.91792726471499
873,1073.000,-13.033062535288991
874,1074.000,-11.822507767255956
875,1075.000,-15.684164847220018
876,1076.000,-19.20442866864255
877,1077.000,-15.664919131879742
878,1078.000,-7.669061144222951
879,1079.000,-16.26875061993269
880,1080.000,-22.983037480281382
881,1081.000,-22.356861653586748
882,1082.000,-21.151771075252555
883,1083.000,-14.997758687806027
884,1084.000,-12.255190440934939
885,1085.000,-12.328397291526016
886,1086.000,-8.135331203704027
887,1087.000,-16.53955514886684
888,1088.000,-10.335783105726932
889,1089.000,-13.418873060346868
890,1090.000,-11.156076006177273
891,1091.000,-26.45516894409502
892,1092.000,-7.939498882443786
893,1093.000,-24.698895837067084
894,1094.000,-22.194996831350863
895,1095.000,-10.77665389625713
896,1096.000,-17.773623070366057
897,1097.000,-4.841480399911461
898,1098.000,-14.480045938818193
899,1099.000,-21.608842748742518
900,1100.000,-14.513267899108314
901,1101.000,-17.853580467144184
902,1102.000,-6.1267575379245045
903,1103.000,-5.656811204403084
904,1104.000,-10.99116956745479
905,1105.000,-17.842039735912294
906,1106.000,-14.881145826602506
907,1107.000,-9.070134964386625
908,1108.000,-20.142687282197357
909,1109.000,-20.074323921075347
910,1110.000,-10.169091030210438
911,1111.000,-10.805374766975774
912,1112.000,-16.566798296968273
913,1113.000,-16.730217794045984
914,1114.000,-26.765226440366177
915,1115.000,-7.885775426422015
916,1116.000,-15.604104951081808
917,1117.000,-23.374749221626644
918,1118.000,-21.465795453788132
919,1119.000,-19.943877871786526
920,1120.000,-4.233368708367379
921,1121.000,-10.16316120484339
922,1122.000,-22.164249611126706
923,1123.000,-2.8318911857716103
924,1124.000,-5.73233719600853
925,1125.000,-19.892053917786143
926,1126.000,-29.246302635805705
927,1127.000,-7.238325643560984
928,1128.000,-16.318274243376436
929,1129.000,-13.176312746442136
930,1130.000,-15.122284472855426
931,1131.000,-3.9820267516572585
932,1132.000,-2.171642920869772
933,1133.000,-5.62586632753505
934,1134.000,-10.753215327751377
935,1135.000,-7.548718286713665
936,1136.000,-4.553117578750516
937,1137.000,-16.756677587359718
938,1138.000,1.2819452947501304
939,1139.000,-6.766171334376168
940,1140.000,-1.71299488597856
941,1141.000,-0.5935197806204542
942,1142.000,6.243933551774489
943,1143.000,9.917676671883783
944,1144.000,20.058664130948273
945,1145.000,8.751858470733623
946,1146.000,10.507150223493454
947,1147.000,23.093103911931166
948,1148.000,26.37400004916094
949,1149.000,45.58135213867149
950,1150.000,48.22938867428729
951,1151.000,69.25944814012996
952,1152.000,91.70195901058082
953,1153.000,109.93376575024422
954,1154.000,119.08238481390822
955,1155.000,131.85421664650676
956,1156.000,125.95795268308211
957,1157.000,94.42151934874619
958,1158.000,89.39154405864474
959,1159.000,71.13944721791654
960,1160.000,53.3240882216578
961,1161.000,39.121019454882116
962,1162.000,33.6190392924841
963,1163.000,28.245061099203213
964,1164.000,21.880306229580356
965,1165.000,24.09699002792513
966,1166.000,18.63449682827627
967,1167.000,6.813756954363043
968,1168.000,4.228440719567516
969,1169.000,12.976333426887322
970,1170.000,3.4566533688966956
971,1171.000,9.024602827710396
972,1172.000,11.95558607494354
973,1173.000,17.13424537167566
974,1174.000,16.84875996841015
975,1175.000,26.386612105038694
976,1176.000,20.433987010804685
977,1177.000,34.623004904259915
978,1178.000,36.51771099323241
979,1179.000,54.32716747478571
980,1180.000,69.44154153517957
981,1181.000,79.74384434983654
982,1182.000,83.38414708329879
983,1183.000,110.02574888919389
984,1184.000,100.55270791019666
985,1185.000,84.88341727798706
986,1186.000,62.556919113219465
987,1187.000,48.58602352547791
988,1188.000,39.85108961324204
989,1189.000,26.604301463848515
990,1190.000,25.197579153451215
991,1191.000,12.563425746985558
992,1192.000,1.9619532981305383
993,1193.000,6.632524849270112
994,1194.000,-3.95537356854652
995,1195.000,-1.383142935639853
996,1196.000,-15.611970243739052
997,1197.000,-8.560156496019772
998,1198.000,-4.553656707143318
999,1199.000,-13.017833903294104
1000,1200.000,-10.311542122215087
1001,1201.000,-7.499780413249255
1002,1202.000,-11.406105837375662
1003,1203.000,-1.7693644672481241
1004,1204.000,-14.629924387232222
1005,1205.000,-14.67529669344367
1006,1206.000,-15.027133493785186
1007,1207.000,-26.338528907988803
1008,1208.000,-24.05409106764705
1009,1209.000,-11.991190116256575
1010,1210.000,-17.469951209253168
1011,1211.000,-7.439329514049859
1012,1212.000,-16.494750210075836
1013,1213.000,-17.279136488813947
1014,1214.000,-10.300454553838108
1015,1215.000,-15.011293620852712
1016,1216.000,-7.229467917728471
1017,1217.000,-23.36369368454234
1018,1218.000,-14.538268173613005
1019,1219.000,-13.244752649542079
1020,1220.000,-14.119801389249687
1021,1221.000,-10.666905682011702
1022,1222.000,-11.512641829500808
1023,1223.000,-17.570456145821254
1024,1224.000,-21.2286249575493
1025,1225.000,-12.083144603769597
1026,1226.000,-17.73835843611164
1027,1227.000,-12.350147818791356
1028,1228.000,-10.047542128647137
1029,1229.000,-17.005129755176995
1030,1230.000,-23.669303100578873
1031,1231.000,-19.841390579784274
1032,1232.000,-13.63391562050083
1033,1233.000,-19.831006663249354
1034,1234.000,-11.38186116139741
1035,1235.000,-18.244369581203046
1036,1236.000,-17.726200401849837
1037,1237.000,-22.31468311548474
1038,1238.000,-19.19842922725752
1039,1239.000,-12.085276255356348
1040,1240.000,-20.758975731046576
1041,1241.000,-20.762664198711263
1042,1242.000,-23.49695121588502
1043,1243.000,-14.200247353295026
1044,1244.000,-28.070613194896623
1045,1245.000,-22.924223337913872
1046,1246.000,-13.602112392875142
1047,1247.000,-10.583467983650735
1048,1248.000,-20.50434874749476
1049,1249.000,-13.4405293350776
1050,1250.000,-31.1711774105288
1051,1251.000,-14.773981651470649
1052,1252.000,-17.60800274905887
1053,1253.000,-26.741121408020945
1054,1254.000,-30.11873934669211
1055,1255.000,-22.511173297053347
1056,1256.000,-17.96011000477074
1057,1257.000,-17.339974229233576
1058,1258.000,-18.91873474359045
1059,1259.000,-14.989184334788206
1060,1260.000,-15.442114803609911
1061,1261.000,-27.97542896471282
1062,1262.000,-22.005084646666546
1063,1263.000,-22.80502069198951
1064,1264.000,-13.6067839571906
1065,1265.000,-22.747677312800306
1066,1266.000,-13.786104643416365
1067,1267.000,-19.2930808477372
1068,1268.000,-5.7944858385992575
1069,1269.000,-20.185202543018477
1070,1270.000,-19.884437902225955
1071,1271.000,-20.603557871704197
1072,1272.000,-19.072829421230608
1073,1273.000,-5.406866534907294
1074,1274.000,-23.02154321120679
1075,1275.000,-25.25283646300636
1076,1276.000,-21.232390317623867
1077,1277.000,-16.039291816861123
1078,1278.000,-26.020740017036587
1079,1279.000,-15.340531989026204
1080,1280.000,-15.557935818301758
1081,1281.000,-21.152236604964855
1082,1282.000,-21.697212463790038
1083,1283.000,-24.933539524259686
1084,1284.000,-21.87247593060215
1085,1285.000,-25.04385184183093
1086,1286.000,-12.810940431780182
1087,1287.000,-10.52831588914546
1088,1288.000,-22.008123417521347
1089,1289.000,-20.569841235435888
1090,1290.000,-31.73241957639243
1091,1291.000,-23.534627688906312
1092,1292.000,-18.348447836543528
1093,1293.000,-18.76231629795643
1094,1294.000,-19.67759436692245
1095,1295.000,-15.36189035238408
1096,1296.000,-19.900182578484646
1097,1297.000,-22.786987384606846
1098,1298.000,-10.875207125412544
1099,1299.000,-31.98574417087434
1100,1300.000,-27.439985906323045
1101,1301.000,-24.94732473247791
1102,1302.000,-24.913762065487617
1103,1303.000,-25.202162336967376
1104,1304.000,-21.929790994038967
1105,1305.000,-24.87205049936574
1106,1306.000,-20.961690331192585
1107,1307.000,-17.10398298338123
1108,1308.000,-20.488448965451653
1109,1309.000,-19.877286802619665
1110,1310.000,-26.289082035829324
1111,1311.000,-27.499427221799124
1112,1312.000,-22.462190933054217
1113,1313.000,-15.18310275796648
1114,1314.000,-18.48323230079177
1115,1315.000,-14.238604181707387
1116,1316.000,-14.807360036851605
1117,1317.000,-14.037199518359557
1118,1318.000,-25.581507294403764
1119,1319.000,-13.357767049230688
1120,1320.000,-16.235550483195084
1121,1321.000,-8.366601312805642
1122,1322.000,-17.24604527075735
1123,1323.000,-18.82115410596839
1124,1324.000,-21.53970658362323
1125,1325.000,-19.78295448520703
1126,1326.000,-30.631481608543254
1127,1327.000,-22.25714576783389
1128,1328.000,-20.991965793694362
1129,1329.000,-14.855412533194794
1130,1330.000,-24.676359849896016
1131,1331.000,-19.968897623887187
1132,1332.000,-9.863427751824702
1133,1333.000,-23.909999146968858
1134,1334.000,-15.723128739223966
1135,1335.000,-23.926848475175575
1136,1336.000,-21.337025318124688
1137,1337.000,-17.989034248131247
1138,1338.000,-15.468118262049984
1139,1339.000,-23.657934373565922
1140,1340.000,-26.803124613236832
1141,1341.000,-11.670049028525682
1142,1342.000,-19.587343683844438
1143,1343.000,-15.965154660587586
1144,1344.000,-15.246035057170957
1145,1345.000,-16.161769989072127
1146,1346.000,-22.21400258886456
1147,1347.000,-21.45723400625957
1148,1348.000,-29.87860340814086
1149,1349.000,-19.553016978602727
1150,1350.000,-23.39935591899166
1151,1351.000,-20.730796447938474
1152,1352.000,-9.4755038014016
1153,1353.000,-16.47950023270323
1154,1354.000,-20.232281012563817
1155,1355.000,-28.603774429145915
1156,1356.000,-16.186291788088056
1157,1357.000,-11.459911412542851
1158,1358.000,-25.350895643217882
1159,1359.000,-17.930851838409808
1160,1360.000,-23.491845374044715
1161,1361.000,-21.299168643716257
1162,1362.000,-22.541774058721103
1163,1363.000,-29.886630048098823
1164,1364.000,-23.35853105867136
1165,1365.000,-29.8826195550771
1166,1366.000,-12.071337019811153
1167,1367.000,-14.07552595326274
1168,1368.000,-19.94512187375358
1169,1369.000,-18.519964317577205
1170,1370.000,-19.79171583903144
1171,1371.000,-18.920139010462663
1172,1372.000,-18.89637242230151
1173,1373.000,-21.42543768309929
1174,1374.000,-20.95127541956799
1175,1375.000,-27.85668127661461
1176,1376.000,-25.784201917386326
1177,1377.000,-23.3988500232997
1178,1378.000,-18.544321294084966
1179,1379.000,-21.907712447821496
1180,1380.000,-8.414436220974721
1181,1381.000,-20.71153136843691
1182,1382.000,-21.632581663563997
1183,1383.000,-16.911122898210124
1184,1384.000,-13.321492882770599
1185,1385.000,-8.395006446217849
1186,1386.000,-13.492938436137365
1187,1387.000,-22.61756471877061
1188,1388.000,-20.06422417904696
1189,1389.000,-12.782018720624365
1190,1390.000,-17.354502265929796
1191,1391.000,-14.060684756191904
1192,1392.000,-19.100171151483437
1193,1393.000,-9.125711430758201
1194,1394.000,-9.913091591885632
1195,1395.000,-11.677784651695447
1196,1396.000,-17.241430646006165
1197,1397.000,-27.49293862967238
1198,1398.000,-25.800658676618013
1199,1399.000,-15.798751879874317
1200,1400.000,-13.707985351618618
1201,1401.000,-34.476103223211794
1202,1402.000,-19.970715645235487
1203,1403.000,-10.228596787533888
1204,1404.000,-11.17511883924476
1205,1405.000,-19.47381500884535
1206,1406.000,-12.579338524182958
1207,1407.000,-15.885780632517935
1208,1408.000,-17.073689600560556
1209,1409.000,-8.931671714506365
1210,1410.000,-8.505825280076806
1211,1411.000,-17.933408622557636
1212,1412.000,-20.038754086832796
1213,1413.000,-21.77756203742797
1214,1414.000,-22.02861485854396
1215,1415.000,-5.416675954096945
1216,1416.000,-1.7497117477555548
1217,1417.000,-10.966134682979146
1218,1418.000,-5.454828223055074
1219,1419.000,-15.000527851138031
1220,1420.000,-10.704570070286309
1221,1421.000,-4.170588403501824
1222,1422.000,-6.857377393764409
1223,1423.000,-7.995008604073519
1224,1424.000,-16.512992617485907
1225,1425.000,-14.153627037148908
1226,1426.000,-6.812248486344515
1227,1427.000,-6.224468608523921
1228,1428.000,-1.840718067346188
1229,1429.000,-3.368791546716693
1230,1430.000,1.0987922491776771
1231,1431.000,5.009079595826734
1232,1432.000,10.271935748360647
1233,1433.000,10.624765941513715
1234,1434.000,10.469737389581724
1235,1435.000,16.036110286391704
1236,1436.000,27.593976805256716
1237,1437.000,26.522372098939513
1238,1438.000,28.4493372996194
1239,1439.000,35.73338851884773
1240,1440.000,52.17283484751465
1241,1441.000,64.30759735580773
1242,1442.000,80.60104309317671
1243,1443.000,86.0927080882966
1244,1444.000,112.74823134902408
1245,1445.000,121.4242688623658
1246,1446.000,142.15609259443795
1247,1447.000,160.1040404904279
1248,1448.000,183.92580347455532
1249,1449.000,199.12615345003815
1250,1450.000,197.24526729904937
1251,1451.000,190.10743388268543
1252,1452.000,171.90840804092113
1253,1453.000,164.36811759257762
1254,1454.000,141.62016233528152
1255,1455.000,122.41393504542702
1256,1456.000,101.1836524781404
1257,1457.000,83.05267536723795
1258,1458.000,71.15657342519148
1259,1459.000,63.89017834309038
1260,1460.000,56.37134079060161
1261,1461.000,41.84918941593196
1262,1462.000,36.30840584579232
1263,1463.000,26.9274196853562
1264,1464.000,21.95486551822728
1265,1465.000,10.105766906396639
1266,1466.000,19.265469390205
1267,1467.000,14.187621488309787
1268,1468.000,16.24899369763739
1269,1469.000,1.6282204933579578
1270,1470.000,3.699598328837965
1271,1471.000,-4.39407336439649
1272,1472.000,0.6485018233090614
1273,1473.000,-3.006314720309547
1274,1474.000,0.28252337053140764
1275,1475.000,-5.717563560370763
1276,1476.000,-2.213713191254101
1277,1477.000,-9.78779722241552
1278,1478.000,-4.349118376260776
1279,1479.000,-10.359758397335327
1280,1480.000,-11.857393052363932
1281,1481.000,-9.451637130293875
1282,1482.000,-8.409078442321743
1283,1483.000,-19.284759821943453
1284,1484.000,-20.389291124983174
1285,1485.000,-10.917113229635333
1286,1486.000,-12.750376036502075
1287,1487.000,-24.611548468633373
1288,1488.000,-23.0339374715561
1289,1489.000,-17.906594013328004
1290,1490.000,-11.867150084556215
1291,1491.000,-12.80117769845151
1292,1492.000,-8.371086890858578
1293,1493.000,-7.634832720290888
1294,1494.000,-0.8724692679797954
1295,1495.000,-23.212030637900398
1296,1496.000,-15.230131956815967
1297,1497.000,-8.959138374315216
1298,1498.000,-22.592775062848432
1299,1499.000,-23.616747217765806
1300,1500.000,-14.389153057359863
1301,1501.000,-9.27003082289275
1302,1502.000,-8.447953778649662
1303,1503.000,-26.16472521196033
1304,1504.000,-22.965379433247108
1305,1505.000,-16.52653177606453
1306,1506.000,-19.10258759712565
1307,1507.000,-14.196735276354048
1308,1508.000,-15.336867216912196
1309,1509.000,-5.898521845241476
1310,1510.000,-16.54416261110532
1311,1511.000,-15.136354987617324
1312,1512.000,-15.770462471287374
1313,1513.000,-9.78196258205935
1314,1514.000,-22.692556863340087
1315,1515.000,-13.969323882051867
1316,1516.000,-20.701152228655246
1317,1517.000,-24.440083517197763
1318,1518.000,-9.289297385348391
1319,1519.000,-13.063900494432119
1320,1520.000,-7.944208529473826
1321,1521.000,-14.551455199232805
1322,1522.000,-12.20038223623942
1323,1523.000,-15.135696396838284
1324,1524.000,-12.544139461218947
1325,1525.000,-18.196464233459892
1326,1526.000,-5.751309541562932
1327,1527.000,-20.805389237494637
1328,1528.000,-5.5660921972187225
1329,1529.000,-16.601552320739074
1330,1530.000,-10.259026532136886
1331,1531.000,-14.421679779605029
1332,1532.000,-12.499246035491296
1333,1533.000,-6.27687929632998
1334,1534.000,-14.007959582887452
1335,1535.000,-20.219841940192737
1336,1536.000,-13.141959437580681
1337,1537.000,-10.581126168726087
1338,1538.000,-28.581624251686435
1339,1539.000,-8.303576828932137
1340,1540.000,-7.429580067394227
1341,1541.000,-23.98684315849414
1342,1542.000,-14.295872318185047
1343,1543.000,-8.331851786989773
1344,1544.000,-19.688913830039155
1345,1545.000,-15.091439737106839
1346,1546.000,-14.32096682265319
1347,1547.000,-8.72458442585662
1348,1548.000,-5.125041910655227
1349,1549.000,-11.482028665785947
1350,1550.000,-10.531440104815829
1351,1551.000,-5.023738666190411
1352,1552.000,-6.819267813261149
1353,1553.000,-10.151364034331209
1354,1554.000,-1.1281248426887487
1355,1555.000,-16.692860776647194
1356,1556.000,-6.814038399580113
1357,1557.000,-9.47029229996474
1358,1558.000,-9.171557091414343
1359,1559.000,-4.163933412718507
1360,1560.000,-4.134576927881199
1361,1561.000,11.210503673839412
1362,1562.000,1.7250426779010013
1363,1563.000,1.3613403444276173
1364,1564.000,10.566149908179568
1365,1565.000,8.56479957851434
1366,1566.000,-6.415456460652649
1367,1567.000,7.604330949113773
1368,1568.000,13.955069940731164
1369,1569.000,9.12954262156336
1370,1570.000,18.15391707337926
1371,1571.000,18.12917535231736
1372,1572.000,28.364064488845543
1373,1573.000,23.005816487726634
1374,1574.000,29.076863327976298
1375,1575.000,47.22925696283028
1376,1576.000,64.16142931970035
1377,1577.000,86.16361030014127
1378,1578.000,95.87463377980907
1379,1579.000,116.36289860842817
1380,1580.000,152.8160576097482
1381,1581.000,174.68672458150718
1382,1582.000,207.0716932953992
1383,1583.000,206.00197849702613
1384,1584.000,190.2293939058702
1385,1585.000,180.61359721524946
1386,1586.000,158.44093909228195
1387,1587.000,135.57004517784708
1388,1588.000,123.02403908655037
1389,1589.000,112.42265640668029
1390,1590.000,108.8594637001761
1391,1591.000,106.35237850258522
1392,1592.000,116.11876032302962
1393,1593.000,125.70196364416392
1394,1594.000,140.21606792213993
1395,1595.000,164.18106558656655
1396,1596.000,186.0115870404768
1397,1597.000,235.06705366028132
1398,1598.000,304.79934079573945
1399,1599.000,395.6420497699162
1400,1600.000,482.23198987914475
1401,1601.000,573.8644493929903
1402,1602.000,612.754326554209
1403,1603.000,585.661891578716
1404,1604.000,487.4399916555401
1405,1605.000,383.24960494679044
1406,1606.000,305.8688255876168
1407,1607.000,232.2997986861751
1408,1608.000,177.84258932358284
1409,1609.000,147.77578255388812
1410,1610.000,106.81194140402613
1411,1611.000,91.38047987378718
1412,1612.000,73.6974329357713
1413,1613.000,65.2244795353572
1414,1614.000,42.39924959066002
1415,1615.000,32.918881992496836
1416,1616.000,31.264317604343887
1417,1617.000,26.12927826230407
1418,1618.000,23.14945877506534
1419,1619.000,16.570853923862842
1420,1620.000,17.877190462445014
1421,1621.000,16.426246117029223
1422,1622.000,11.070128586271267
1423,1623.000,1.226510541219568
1424,1624.000,12.396866625284929
1425,1625.000,-5.31241854580594
1426,1626.000,1.0619986159622385
1427,1627.000,6.23563267084478
1428,1628.000,-3.9349908486935874
1429,1629.000,6.352638561979802
1430,1630.000,9.08996637963105
1431,1631.000,6.21354705311569
1432,1632.000,-1.3573109966519041
1433,1633.000,1.1899846232563505
1434,1634.000,-8.34888472224975
1435,1635.000,-3.488836696318913
1436,1636.000,-3.688449990196659
1437,1637.000,-6.3281143232632076
1438,1638.000,-6.403221443071061
1439,1639.000,-8.963655125383411
1440,1640.000,-19.78938317420989
1441,1641.000,-6.052460421848082
1442,1642.000,-6.879517728919382
1443,1643.000,3.196670015594691
1444,1644.000,-5.0563921056907475
1445,1645.000,-9.136689038594568
1446,1646.000,-4.5520287574138365
1447,1647.000,-6.255544264957734
1448,1648.000,-10.25819159258981
1449,1649.000,-12.604045800258973
1450,1650.000,-19.249359976544156
1451,1651.000,-9.909726238691746
1452,1652.000,-1.0826567326450913
1453,1653.000,-22.035376633095893
1454,1654.000,-16.69145714350975
1455,1655.000,-6.616694496173523
1456,1656.000,-10.072802952224038
1457,1657.000,-8.80801380169487
1458,1658.000,-22.49319236355086
1459,1659.000,-14.989235985722871
1460,1660.000,-8.522925045149577
1461,1661.000,-8.08498094781612
1462,1662.000,-9.893830128786476
1463,1663.000,-16.976017052248835
1464,1664.000,-8.530915211547835
1465,1665.000,-18.9267091292254
1466,1666.000,-17.446117357056437
1467,1667.000,-18.81995747608721
1468,1668.000,-3.2853320966792126
1469,1669.000,-14.381241858535077
1470,1670.000,-11.608762430749266
1471,1671.000,-25.091782511836072
1472,1672.000,-5.426530829773128
1473,1673.000,-9.21119814203962
1474,1674.000,-21.879399235648634
1475,1675.000,-21.59427692719055
1476,1676.000,-2.0791630628721123
1477,1677.000,-17.642634518546174
1478,1678.000,-0.9874971997610373
1479,1679.000,-14.793054041784444
1480,1680.000,-26.832310009659068
1481,1681.000,-5.346730098221769
1482,1682.000,-8.957278332156648
1483,1683.000,-7.870609766023335
1484,1684.000,-14.976624484299691
1485,1685.000,-13.196872601419955
1486,1686.000,-6.171978261807908
1487,1687.000,-16.801012639920145
1488,1688.000,-23.631218940281087
1489,1689.000,-6.400904397523618
1490,1690.000,-15.522119276422245
1491,1691.000,-4.15340187193533
1492,1692.000,-14.645469509241593
1493,1693.000,-14.285722543779002
1494,1694.000,-13.206175361279975
1495,1695.000,-25.77431337781104
1496,1696.000,-4.590381039812428
1497,1697.000,-15.366360824134745
1498,1698.000,-12.734745238071582
1499,1699.000,-2.7530298194101306
1500,1700.000,-10.794509136453598
1501,1701.000,-6.080271788072196
1502,1702.000,-9.392703403735823
1503,1703.000,-6.732413643545897
1504,1704.000,-9.656493198287535
1505,1705.000,-4.354212789453868
1506,1706.000,-12.48766216929016
1507,1707.000,-8.418770120831596
1508,1708.000,-15.380604457941672
1509,1709.000,-3.9772710253455443
1510,1710.000,-24.120708698676708
1511,1711.000,-9.873613384502733
1512,1712.000,-8.773936020377505
1513,1713.000,-8.83765657486606
1514,1714.000,-10.880514047590168
1515,1715.000,-2.7546434692646926
1516,1716.000,1.9490320982647518
1517,1717.000,-14.251864438014081
1518,1718.000,-22.075360202321917
1519,1719.000,-17.09666435012241
1520,1720.000,-15.39407306816247
1521,1721.000,-11.282020574509943
1522,1722.000,-10.744317118588697
1523,1723.000,-3.8902649812205254
1524,1724.000,-12.862925474658823
1525,1725.000,-10.46842994263261
1526,1726.000,-9.530914760377755
1527,1727.000,-15.40038233467908
1528,1728.000,-11.98043910390561
1529,1729.000,6.515446461945885
1530,1730.000,-10.512132138775996
1531,1731.000,-15.674052439430397
1532,1732.000,-22.903712005105945
1533,1733.000,-3.5577744326742504
1534,1734.000,-11.655885350811786
1535,1735.000,-13.466027420054843
1536,1736.000,5.064927667177699
1537,1737.000,-0.9489258134619831
1538,1738.000,-19.748673618289786
1539,1739.000,-11.502981535618801
1540,1740.000,-3.3688553858085015
1541,1741.000,-4.284429021291771
1542,1742.000,-15.90829832662439
1543,1743.000,1.4904207814893198
1544,1744.000,1.996558354148192
1545,1745.000,-15.69071858977668
1546,1746.000,-19.57165806368471
1547,1747.000,-17.259079113278176
1548,1748.000,-4.855250816608532
1549,1749.000,-2.321554284105332
1550,1750.000,-7.624632658619703
1551,1751.000,-12.241137115460788
1552,1752.000,-9.164221862436307
1553,1753.000,-5.159514139880002
1554,1754.000,-15.76060022070601
1555,1755.000,-18.5988244104351
1556,1756.000,-8.86454504723406
1557,1757.000,-0.8838505019562035
1558,1758.000,-7.077287178178949
1559,1759.000,-6.992974512241972
1560,1760.000,-12.138457973280538
1561,1761.000,-2.506576063273542
1562,1762.000,-18.20613731706794
1563,1763.000,-8.287209302429346
1564,1764.000,-11.39212762006946
1565,1765.000,-8.69156790369584
1566,1766.000,-13.263873820035542
1567,1767.000,-3.146035068885567
1568,1768.000,-8.039993383142019
1569,1769.000,-11.09026752884688
1570,1770.000,-4.391361305213877
1571,1771.000,-7.694185544678248
1572,1772.000,-10.43563711293018
1573,1773.000,-10.79438190894598
1574,1774.000,-2.5180318650413938
1575,1775.000,-12.75712994689161
1576,1776.000,-8.38957715358606
1577,1777.000,-8.600189517650733
1578,1778.000,-5.042106105097901
1579,1779.000,-8.015493015460606
1580,1780.000,6.153080618173362
1581,1781.000,-17.19799937088169
1582,1782.000,-3.0954591829449782
1583,1783.000,-6.776704052005243
1584,1784.000,0.13967875423395526
1585,1785.000,-16.190464065670085
1586,1786.000,0.9249621530445893
1587,1787.000,-14.602289958675783
1588,1788.000,-2.0930128037475697
1589,1789.000,-3.100214818991617
1590,1790.000,-5.914184475158208
1591,1791.000,-10.452317276978874
1592,1792.000,-10.85828976319408
1593,1793.000,-5.302727506598558
1594,1794.000,-10.326534114071592
1595,1795.000,-17.454716226623987
1596,1796.000,-16.523990519428253
1597,1797.000,-0.8065277018608867
1598,1798.000,-0.5867195175369488
1599,1799.000,-2.356491744352752
1600,1800.000,-5.08440119451916
1601,1801.000,-3.009558714601553
1602,1802.000,-2.243540185559141
1603,1803.000,-3.62629252277884
1604,1804.000,-9.810024676116655
1605,1805.000,-9.381305629935468
1606,1806.000,-11.817347403142094
1607,1807.000,-3.9208830492223115
1608,1808.000,-10.702932656288112
1609,1809.000,-5.633401347100971
1610,1810.000,3.2857657208746787
1611,1811.000,-6.786167644552734
1612,1812.000,1.3747923296459703
1613,1813.000,4.978525381698773
1614,1814.000,-15.248638785020148
1615,1815.000,-12.8315605020166
1616,1816.000,-1.3103211357263262
1617,1817.000,-8.327517087538354
1618,1818.000,-0.7877907938475346
1619,1819.000,0.3219982739187799
1620,1820.000,-6.928241390744915
1621,1821.000,1.1891576705475018
1622,1822.000,6.769456881025462
1623,1823.000,2.1197956287355737
1624,1824.000,-8.790030733507592
1625,1825.000,-4.337632888152257
1626,1826.000,-6.609171552945099
1627,1827.000,6.094674519019009
1628,1828.000,-4.3970004607238025
1629,1829.000,-7.304083316062133
1630,1830.000,-2.807882906331997
1631,1831.000,0.07234287363121439
1632,1832.000,-5.193207906528869
1633,1833.000,-2.2258292127464756
1634,1834.000,-2.7863900465542883
1635,1835.000,1.7147695548685533
1636,1836.000,3.1990785186610537
1637,1837.000,-0.924036263758353
1638,1838.000,-5.298352936726587
1639,1839.000,0.013238319623042116
1640,1840.000,-7.700519710677099
1641,1841.000,4.168655720534844
1642,1842.000,-0.11267867449123514
1643,1843.000,-0.6655202194458525
1644,1844.000,-16.607542274013895
1645,1845.000,12.22351676610515
1646,1846.000,6.8092324691428985
1647,1847.000,5.776713367241655
1648,1848.000,-1.0084780436041
1649,1849.000,2.3352366964345492
1650,1850.000,15.522549010966259
1651,1851.000,-5.638656712641932
1652,1852.000,3.0149578766774994
1653,1853.000,2.226850093674102
1654,1854.000,-0.45865878327003884
1655,1855.000,0.8923854878253223
1656,1856.000,-7.030197887502254
1657,1857.000,2.8139862598120544
1658,1858.000,-8.854257937688317
1659,1859.000,10.07749361598485
1660,1860.000,3.956630980235559
1661,1861.000,-5.8777178221698705
1662,1862.000,-13.25669180512864
1663,1863.000,0.00017598075305613747
1664,1864.000,2.485603448130405
1665,1865.000,-6.46196452712843
1666,1866.000,9.640729894028937
1667,1867.000,1.2826475137926536
1668,1868.000,-3.0635559025356542
1669,1869.000,-8.591302626593688
1670,1870.000,-0.8685749669871257
1671,1871.000,-1.275971269333013
1672,1872.000,3.8812430837090233
1673,1873.000,6.333555672387547
1674,1874.000,0.28049703983356267
1675,1875.000,2.918900692015086
1676,1876.000,8.756381097700114
1677,1877.000,3.9707506884244594
1678,1878.000,-1.2326011415584617
1679,1879.000,4.082666964702867
1680,1880.000,-2.710809673204267
1681,1881.000,3.1813872269344756
1682,1882.000,0.8253549098926669
1683,1883.000,-6.020438417007199
1684,1884.000,4.239048416040532
1685,1885.000,1.1682645413166028
1686,1886.000,5.100351053511304
1687,1887.000,-7.208375990292097
1688,1888.000,7.446744429328646
1689,1889.000,7.748374294110818
1690,1890.000,-1.224208451946879
1691,1891.000,0.3307050973967307
1692,1892.000,1.2446688105701469
1693,1893.000,0.8675175181588202
1694,1894.000,6.0401380128703295
1695,1895.000,-3.220288950511076
1696,1896.000,-5.805623655153568
1697,1897.000,-0.3352984222287887
1698,1898.000,12.539029389070265
1699,1899.000,-1.1646936185336472
1700,1900.000,-4.803098880417565
1701,1901.000,-4.29567087010787
1702,1902.000,2.2418989006832817
1703,1903.000,8.322612882020167
1704,1904.000,-3.1275615142897095
1705,1905.000,2.359720085255276
1706,1906.000,2.623620015829829
1707,1907.000,4.160776574223746
1708,1908.000,2.2624680188218917
1709,1909.000,7.7266885695567
1710,1910.000,5.5724144078712925
1711,1911.000,-2.214678323315866
1712,1912.000,16.059568480346115
1713,1913.000,-6.645063115389576
1714,1914.000,-6.3482680834131315
1715,1915.000,7.796748564711606
1716,1916.000,2.727516778699055
1717,1917.000,0.14468246951446417
1718,1918.000,2.8613835093285616
1719,1919.000,5.796626731485958
1720,1920.000,-0.8390260695412053
1721,1921.000,-2.0920981381821093
1722,1922.000,-4.554597757812644
1723,1923.000,-3.4167182507853795
1724,1924.000,-3.031963978477961
1725,1925.000,8.657319658678716
1726,1926.000,3.473312221156675
1727,1927.000,5.076199230298016
1728,1928.000,-1.55243083172968
1729,1929.000,8.130868478030834
1730,1930.000,-7.512459436703466
1731,1931.000,4.7099087884928394
1732,1932.000,6.042489478727248
1733,1933.000,-1.592401080255513
1734,1934.000,-4.266680642108895
1735,1935.000,5.018476000075452
1736,1936.000,-2.3572529862653937
1737,1937.000,-3.4633814732092105
1738,1938.000,1.778803627619709
1739,1939.000,-4.800164634996918
1740,1940.000,1.0967737481030326
1741,1941.000,14.080645746410028
1742,1942.000,-0.6990577102794759
1743,1943.000,7.372737268085075
1744,1944.000,-4.390960468219646
1745,1945.000,2.4297028912653786
1746,1946.000,0.301203117144496
1747,1947.000,0.923499940135116
1748,1948.000,6.465065051018655
1749,1949.000,14.811670100613583
1750,1950.000,1.1508906997307804
1751,1951.000,9.73192941913976
1752,1952.000,4.000033789528516
1753,1953.000,6.309256301464529
1754,1954.000,-0.9302735946423581
1755,1955.000,-2.37095948857268
1756,1956.000,0.6523279896521217
1757,1957.000,-2.7920318302512896
1758,1958.000,1.7717123411177909
1759,1959.000,-4.522394247180728
1760,1960.000,1.8263786135210012
1761,1961.000,2.8387920914769893
1762,1962.000,12.656675314475478
1763,1963.000,12.086315369805106
1764,1964.000,4.784076304222481
1765,1965.000,-1.309404876094277
1766,1966.000,5.3309157944265735
1767,1967.000,6.561328240699595
1768,1968.000,0.46099934695598677
1769,1969.000,-3.4815850433012656
1770,1970.000,-9.16074112732963
1771,1971.000,1.3238948568048272
1772,1972.000,13.057625630206985
1773,1973.000,0.2558108730911499
1774,1974.000,3.7770502247653894
1775,1975.000,3.622669283582127
1776,1976.000,4.303705606901303
1777,1977.000,6.003140711051856
1778,1978.000,-10.704540928698862
1779,1979.000,0.3851351218061154
1780,1980.000,3.5095232555775056
1781,1981.000,0.6715948244554966
1782,1982.000,8.462132139051391
1783,1983.000,-1.1039305312747274
1784,1984.000,6.619241041538999
1785,1985.000,11.6414530442255
1786,1986.000,-0.5130493778578966
1787,1987.000,1.134679879241503
1788,1988.000,-0.8385071219715883
1789,1989.000,5.465843639522518
1790,1990.000,-12.02263785678133
1791,1991.000,-8.015064672939161
1792,1992.000,-1.0512679126188686
1793,1993.000,5.893709278887627
1794,1994.000,4.153630714605924
1795,1995.000,-4.367630834145757
1796,1996.000,10.12690736219929
1797,1997.000,1.096779991418316
1798,1998.000,-3.3869373005322814
1799,1999.000,3.487828090431549
1800,2000.000,8.066867726502323
