pixel_index,raman_shift_cm-1,intensity
0,200.000,1.8623431262354302
1,201.000,-1.4710154998289795
2,202.000,4.7894779325799846
3,203.000,8.610096136628897
4,204.000,12.714716057725752
5,205.000,6.370887872621154
6,206.000,2.2141439885111254
7,207.000,0.6418570421433856
8,208.000,9.666624898923942
9,209.000,14.809524652027562
10,210.000,6.46714962150935
11,211.000,-2.7367256465814194
12,212.000,-1.2506663810846703
13,213.000,13.93765241338815
14,214.000,5.396349955574749
15,215.000,-6.369365313315257
16,216.000,3.3684952695238053
17,217.000,-3.2586474123792755
18,218.000,-0.20220625564354577
19,219.000,0.5010480620946964
20,220.000,-0.9925219186845311
21,221.000,6.468589559750058
22,222.000,2.6334174715182144
23,223.000,-0.6584159937315803
24,224.000,5.204831568318241
25,225.000,7.597532775798868
26,226.000,-7.365806540199344
27,227.000,0.8283896635211363
28,228.000,-3.6367993585856198
29,229.000,1.0901148583437816
30,230.000,-5.723687011264246
31,231.000,2.0231379157361857
32,232.000,1.5602117303685077
33,233.000,-0.14763526930551052
34,234.000,-4.715996579023795
35,235.000,-0.9101314891589141
36,236.000,-5.183264085551912
37,237.000,-6.866621250343087
38,238.000,2.5154623371983575
39,239.000,-5.58506480015285
40,240.000,7.999239061597564
41,241.000,5.18553184683924
42,242.000,-11.190261320462696
43,243.000,2.342107882412563
44,244.000,-5.986233023874377
45,245.000,0.7391536784610366
46,246.000,0.7213309035154793
47,247.000,-11.550351239113525
48,248.000,-1.0976834451358854
49,249.000,-1.3073552163760382
50,250.000,5.9258051384230725
51,251.000,-7.0066004972028395
52,252.000,4.440444951760071
53,253.000,-6.649718248994532
54,254.000,-2.109914643889738
55,255.000,-5.229533588259471
56,256.000,8.442906750858697
57,257.000,3.098727393933359
58,258.000,14.220466548151364
59,259.000,3.4238606066309103
60,260.000,4.5862561476375845
61,261.000,4.505957933801881
62,262.000,-4.230648088660473
63,263.000,-1.0624117907277082
64,264.000,7.410386138652541
65,265.000,-3.1194238082114225
66,266.000,0.3460160414727511
67,267.000,-0.959294459789362
68,268.000,2.7796407194534254
69,269.000,-3.107369211168475
70,270.000,-1.8729208646102506
71,271.000,0.4561083228260827
72,272.000,-0.41808790926978645
73,273.000,-6.26274864617352
74,274.000,4.2664412012164235
75,275.000,-8.933167104374832
76,276.000,-8.38169712735106
77,277.000,-8.901397259995576
78,278.000,4.565204276780776
79,279.000,-3.429222567307079
80,280.000,-7.119512672663234
81,281.000,-8.135943750552485
82,282.000,1.181631656158629
83,283.000,-7.698375827737038
84,284.000,-9.02483541052328
85,285.000,2.269683865704451
86,286.000,-8.615323875693377
87,287.000,-3.3894233466319292
88,288.000,-1.514010095029505
89,289.000,-4.163050505535807
90,290.000,-1.8321658002556092
91,291.000,6.509488960527165
92,292.000,-4.639070122370981
93,293.000,-9.107121787752192
94,294.000,-12.584366614754856
95,295.000,-2.804157023568507
96,296.000,-3.6998442761474166
97,297.000,-0.005588476921673191
98,298.000,-4.390540573506826
99,299.000,-4.484966357411679
100,300.000,-5.948232464743626
101,301.000,-4.7452563769121525
102,302.000,-0.6708714213312987
103,303.000,-3.9190697721189167
104,304.000,-1.0382304507953108
105,305.000,9.763092673021447
106,306.000,1.2282918809207786
107,307.000,-11.104594394992716
108,308.000,8.752215427211013
109,309.000,0.43770907859789077
110,310.000,-7.297121561315521
111,311.000,3.794849534752018
112,312.000,-1.5396414588357175
113,313.000,-5.334361221313316
114,314.000,-5.440936286193164
115,315.000,-7.596678041942141
116,316.000,-1.342965732657376
117,317.000,4.786228541260698
118,318.000,-3.5713921775632116
119,319.000,0.9100272958507389
120,320.000,9.645679288170243
121,321.000,-8.888476732915422
122,322.000,-0.048006159359488265
123,323.000,-3.42345224341949
124,324.000,-7.931554098318429
125,325.000,-7.721797698902037
126,326.000,-1.6486458822967052
127,327.000,1.0564886514366094
128,328.000,-4.725535661350875
129,329.000,-1.1985202485466289
130,330.000,2.8199475970736216
131,331.000,0.2780367171986313
132,332.000,3.72306408733607
133,333.000,1.2921798161689821
134,334.000,1.464981144913736
135,335.000,9.5102574466801
136,336.000,2.30334322583235
137,337.000,-0.6446598826457262
138,338.000,2.8527068862130704
139,339.000,-6.906847573272728
140,340.000,-3.4031772380636767
141,341.000,3.3978310429705516
142,342.000,2.4389645484243374
143,343.000,7.960427683730529
144,344.000,-1.250627019463309
145,345.000,-10.070902903916476
146,346.000,10.403316812584762
147,347.000,5.294195036607903
148,348.000,-7.59836220154051
149,349.000,7.0264402515693405
150,350.000,-1.016448328122749
151,351.000,-12.076610542776677
152,352.000,-3.697153873262721
153,353.000,-4.210274679767906
154,354.000,8.406577797597208
155,355.000,-5.87243056180472
156,356.000,-2.6230877597400877
157,357.000,-2.743180679704608
158,358.000,-3.3375610875223742
159,359.000,-6.529162631942313
160,360.000,0.28891515476681207
161,361.000,5.454428856222819
162,362.000,2.7567631713386618
163,363.000,-6.532722086266915
164,364.000,-7.84717698885828
165,365.000,-0.21493349516811122
166,366.000,-5.148694450982703
167,367.000,-4.670601589724299
168,368.000,-10.948131533032381
169,369.000,10.852657208657945
170,370.000,4.669115235536822
171,371.000,-6.654337742154212
172,372.000,4.658079095302185
173,373.000,7.283449676528164
174,374.000,-15.089094961521312
175,375.000,-4.02576167412559
176,376.000,-3.0402762093665956
177,377.000,3.1967137913063084
178,378.000,-1.4020212074876781
179,379.000,-2.036278635622182
180,380.000,-0.9844348180241127
181,381.000,10.50517202476766
182,382.000,12.364456776046495
183,383.000,-3.7251015776186023
184,384.000,-6.114404946934826
185,385.000,15.617491859562222
186,386.000,-6.397272865041657
187,387.000,-3.9402967265870075
188,388.000,-0.2615802303871533
189,389.000,2.437111218226505
190,390.000,5.730430313361865
191,391.000,1.9205398480246458
192,392.000,-5.641292286421844
193,393.000,2.6494938992061634
194,394.000,1.1287564913756114
195,395.000,10.908668673303055
196,396.000,-0.4250932755796839
197,397.000,-8.339338980155787
198,398.000,-6.570192970152846
199,399.000,8.418104319327881
200,400.000,-3.506515452713643
201,401.000,-12.875618533700674
202,402.000,-3.7162990780042264
203,403.000,-0.21547814746224958
204,404.000,6.933753288098956
205,405.000,-6.269899649651279
206,406.000,3.8329442519330996
207,407.000,4.620366295962981
208,408.000,-4.332243124501019
209,409.000,-1.24615352695821
210,410.000,10.511162660020204
211,411.000,10.232220096286483
212,412.000,5.05706452960635
213,413.000,1.9299977951566234
214,414.000,6.782326815021065
215,415.000,-0.8776874023106984
216,416.000,-0.5905207624434752
217,417.000,-5.1687120855739295
218,418.000,0.03998789301181205
219,419.000,-0.4725904775565368
220,420.000,16.67394123577435
221,421.000,-1.1125304505126223
222,422.000,7.681547063007542
223,423.000,7.991462458211345
224,424.000,-1.0388265010593614
225,425.000,7.1077180305181855
226,426.000,-12.958538020737365
227,427.000,0.6826333520065191
228,428.000,5.267080235617868
229,429.000,-14.253528203482347
230,430.000,-6.811502719793452
231,431.000,6.48953301078609
232,432.000,-1.37970360951374
233,433.000,-6.417861100807158
234,434.000,-2.0615739060242504
235,435.000,-3.0671643913797197
236,436.000,4.543108153159551
237,437.000,2.927489513408318
238,438.000,-1.4697574495029357
239,439.000,-3.773316799588315
240,440.000,-0.09770352647069558
241,441.000,8.182981454160085
242,442.000,2.332378300088294
243,443.000,4.077751242115596
244,444.000,-0.6544784163928625
245,445.000,-7.496077299965236
246,446.000,-4.005355961471082
247,447.000,4.171682117425348
248,448.000,0.8877885258177685
249,449.000,-5.150647076890891
250,450.000,-9.431260961433281
251,451.000,0.94328967087813
252,452.000,-1.7550833122926406
253,453.000,-1.8185079747455575
254,454.000,-1.689792312184295
255,455.000,1.9922377473461665
256,456.000,2.05705534302092
257,457.000,6.064365680802666
258,458.000,5.863010033006731
259,459.000,8.285586737868698
260,460.000,5.13141519911585
261,461.000,-1.7205421144647062
262,462.000,-0.032977669450701796
263,463.000,3.257115131787714
264,464.000,-1.5710800493358192
265,465.000,3.5858145119527762
266,466.000,7.209005603367132
267,467.000,-4.52229992485934
268,468.000,-10.339641160392375
269,469.000,7.441739870785682
270,470.000,0.3831762039626483
271,471.000,4.52510393528064
272,472.000,-7.7246187786763585
273,473.000,10.662959278708058
274,474.000,4.692176383673086
275,475.000,-0.5008711283296634
276,476.000,-1.8615748630386406
277,477.000,0.9281746322088793
278,478.000,-0.7614781319236954
279,479.000,-1.4394525871763335
280,480.000,-6.491465108091802
281,481.000,7.796107987585174
282,482.000,-0.02542756149023262
283,483.000,0.6523120393408135
284,484.000,0.754128640347858
285,485.000,-13.960860852983956
286,486.000,3.3427795196543
287,487.000,-1.8038302269927726
288,488.000,-1.5734220241358798
289,489.000,0.5712102506723795
290,490.000,-5.692149226848414
291,491.000,5.1928987719090856
292,492.000,-4.052972471943008
293,493.000,-5.310437625169811
294,494.000,-5.0726343027930625
295,495.000,1.041712931529446
296,496.000,4.552269565126608
297,497.000,-3.504623864060477
298,498.000,-9.007611767855678
299,499.000,6.415979491782423
300,500.000,-6.362221397613439
301,501.000,7.184228300611608
302,502.000,-0.32383762813435624
303,503.000,-4.201740350056184
304,504.000,-3.8657249833398737
305,505.000,2.7316074014848937
306,506.000,5.282280781180702
307,507.000,-1.257582820558241
308,508.000,5.598188666532565
309,509.000,12.423356358929482
310,510.000,-1.3636925810369576
311,511.000,-7.026078945536369
312,512.000,-6.4715794815970185
313,513.000,-8.503181891454233
314,514.000,-4.015361832906024
315,515.000,-4.53644391966202
316,516.000,-8.160979721692684
317,517.000,2.953970234422968
318,518.000,-15.912121534848893
319,519.000,-8.185999470342153
320,520.000,11.813029029465383
321,521.000,5.930908608111054
322,522.000,2.8232809508056107
323,523.000,2.4123957840936328
324,524.000,10.276657875515411
325,525.000,2.846902033270794
326,526.000,0.0805841058840997
327,527.000,-7.783922018131648
328,528.000,-0.8631114106055975
329,529.000,-4.842615104040647
330,530.000,-4.694600091944267
331,531.000,-4.761241329156974
332,532.000,-0.7619527321776332
333,533.000,-2.490588179492079
334,534.000,4.696119488103477
335,535.000,-8.505801532820215
336,536.000,-1.5836340086481187
337,537.000,10.57216533095891
338,538.000,-0.36932620725599463
339,539.000,6.571228719538567
340,540.000,6.183131489943207
341,541.000,7.2444425180140115
342,542.000,3.7560972529475976
343,543.000,-8.972216821230518
344,544.000,-2.310505185976922
345,545.000,-3.0045122885425144
346,546.000,-10.031594542277844
347,547.000,-3.5373233269436923
348,548.000,-8.269645989014862
349,549.000,-10.777128841986382
350,550.000,0.4674328333245512
351,551.000,-1.073037211524479
352,552.000,-4.951289192902891
353,553.000,-6.540136295404295
354,554.000,-4.095721672147533
355,555.000,-3.2232634450706428
356,556.000,-3.317126705229498
357,557.000,-1.193481513090319
358,558.000,-3.4981908988227133
359,559.000,1.4303221374071882
360,560.000,2.240401625147342
361,561.000,1.2464336233699669
362,562.000,-4.881894779816889
363,563.000,-4.603204467454475
364,564.000,1.705855705979161
365,565.000,-2.08286508571382
366,566.000,-1.1547546407336995
367,567.000,-15.840830729566846
368,568.000,-17.080083095262694
369,569.000,1.155458546283171
370,570.000,1.1248115060537884
371,571.000,7.526060121633918
372,572.000,3.5138587569322226
373,573.000,0.5424408019106295
374,574.000,-0.660626327690693
375,575.000,-9.285605190624892
376,576.000,4.612406679590322
377,577.000,-4.264298225593507
378,578.000,2.421876609973083
379,579.000,0.6634537268724898
380,580.000,1.159171689853224
381,581.000,4.953934087567632
382,582.000,-3.2612614676928615
383,583.000,-2.5556993402600483
384,584.000,-5.26685887134613
385,585.000,-2.2819323793083868
386,586.000,10.102794840096522
387,587.000,-1.9314464865456102
388,588.000,7.520515389437833
389,589.000,5.540464238550271
390,590.000,5.159435852876072
391,591.000,5.825926045823849
392,592.000,-4.825507348121164
393,593.000,3.7854845263518655
394,594.000,11.397113545130765
395,595.000,-1.9432983955670124
396,596.000,2.3636136205595903
397,597.000,-1.0155954703500356
398,598.000,5.563038287437621
399,599.000,-2.1876411309899595
400,600.000,14.66049926856249
401,601.000,3.5756804991622175
402,602.000,-2.445711407493718
403,603.000,18.69812559868626
404,604.000,15.127839585948436
405,605.000,14.025175640461043
406,606.000,16.042192866076903
407,607.000,13.041426384103147
408,608.000,16.713440333067524
409,609.000,25.940037868485774
410,610.000,31.531846162636043
411,611.000,37.22626940432622
412,612.000,40.076687798667194
413,613.000,45.26816956684854
414,614.000,58.95543594591129
415,615.000,82.37310418852451
416,616.000,104.18356356276183
417,617.000,117.36450435188112
418,618.000,142.03714485410103
419,619.000,173.42793738238413
420,620.000,178.6534032642171
421,621.000,170.02477284139457
422,622.000,136.82414146980113
423,623.000,116.86561251919784
424,624.000,92.04848237300712
425,625.000,76.45598342810183
426,626.000,49.39003809458984
427,627.000,54.987464795609526
428,628.000,39.79138596711323
429,629.000,33.32764705766397
430,630.000,17.908156528226527
431,631.000,20.323240851960122
432,632.000,24.84596551401603
433,633.000,4.453977011330835
434,634.000,13.264380852424779
435,635.000,13.589302557200995
436,636.000,3.5347426567424236
437,637.000,11.123010693115134
438,638.000,3.010597219165902
439,639.000,11.295727798329722
440,640.000,6.147740004428897
441,641.000,3.509922421480951
442,642.000,13.494727643501278
443,643.000,5.791217274313908
444,644.000,8.078915927356775
445,645.000,-7.424272774508722
446,646.000,-4.630948199188651
447,647.000,3.8471192944567747
448,648.000,3.8777583564250335
449,649.000,-2.241456354618208
450,650.000,2.448653828478882
451,651.000,-8.877579418833193
452,652.000,-1.520223412987093
453,653.000,-9.943280462481766
454,654.000,-1.255242868063533
455,655.000,-6.439418922908203
456,656.000,-7.578361912798073
457,657.000,-3.592263116302661
458,658.000,6.7880881950463845
459,659.000,-10.363882243422836
460,660.000,-8.071437689697632
461,661.000,1.785601604747626
462,662.000,-7.313807605228021
463,663.000,5.697915441403666
464,664.000,-3.7215824883364803
465,665.000,-4.646411621603761
466,666.000,-3.1771631798973203
467,667.000,5.005101620768983
468,668.000,-1.6289344302986137
469,669.000,-2.575918538640394
470,670.000,-4.276396904807143
471,671.000,-15.26994972452701
472,672.000,-11.311752188865967
473,673.000,2.7982455156089827
474,674.000,-1.2694697933311545
475,675.000,-3.2606772937369897
476,676.000,-2.5685921596416392
477,677.000,-9.74415856121675
478,678.000,-4.54431766492894
479,679.000,-12.064370633700605
480,680.000,-4.397043627059702
481,681.000,-11.11386480129704
482,682.000,-8.19412830961869
483,683.000,-4.271284302296863
484,684.000,-9.03155292682436
485,685.000,-3.2629543280619373
486,686.000,-4.488467648390042
487,687.000,-5.142897027854474
488,688.000,0.5731223956848908
489,689.000,-16.28916051359454
490,690.000,-17.094905889618985
491,691.000,-3.890017864567085
492,692.000,-2.0118975690108982
493,693.000,4.3450148679403355
494,694.000,-3.254457681501435
495,695.000,-2.8769133439432153
496,696.000,-13.221951244952379
497,697.000,-3.472091509192296
498,698.000,-4.008247260564531
499,699.000,-14.449054622341237
500,700.000,-13.553492717306426
501,701.000,-8.902653667886511
502,702.000,-6.566989596285566
503,703.000,-26.0244466246221
504,704.000,-7.992305875055308
505,705.000,-7.086607469923024
506,706.000,-9.589541531867098
507,707.000,-6.9835571839652175
508,708.000,-5.904247549858951
509,709.000,-14.763884753885009
510,710.000,-6.25053592119491
511,711.000,-10.308204177887205
512,712.000,-14.527552651131032
513,713.000,-7.648521469287402
514,714.000,-0.027740762038547473
515,715.000,-17.76368166050281
516,716.000,-18.97015429736109
517,717.000,-19.018106806977016
518,718.000,2.718057674484271
519,719.000,-10.701083991062887
520,720.000,-9.593310943740448
521,721.000,-13.99966732582891
522,722.000,-14.965705281878058
523,723.000,-21.52593495882627
524,724.000,-8.383006506111428
525,725.000,-7.887630075789275
526,726.000,-21.34257082263923
527,727.000,-15.779423904283817
528,728.000,-14.021107481293825
529,729.000,-9.747015717300542
530,730.000,-8.159421779106879
531,731.000,-2.9011898367928097
532,732.000,-1.4994450638221224
533,733.000,-3.30409563715466
534,734.000,-1.692615737345477
535,735.000,-16.765484548653717
536,736.000,-13.117267259146729
537,737.000,-2.950016060801545
538,738.000,-8.098977149609368
539,739.000,-9.735662725674388
540,740.000,-21.736614993316948
541,741.000,-21.030325161174346
542,742.000,-5.499035442298236
543,743.000,-7.841558054250413
544,744.000,-11.670945219206601
545,745.000,-12.372730164047653
546,746.000,-20.248291120459044
547,747.000,-7.65736632502319
548,748.000,-3.6670250193138827
549,749.000,-0.00499744999115137
550,750.000,-9.542887868894923
551,751.000,-11.037402533133559
552,752.000,-16.357075705175475
553,753.000,-2.404363652943175
554,754.000,0.5412753501036605
555,755.000,-13.32758097512658
556,756.000,-7.844672913441627
557,757.000,-8.977032755452
558,758.000,-12.88610679766009
559,759.000,-24.33916834254194
560,760.000,-11.44987169863748
561,761.000,-5.495368180626201
562,762.000,-17.671235109417694
563,763.000,-13.899592812230708
564,764.000,-28.404034622672725
565,765.000,-0.8110348808281742
566,766.000,-5.308538933328464
567,767.000,-7.802643133436163
568,768.000,-9.433307841126407
569,769.000,-11.33442142315971
570,770.000,-7.643988253159819
571,771.000,-8.647550711692361
572,772.000,-7.837112186336867
573,773.000,-6.04920507176621
574,774.000,-4.519286769815835
575,775.000,4.67917831044349
576,776.000,-12.551725247371678
577,777.000,-1.40337086702732
578,778.000,-5.698284979736968
579,779.000,-7.589421024243052
580,780.000,-13.55170344687599
581,781.000,5.967023298371942
582,782.000,-1.630327250221967
583,783.000,2.1332774378246313
584,784.000,12.318323885131463
585,785.000,6.47316760638887
586,786.000,17.35891510829356
587,787.000,21.90877088948423
588,788.000,33.440194440478194
589,789.000,42.25064324360653
590,790.000,39.90469477295528
591,791.000,60.71890949430008
592,792.000,65.29718586504782
593,793.000,76.51194133417687
594,794.000,81.71143634217356
595,795.000,90.28450132097942
596,796.000,75.63026869392854
597,797.000,77.16956987569233
598,798.000,72.68320827222271
599,799.000,53.181661280694016
600,800.000,56.85725628945249
601,801.000,31.273168677954686
602,802.000,29.330122816721882
603,803.000,18.798237067278365
604,804.000,12.743019782103374
605,805.000,5.449323304583686
606,806.000,5.345685968951329
607,807.000,5.322122100242268
608,808.000,-1.6453359857571286
609,809.000,6.398524017439513
610,810.000,8.474975406973954
611,811.000,-11.31296452940569
612,812.000,1.5883784866032329
613,813.000,-3.399249276185401
614,814.000,-4.030254558487968
615,815.000,8.430682889393665
616,816.000,0.15261130753879115
617,817.000,-5.723094073647189
618,818.000,-7.213318033466749
619,819.000,-21.76735436098022
620,820.000,-4.606495855043249
621,821.000,-14.154771324348076
622,822.000,-8.990172587470624
623,823.000,-9.805936472899475
624,824.000,-4.946329819086941
625,825.000,1.1846105255165185
626,826.000,-5.36315329757349
627,827.000,-3.8725201569141063
628,828.000,-13.14432293117602
629,829.000,-9.212684509177052
630,830.000,-7.527242789917864
631,831.000,-20.962580682615453
632,832.000,-0.2456171067433388
633,833.000,-16.943294992060373
634,834.000,-20.46872327864753
635,835.000,-3.139643916935256
636,836.000,-0.3655868677467424
637,837.000,-17.41973110231652
638,838.000,-16.99903160232816
639,839.000,5.240474640050024
640,840.000,-12.86138737785177
641,841.000,-25.54222966924476
642,842.000,-17.407390257906172
643,843.000,-1.812429178211005
644,844.000,-9.957555475151594
645,845.000,-9.482949204375245
646,846.000,-6.727797432201896
647,847.000,-10.096661235653983
648,848.000,-16.22356470248019
649,849.000,-23.860224931183893
650,850.000,-11.683339031040305
651,851.000,-21.122341122126954
652,852.000,-14.825637335344481
653,853.000,-3.9941008124344535
654,854.000,-11.361518706010884
655,855.000,-14.303851179570529
656,856.000,-14.320092407523816
657,857.000,-10.380878575208271
658,858.000,-9.287872878912594
659,859.000,-22.764059525888342
660,860.000,-13.796537734381673
661,861.000,-4.660172733637864
662,862.000,-10.470953763929174
663,863.000,-19.62955807656317
664,864.000,-19.156787933909072
665,865.000,-27.489405609403548
666,866.000,-19.915668387574897
667,867.000,-5.549847564049742
668,868.000,-15.643783445575991
669,869.000,-20.39049835003152
670,870.000,-18.749774606437086
671,871.000,-15.988997554974958
672,872.000,-15.99415654699078
673,873.000,-17.507984945018052
674,874.000,-20.02690112277992
675,875.000,-11.620057465205718
676,876.000,-6.234382368437764
677,877.000,-18.898429239840652
678,878.000,-18.762416498018183
679,879.000,-8.401778572812418
680,880.000,-24.342496905316466
681,881.000,-19.129575947884177
682,882.000,-17.870008164135697
683,883.000,-14.614005028965494
684,884.000,-17.28865402854217
685,885.000,-20.976029660327413
686,886.000,-13.809824433068798
687,887.000,-22.814644866815797
688,888.000,-26.158051492915092
689,889.000,-27.886168854017797
690,890.000,-11.237151504089297
691,891.000,-26.16225700839709
692,892.000,-13.069618943536852
693,893.000,-11.737598897410408
694,894.000,-10.929394469244698
695,895.000,-16.82686126957924
696,896.000,-19.074969920287913
697,897.000,-15.277762054554842
698,898.000,-19.359228316891404
699,899.000,-23.518054363127703
700,900.000,-8.271202860416224
701,901.000,-21.17243248722889
702,902.000,-5.031385933353022
703,903.000,-12.717971899896156
704,904.000,-18.532647099273618
705,905.000,-13.177054255212852
706,906.000,-8.41854010274642
707,907.000,-24.065585388214913
708,908.000,-21.34955186924958
709,909.000,-22.07744531478147
710,910.000,-14.783328505024656
711,911.000,-13.33840623148376
712,912.000,-15.579177296933722
713,913.000,-20.109967515422795
714,914.000,-18.89774271226861
715,915.000,-8.58966172403575
716,916.000,-8.993669398545308
717,917.000,-14.889063594858499
718,918.000,-23.521135183269053
719,919.000,-11.867367045298352
720,920.000,-13.887119073676786
721,921.000,-14.071876172348539
722,922.000,-5.181425256447255
723,923.000,-10.609831252296317
724,924.000,-21.349461097393487
725,925.000,-21.258530740399692
726,926.000,-7.153357141133029
727,927.000,-14.163974270544486
728,928.000,-10.036620110720378
729,929.000,-15.955614654863894
730,930.000,-20.96984990727765
731,931.000,-13.280701883356187
732,932.000,-5.462607609571933
733,933.000,-12.728520123459703
734,934.000,-21.460850473601113
735,935.000,-16.483470719613933
736,936.000,-17.516204932134087
737,937.000,-13.395437192801637
738,938.000,-8.22111059423969
739,939.000,-2.4095672400510466
740,940.000,-12.76993224478747
741,941.000,-16.59281373394242
742,942.000,-13.45648184392985
743,943.000,-13.72790872206906
744,944.000,-16.273447526564496
745,945.000,-13.47877742648916
746,946.000,-13.5081636017635
747,947.000,-20.445887243148945
748,948.000,-9.975573552207152
749,949.000,-15.306854741300185
750,950.000,-18.893036033561202
751,951.000,-9.90180066287735
752,952.000,-15.608906873866772
753,953.000,-2.0612399218637165
754,954.000,-9.485701072892425
755,955.000,-11.707724603645147
756,956.000,-16.509626801466766
757,957.000,-14.206633964327693
758,958.000,-6.449071400802495
759,959.000,-15.426344430048857
760,960.000,-6.480429381786962
761,961.000,-23.360803596268852
762,962.000,-9.258952424266454
763,963.000,-5.2341592270345245
764,964.000,-7.745622376303345
765,965.000,-9.414572254237783
766,966.000,-2.9075092534251326
767,967.000,-13.63895677684286
768,968.000,-13.907157237838419
769,969.000,-6.828546060101871
770,970.000,0.3577913223621181
771,971.000,-3.608219534753289
772,972.000,-6.636026086008769
773,973.000,-2.865708796212857
774,974.000,-1.122443140383666
775,975.000,-10.257206603727354
776,976.000,-18.550164681608067
777,977.000,-6.5894608795206295
778,978.000,-8.004321713070112
779,979.000,-0.9308947079380232
780,980.000,-2.859921399845007
781,981.000,1.2270946654543877
782,982.000,11.414557932222806
783,983.000,12.176551834752217
784,984.000,14.703967797404857
785,985.000,28.662061234636667
786,986.000,20.528788551027674
787,987.000,26.540686141307333
788,988.000,43.170225390393625
789,989.000,37.25425967341448
790,990.000,44.636340355742504
791,991.000,75.68516079302867
792,992.000,87.36179133121982
793,993.000,112.27863930660419
794,994.000,144.39315304583988
795,995.000,190.76649486597648
796,996.000,247.063930074499
797,997.000,344.4178889693494
798,998.000,477.6292878389602
799,999.000,676.5911859623022
800,1000.000,883.9197576088927
801,1001.000,979.5670360388422
802,1002.000,887.2974955028831
803,1003.000,695.0171682424082
804,1004.000,479.72288448949257
805,1005.000,353.00815146693867
806,1006.000,259.5818433883053
807,1007.000,196.69162445793108
808,1008.000,141.68406287099015
809,1009.000,122.86919181350595
810,1010.000,97.46365446239702
811,1011.000,76.60314798550053
812,1012.000,63.35557854162016
813,1013.000,58.06559328055141
814,1014.000,55.77303634311693
815,1015.000,50.96261886120783
816,1016.000,56.50235895781134
817,1017.000,39.200825747044746
818,1018.000,44.984507334203045
819,1019.000,40.06444681578387
820,1020.000,50.31477327952007
821,1021.000,51.2956208044252
822,1022.000,54.21932346082667
823,1023.000,60.348229310400484
824,1024.000,78.60727440620485
825,1025.000,105.8353267927198
826,1026.000,143.33756250587976
827,1027.000,181.85461757311782
828,1028.000,228.7226950133986
829,1029.000,306.1842458372537
830,1030.000,379.7954670468123
831,1031.000,409.59049763585335
832,1032.000,378.54550458983294
833,1033.000,310.94354888592216
834,1034.000,232.92591049304178
835,1035.000,167.34357437191443
836,1036.000,115.72387747507764
837,1037.000,93.51343574694374
838,1038.000,62.58135312383047
839,1039.000,54.88023653399091
840,1040.000,45.16026289766546
841,1041.000,25.62026012710521
842,1042.000,25.2878631266276
843,1043.000,18.132947792631967
844,1044.000,26.79757501365907
845,1045.000,14.190840670420812
846,1046.000,-3.098543364167199
847,1047.000,8.160735775069725
848,1048.000,5.702219945583465
849,1049.000,0.053807997157264253
850,1050.000,-2.67059222806256
851,1051.000,1.708325104471669
852,1052.000,0.8169588217540422
853,1053.000,-1.669022256736298
854,1054.000,-11.24059231901606
855,1055.000,-7.670915560522644
856,1056.000,-16.303032184106996
857,1057.000,-16.636406399975613
858,1058.000,-11.659500425661236
859,1059.000,-15.201796485977638
860,1060.000,-11.882989812984306
861,1061.000,4.990449354057773
862,1062.000,-7.36703423128256
863,1063.000,-16.047675822559313
864,1064.000,-24.078838680410627
865,1065.000,-16.486150072527607
866,1066.000,-20.382590273597543
867,1067.000,-25.261633565280817
868,1068.000,-8.011241236170918
869,1069.000,-15.486813581741671
870,1070.000,-10.185556904317991
871,1071.000,5.516224486960027
872,1072.000,-11.5842447237967
873,1073.000,-12.677449859226726
874,1074.000,-11.44497724865414
875,1075.000,-15.2847302280436
876,1076.000,-18.783105139984173
877,1077.000,-15.221723333616865
878,1078.000,-7.204011164626081
879,1079.000,-15.7818659951879
880,1080.000,-22.474339193921423
881,1081.000,-21.826372135866222
882,1082.000,-20.599514202421915
883,1083.000,-14.423759781326225
884,1084.000,-11.6594762666125
885,1085.000,-11.710996058560113
886,1086.000,-7.496272563667617
887,1087.000,-15.878870194598221
888,1088.000,-9.653504370154678
889,1089.000,-12.715034515230627
890,1090.000,-10.43071306077718
891,1091.000,-25.70831844375789
892,1092.000,-7.171199107112443
893,1093.000,-23.90918649971286
894,1094.000,-21.38391907633809
895,1095.000,-9.944250297604867
896,1096.000,-16.9199376299689
897,1097.000,-3.9665585456500594
898,1098.000,-13.583934522609297
899,1099.000,-20.691590044516715
900,1100.000,-13.57492360069
901,1101.000,-16.89419568607741
902,1102.000,-5.1463848012069775
903,1103.000,-4.655504452145578
904,1104.000,-9.968984150477127
905,1105.000,-16.799032413241775
906,1106.000,-13.817374762906866
907,1107.000,-7.985659727329903
908,1108.000,-19.03756883972551
909,1109.000,-18.948624638604315
910,1110.000,-9.022874667760561
911,1111.000,-9.638706476221842
912,1112.000,-15.379744618209997
913,1113.000,-15.522846653104352
914,1114.000,-25.537607145409538
915,1115.000,-6.637978664700086
916,1116.000,-14.33620278561034
917,1117.000,-22.086815087759987
918,1118.000,-20.157904155761344
919,1119.000,-18.61610557913741
920,1120.000,-2.885792952311249
921,1121.000,-8.795860874561868
922,1122.000,-20.77730494999014
923,1123.000,-1.4253837874671262
924,1124.000,-4.30635000062216
925,1125.000,-18.44667120777376
926,1126.000,-27.781610031932587
927,1127.000,-5.7544101007181325
928,1128.000,-14.815224046369394
929,1129.000,-11.654217505668385
930,1130.000,-13.581235119925168
931,1131.000,-2.4221155349441688
932,1132.000,-0.5929634009742131
933,1133.000,-4.0285133726818
934,1134.000,-9.13728510910778
935,1135.000,-5.914308273646384
936,1136.000,-2.9003265339936206
937,1137.000,-15.085605562120236
938,1138.000,2.97119696576533
939,1139.000,-5.058842630744493
940,1140.000,0.012306963775245094
941,1141.000,1.1496500606119753
942,1142.000,8.00486496695521
943,1143.000,11.696261985940282
944,1144.000,21.85479441665916
945,1145.000,10.56542355422016
946,1146.000,12.338038689769292
947,1147.000,24.941203110521656
948,1148.000,28.239196099796573
949,1149.000,47.46352993706569
950,1150.000,50.12843189796331
951,1151.000,71.17523925433215
952,1152.000,93.63437927425684
953,1153.000,111.8826952220877
954,1154.000,121.04770235848741
955,1155.000,133.8357999404609
956,1156.000,127.95567822136513
957,1157.000,96.43526245097019
958,1158.000,91.42117887548397
959,1159.000,73.18484673756438
960,1160.000,55.385124276379884
961,1161.000,41.1975627276197
962,1162.000,35.71095932353478
963,1163.000,30.352226292959358
964,1164.000,24.002583861352832
965,1165.000,26.23424625082498
966,1166.000,20.78659668016371
967,1167.000,8.980564364865131
968,1168.000,6.409818517168787
969,1169.000,15.172143346083658
970,1170.000,5.666756057421708
971,1171.000,11.248857853812524
972,1172.000,14.193851934750683
973,1173.000,19.38637949660574
974,1174.000,19.114618732674444
975,1175.000,28.66605083318268
976,1176.000,22.726859985339388
977,1177.000,36.92916537334213
978,1178.000,38.83701117840178
979,1179.000,56.65945857880752
980,1180.000,71.78667374989777
981,1181.000,82.10166686413822
982,1182.000,85.75450809111521
983,1183.000,112.40849559757567
984,1184.000,102.94768654744666
985,1185.000,87.29047310186115
986,1186.000,64.97589641920035
987,1187.000,51.01676565509388
988,1188.000,42.29343896245223
989,1189.000,29.058099491500116
990,1190.000,27.662666389791866
991,1191.000,15.039641802244205
992,1192.000,4.449136871151268
993,1193.000,9.13051373619578
994,1194.000,-1.4467424654833394
995,1195.000,1.1359664006713501
996,1196.000,-13.08254753328265
997,1197.000,-6.020586137812188
998,1198.000,-2.004105285864398
999,1199.000,-10.45846885284709
1000,1200.000,-7.742531716606663
1001,1201.000,-4.921293757410012
1002,1202.000,-8.818312857935098
1003,1203.000,0.8275640967829077
1004,1204.000,-12.024031780670839
1005,1205.000,-12.060612380026214
1006,1206.000,-12.40383059336591
1007,1207.000,-23.706781315043827
1008,1208.000,-21.41407344170557
1009,1209.000,-9.343077872258846
1010,1210.000,-14.813920507863713
1011,1211.000,-4.775557251891769
1012,1212.000,-13.823414009945282
1013,1213.000,-14.600414689787385
1014,1214.000,-7.6145262013917545
1015,1215.000,-12.31833845686674
1016,1216.000,-4.529666370472796
1017,1217.000,-20.657226858588274
1018,1218.000,-11.82531783972081
1019,1219.000,-10.525501234462808
1020,1220.000,-11.394431965477224
1021,1221.000,-7.935601957514791
1022,1222.000,-8.775588137366185
1023,1223.000,-14.827837433866534
1024,1224.000,-18.48062677786129
1025,1225.000,-9.329953102241689
1026,1226.000,-14.98016034186071
1027,1227.000,-9.587130433591938
1028,1228.000,-7.2798933162584945
1029,1229.000,-14.233037930657702
1030,1230.000,-20.892957219551135
1031,1231.000,-17.060980127624816
1032,1232.000,-10.849630601506988
1033,1233.000,-17.043037589744245
1034,1234.000,-8.59039904279848
1035,1235.000,-15.449605913031746
1036,1236.000,-14.928327154697172
1037,1237.000,-19.513892723938852
1038,1238.000,-16.39491457877739
1039,1239.000,-9.279230679100237
1040,1240.000,-17.950592986655693
1041,1241.000,-17.952138465058624
1042,1242.000,-20.684477079757926
1043,1243.000,-11.386019798060488
1044,1244.000,-25.25482758909243
1045,1245.000,-20.10707542383352
1046,1246.000,-10.783798275063873
1047,1247.000,-7.764184117423611
1048,1248.000,-17.684291927330833
1049,1249.000,-10.61989668304409
1050,1250.000,-28.350166364630013
1051,1251.000,-11.952789953956199
1052,1252.000,-14.786828434714607
1053,1253.000,-23.920162792381234
1054,1254.000,-27.298195014243447
1055,1255.000,-19.691242089395246
1056,1256.000,-15.140991008728179
1057,1257.000,-14.52186676493966
1058,1258.000,-16.101838352532013
1059,1259.000,-12.173698767792075
1060,1260.000,-12.628240008839384
1061,1261.000,-25.163365075570482
1062,1262.000,-19.195031969712772
1063,1263.000,-19.99717969478297
1064,1264.000,-10.801355256137413
1065,1265.000,-19.944861660917923
1066,1266.000,-10.986102918128381
1067,1267.000,-16.49609403853583
1068,1268.000,-3.0007150348094456
1069,1269.000,-17.39484892140149
1070,1270.000,-17.09770271462594
1071,1271.000,-17.82064243263835
1072,1272.000,-16.29393509546435
1073,1273.000,-2.6321947249612094
1074,1274.000,-20.251295344884966
1075,1275.000,-22.487213980847855
1076,1276.000,-18.47159466036146
1077,1277.000,-13.28352441283073
1078,1278.000,-23.270202269557103
1079,1279.000,-12.5954252637639
1080,1280.000,-12.818461430608295
1081,1281.000,-18.418595807164365
1082,1282.000,-18.969606432471664
1083,1283.000,-22.21216934753511
1084,1284.000,-19.15754259530422
1085,1285.000,-22.33555622074914
1086,1286.000,-10.109483270831333
1087,1287.000,-7.833897794501581
1088,1288.000,-19.320944842779227
1089,1289.000,-17.890102468695204
1090,1290.000,-29.060320727370936
1091,1291.000,-20.870368675982945
1092,1292.000,-15.692228373803118
1093,1293.000,-16.114335882229398
1094,1294.000,-17.038052264758562
1095,1295.000,-12.730985587077157
1096,1296.000,-17.278113917012206
1097,1297.000,-20.173953324562945
1098,1298.000,-8.271405881977444
1099,1299.000,-29.39137366367595
1100,1300.000,-24.855243746378164
1101,1301.000,-22.372408209036394
1102,1302.000,-22.348868132917687
1103,1303.000,-22.647487601586135
1104,1304.000,-19.385531700959746
1105,1305.000,-22.338402519297688
1106,1306.000,-18.438849147262545
1107,1307.000,-14.592143677931517
1108,1308.000,-17.98780620680145
1109,1309.000,-17.38803483184074
1110,1310.000,-23.811414653511292
1111,1311.000,-25.033537774784236
1112,1312.000,-20.008272301184206
1113,1313.000,-12.74134734080394
1114,1314.000,-16.053832004330616
1115,1315.000,-11.821750405100829
1116,1316.000,-12.403243659098962
1117,1317.000,-11.646010885019905
1118,1318.000,-23.203436204249783
1119,1319.000,-10.993002740982547
1120,1320.000,-13.88428162214609
1121,1321.000,-6.029015977537256
1122,1322.000,-14.922330939756193
1123,1323.000,-16.511497644357178
1124,1324.000,-19.244294229777097
1125,1325.000,-17.501971837416022
1126,1326.000,-28.365113611679817
1127,1327.000,-20.005576700027405
1128,1328.000,-18.755379252956573
1129,1329.000,-12.633991424090482
1130,1330.000,-22.470286370201393
1131,1331.000,-17.778353251241015
1132,1332.000,-7.688593230400556
1133,1333.000,-21.75105447412807
1134,1334.000,-13.580253152188334
1135,1335.000,-21.800220437692587
1136,1336.000,-19.2268225071673
1137,1337.000,-15.895433540524891
1138,1338.000,-13.39129572120305
1139,1339.000,-21.598065236159982
1140,1340.000,-24.760383275903905
1141,1341.000,-9.644609034581435
1142,1342.000,-17.579377709971595
1143,1343.000,-13.974834503593229
1144,1344.000,-13.273531620699714
1145,1345.000,-14.207253270368255
1146,1346.000,-20.277641665519695
1147,1347.000,-19.539197022962753
1148,1348.000,-27.979057563494507
1149,1349.000,-17.672128511873552
1150,1350.000,-21.53729009696781
1151,1351.000,-18.887717551696824
1152,1352.000,-7.651575113186482
1153,1353.000,-14.674884022751485
1154,1354.000,-18.447138525995797
1155,1355.000,-26.83826587282283
1156,1356.000,-14.440576317519572
1157,1357.000,-9.734147118850842
1158,1358.000,-23.645239540039256
1159,1359.000,-16.24545984884594
1160,1360.000,-21.826872317658854
1161,1361.000,-19.654768223561177
1162,1362.000,-20.91809884830718
1163,1363.000,-28.283831478482398
1164,1364.000,-21.7767594055274
1165,1365.000,-28.32202392576778
1166,1366.000,-10.532065340523786
1167,1367.000,-12.557724956142465
1168,1368.000,-18.448937084091995
1169,1369.000,-17.045540040965307
1170,1370.000,-18.33919514865147
1171,1371.000,-17.489663734276064
1172,1372.000,-17.488083130390578
1173,1373.000,-20.039473674917645
1174,1374.000,-19.587774711341808
1175,1375.000,-26.51578058868313
1176,1376.000,-24.466036661608086
1177,1377.000,-22.10355429049764
1178,1378.000,-17.272027841536783
1179,1379.000,-20.658552686720896
1180,1380.000,-7.188540204008859
1181,1381.000,-19.509027777365418
1182,1382.000,-20.453597796799613
1183,1383.000,-15.755784658516404
1184,1384.000,-12.189924764902116
1185,1385.000,-7.2873315246652055
1186,1386.000,-12.409278352919955
1187,1387.000,-21.558039671197776
1188,1388.000,-19.02895290761012
1189,1389.000,-11.771118496837744
1190,1390.000,-16.368088880313735
1191,1391.000,-13.09887250621955
1192,1392.000,-18.163072829589737
1193,1393.000,-8.213438312437347
1194,1394.000,-9.0257534237669
1195,1395.000,-10.815489639723637
1196,1396.000,-16.404285443639083
1197,1397.000,-26.68104832610743
1198,1398.000,-25.014126785134977
1199,1399.000,-15.037680326167447
1200,1400.000,-12.972474462159653
1201,1401.000,-33.766251713769634
1202,1402.000,-19.28662060931424
1203,1403.000,-9.57035368498805
1204,1404.000,-10.542821484832302
1205,1405.000,-18.867555560904975
1206,1406.000,-11.999207473395927
1207,1407.000,-15.331866790635104
1208,1408.000,-16.54608008925493
1209,1409.000,-8.430451954250202
1210,1410.000,-8.03107897909581
1211,1411.000,-17.485217765819925
1212,1412.000,-19.617198925174534
1213,1413.000,-21.382721076596226
1214,1414.000,-21.660564848440117
1215,1415.000,-5.075491878037383
1216,1416.000,-1.4354668117377969
1217,1417.000,-10.678900305088291
1218,1418.000,-5.19467402292662
1219,1419.000,-14.767521639435017
1220,1420.000,-10.498777838282422
1221,1421.000,-3.9920743127588594
1222,1422.000,-6.706203765807913
1223,1423.000,-7.87123591017189
1224,1424.000,-16.41667946854136
1225,1425.000,-14.08483017359049
1226,1426.000,-6.771022768115017
1227,1427.000,-6.210867005153887
1228,1428.000,-1.8547916481340962
1229,1429.000,-3.4105894708859523
1230,1430.000,1.0292227421502957
1231,1431.000,4.911693195857424
1232,1432.000,10.146689084325772
1233,1433.000,10.471617590693995
1234,1434.000,10.288647887093703
1235,1435.000,15.827042134498697
1236,1436.000,27.356894482605867
1237,1437.000,26.257242069718586
1238,1438.000,28.156128022626717
1239,1439.000,35.41207045650458
1240,1440.000,51.823380474757414
1241,1441.000,63.92998116891931
1242,1442.000,80.19524161850791
1243,1443.000,85.65869989093562
1244,1444.000,112.2859970413574
1245,1445.000,120.93379111253194
1246,1446.000,141.6373561347491
1247,1447.000,159.55703212563253
1248,1448.000,183.3505120900545
1249,1449.000,198.522570020001
1250,1450.000,196.61338489442028
1251,1451.000,189.44724767911157
1252,1452.000,171.2199153265858
1253,1453.000,163.6513177759373
1254,1454.000,140.87505695268487
1255,1455.000,121.64052776866447
1256,1456.000,100.38194912189465
1257,1457.000,82.22268389640885
1258,1458.000,70.29830396213379
1259,1459.000,63.00364317476328
1260,1460.000,55.4565543756014
1261,1461.000,40.90616839141785
1262,1462.000,35.337169034325825
1263,1463.000,25.927988101622304
1264,1464.000,20.92726237564102
1265,1465.000,9.05001762360871
1266,1466.000,18.18160159752233
1267,1467.000,13.075665033982887
1268,1468.000,15.108980654020115
1269,1469.000,0.4601851630097826
1270,1470.000,2.503577250483886
1271,1471.000,-5.618041410063142
1272,1472.000,-0.6033721612341196
1273,1473.000,-4.2860513619320955
1274,1474.000,-1.0250303875479858
1275,1475.000,-7.052886630029434
1276,1476.000,-3.576755498134389
1277,1477.000,-11.1785064174926
1278,1478.000,-5.767439830836338
1279,1479.000,-11.805635198125401
1280,1480.000,-13.330765996718355
1281,1481.000,-10.952444721524444
1282,1482.000,-9.937256885168381
1283,1483.000,-20.84024301815566
1284,1484.000,-21.972010669036536
1285,1485.000,-12.526998404552614
1286,1486.000,-14.387353809850765
1287,1487.000,-26.275543488598714
1288,1488.000,-24.724872063163957
1289,1489.000,-19.62438817480347
1290,1490.000,-13.611721483809788
1291,1491.000,-14.572441669703494
1292,1492.000,-10.168956431387187
1293,1493.000,-9.45921848732928
1294,1494.000,-2.723279575726565
1295,1495.000,-25.08917145468604
1296,1496.000,-17.133506902411455
1297,1497.000,-10.888648717348588
1298,1498.000,-24.548319718413268
1299,1499.000,-25.598222745121575
1300,1500.000,-16.39645365777733
1301,1501.000,-11.303048337699465
1302,1502.000,-10.506577687339359
1303,1503.000,-28.24884263050535
1304,1504.000,-25.07487511255522
1305,1505.000,-18.66128810051009
1306,1506.000,-21.262484583340893
1307,1507.000,-16.381650572113585
1308,1508.000,-17.546676100111426
1309,1509.000,-8.13309722316285
1310,1510.000,-18.803375019683017
1311,1511.000,-17.420072590982727
1312,1512.000,-18.07855106141392
1313,1513.000,-12.11428557851832
1314,1514.000,-25.048975313325172
1315,1515.000,-16.34969646045488
1316,1516.000,-23.10533523836466
1317,1517.000,-26.867930889535955
1318,1518.000,-11.740660680653946
1319,1519.000,-15.538628902841083
1320,1520.000,-10.442148871841027
1321,1521.000,-17.0724519282046
1322,1522.000,-14.7442774375329
1323,1523.000,-17.702329790645535
1324,1524.000,-15.13334840381276
1325,1525.000,-20.80808371892408
1326,1526.000,-8.385172203765023
1327,1527.000,-23.461325352142012
1328,1528.000,-8.243929684163959
1329,1529.000,-19.301116746380785
1330,1530.000,-12.980141112106821
1331,1531.000,-17.164165381489283
1332,1532.000,-15.262921181863021
1333,1533.000,-9.061560167846437
1334,1534.000,-16.813460021672654
1335,1535.000,-23.04597345331308
1336,1536.000,-15.98853120073386
1337,1537.000,-13.447945030101664
1338,1538.000,-31.46849473607017
1339,1539.000,-11.210301141896707
1340,1540.000,-10.355958099740064
1341,1541.000,-26.932672490881487
1342,1542.000,-17.26094822590244
1343,1543.000,-11.315967244948297
1344,1544.000,-22.691859517992043
1345,1545.000,-18.113004044949093
1346,1546.000,-17.360935856068636
1347,1547.000,-11.782742012001108
1348,1548.000,-8.201169604168626
1349,1549.000,-14.575905754898486
1350,1550.000,-13.642843617705694
1351,1551.000,-8.152443377538248
1352,1552.000,-9.965046250985097
1353,1553.000,-13.313986486526801
1354,1554.000,-4.307359364785725
1355,1555.000,-19.888473198754582
1356,1556.000,-10.025792334047765
1357,1557.000,-12.697949149114265
1358,1558.000,-12.414876055536752
1359,1559.000,-7.422671498231011
1360,1560.000,-7.408488955719122
1361,1561.000,7.921665059665884
1362,1562.000,-1.5784729985748527
1363,1563.000,-1.956600711205283
1364,1564.000,7.234037306368691
1365,1565.000,5.218771403885057
1366,1566.000,-9.775142103960434
1367,1567.000,4.231248062096029
1368,1568.000,10.568852145743449
1369,1569.000,5.730454354779113
1370,1570.000,14.74222486091412
1371,1571.000,14.705147799399583
1372,1572.000,24.927972268895246
1373,1573.000,19.557932331098073
1374,1574.000,25.617462010552345
1375,1575.000,43.75861529436838
1376,1576.000,60.67982613190043
1377,1577.000,82.67132643458285
1378,1578.000,92.3719520755692
1379,1579.000,112.85010388950855
1380,1580.000,149.29343667224066
1381,1581.000,171.15456618056123
1382,1582.000,203.53028813195783
1383,1583.000,202.45161920426722
1384,1584.000,186.6703750354543
1385,1585.000,177.04621522332718
1386,1586.000,154.86549232527454
1387,1587.000,131.9868338579147
1388,1588.000,119.43336529689577
1389,1589.000,108.82482407659245
1390,1590.000,105.25477858978229
1391,1591.000,102.74114818741805
1392,1592.000,112.50129417828953
1393,1593.000,122.07857282877126
1394,1594.000,136.58706536252998
1395,1595.000,160.54676596020568
1396,1596.000,182.37230675915976
1397,1597.000,231.4231108531635
1398,1598.000,301.1510552921018
1399,1599.000,391.9897430816645
1400,1600.000,478.575985183111
1401,1601.000,570.2050715128732
1402,1602.000,609.0919019423513
1403,1603.000,581.9967482975751
1404,1604.000,483.7724593588673
1405,1605.000,379.5800148606095
1406,1606.000,302.19751049087245
1407,1607.000,228.62709289116424
1408,1608.000,174.1688286561223
1409,1609.000,144.1013043330952
1410,1610.000,103.13708442203074
1411,1611.000,87.7055843750029
1412,1612.000,70.02284059593467
1413,1613.000,61.55053344031876
1414,1614.000,38.72629421491274
1415,1615.000,29.24726317738714
1416,1616.000,27.594382535965224
1417,1617.000,22.461375449241586
1418,1618.000,19.48393802571718
1419,1619.000,12.90806632355725
1420,1620.000,14.217488350260055
1421,1621.000,12.76998306231144
1422,1622.000,7.417659364856718
1423,1623.000,-2.4218088885725138
1424,1624.000,8.753054103535078
1425,1625.000,-8.951365909603055
1426,1626.000,-2.571724231378539
1427,1627.000,2.607494781754667
1428,1628.000,-7.5571822798638095
1429,1629.000,2.7367561204243884
1430,1630.000,5.480756465258764
1431,1631.000,2.611374183034741
1432,1632.000,-4.952081352564392
1433,1633.000,-2.3970168227929207
1434,1634.000,-11.927749964290797
1435,1635.000,-7.05919756936305
1436,1636.000,-7.249937486332328
1437,1637.000,-9.880358619883737
1438,1638.000,-9.945851931424158
1439,1639.000,-12.49630043943057
1440,1640.000,-23.311671219791606
1441,1641.000,-9.564018406165815
1442,1642.000,-10.379972190320132
1443,1643.000,-0.29230682249067286
1444,1644.000,-8.533516611765208
1445,1645.000,-12.601585926384814
1446,1646.000,-8.00432219417462
1447,1647.000,-9.69485790280487
1448,1648.000,-13.684148600261778
1449,1649.000,-16.016268895119765
1450,1650.000,-22.64747145699016
1451,1651.000,-13.293348016799882
1452,1652.000,-4.451410367177459
1453,1653.000,-25.388883362916886
1454,1654.000,-20.029337921208707
1455,1655.000,-9.938570022090971
1456,1656.000,-13.37829370880877
1457,1657.000,-12.096740088182514
1458,1658.000,-25.764774331000353
1459,1659.000,-18.24329367233804
1460,1660.000,-11.759078412000008
1461,1661.000,-11.302849914917488
1462,1662.000,-13.09303461142099
1463,1663.000,-20.156176997719285
1464,1664.000,-11.691650636288614
1465,1665.000,-22.067640156161588
1466,1666.000,-20.566864253403537
1467,1667.000,-21.920140691504912
1468,1668.000,-6.364572301689805
1469,1669.000,-17.43915998339571
1470,1670.000,-14.644979704615253
1471,1671.000,-28.105920502274103
1472,1672.000,-8.41821148268923
1473,1673.000,-12.18004382193044
1474,1674.000,-24.825032766209006
1475,1675.000,-24.516321632284416
1476,1676.000,-4.97724280786565
1477,1677.000,-20.516373752052004
1478,1678.000,-3.8365209956623403
1479,1679.000,-17.616988141702677
1480,1680.000,-29.63078086574319
1481,1681.000,-8.119364916345603
1482,1682.000,-11.703705115462526
1483,1683.000,-10.590457358847516
1484,1684.000,-17.669522616482936
1485,1685.000,-15.862451932969634
1486,1686.000,-8.80987042793322
1487,1687.000,-19.41085029653209
1488,1688.000,-26.212635809774383
1489,1689.000,-8.953535314979717
1490,1690.000,-18.045600236152268
1491,1691.000,-6.647370074506171
1492,1692.000,-17.109563408835584
1493,1693.000,-16.719581895897136
1494,1694.000,-15.609441270896014
1495,1695.000,-28.14662834792648
1496,1696.000,-6.931389020352526
1497,1697.000,-17.675707261255866
1498,1698.000,-15.012077123914878
1499,1699.000,-4.997995742176499
1500,1700.000,-13.006759330919067
1501,1701.000,-8.259458186533493
1502,1702.000,-11.53847968725404
1503,1703.000,-8.844435293758806
1504,1704.000,-11.734417549469072
1505,1705.000,-6.397699081053588
1506,1706.000,-14.496371598897213
1507,1707.000,-10.392365897523405
1508,1708.000,-17.318751856026438
1509,1709.000,-5.879637438562668
1510,1710.000,-25.986963694739416
1511,1711.000,-11.703428760177758
1512,1712.000,-10.566985856876045
1513,1713.000,-10.59361729367697
1514,1714.000,-12.599064466755635
1515,1715.000,-4.435464860111551
1516,1716.000,0.3062559540994698
1517,1717.000,-15.856281685080376
1518,1718.000,-23.641107527727854
1519,1719.000,-18.62343341356882
1520,1720.000,-16.88155827245555
1521,1721.000,-12.729919124813023
1522,1722.000,-12.152329082124652
1523,1723.000,-5.258093347403246
1524,1724.000,-14.190276215612357
1525,1725.000,-11.755012074243268
1526,1726.000,-10.77644040378027
1527,1727.000,-16.60456677803336
1528,1728.000,-13.143000864816258
1529,1729.000,5.394785573670106
1530,1730.000,-11.590617319634475
1531,1731.000,-16.71009049716281
1532,1732.000,-23.897035007229306
1533,1733.000,-4.5081179945077565
1534,1734.000,-12.562988700424967
1535,1735.000,-14.329633463853725
1536,1736.000,4.24507227858544
1537,1737.000,-1.7247810080700674
1538,1738.000,-20.48028295764925
1539,1739.000,-12.19010330320043
1540,1740.000,-4.011251877676386
1541,1741.000,-4.88186661432951
1542,1742.000,-16.46054754721922
1543,1743.000,0.9835851882462521
1544,1744.000,1.5353573548131862
1545,1745.000,-16.106068387098503
1546,1746.000,-19.940944479928703
1547,1747.000,-17.582094469509002
1548,1748.000,-5.131792005533953
1549,1749.000,-2.551422842122747
1550,1750.000,-7.807634838294462
1551,1751.000,-12.377083958505864
1552,1752.000,-9.252929273162863
1553,1753.000,-5.200802959182511
1554,1754.000,-15.754296300451642
1555,1755.000,-18.544758688379716
1556,1756.000,-8.76255362247889
1557,1757.000,-0.7337747108088024
1558,1758.000,-6.878973670554615
1559,1759.000,-6.746275328544698
1560,1760.000,-11.843230621788734
1561,1761.000,-2.1626835980393935
1562,1762.000,-17.81344841626833
1563,1763.000,-7.845598347237228
1564,1764.000,-10.901474774075268
1565,1765.000,-8.151759192783857
1566,1766.000,-12.674801212765715
1567,1767.000,-2.507596557408533
1568,1768.000,-7.352093064569772
1569,1769.000,-10.352815687257134
1570,1770.000,-3.604274494002766
1571,1771.000,-6.85738666955649
1572,1772.000,-9.549055515363989
1573,1773.000,-9.85795345019983
1574,1774.000,-1.5316990105748118
1575,1775.000,-11.720841851500381
1576,1776.000,-7.303289746880182
1577,1777.000,-7.46386559014968
1578,1778.000,-3.8557153948377163
1579,1779.000,-6.779012295108487
1580,1780.000,7.439667453662423
1581,1781.000,-15.861297525719465
1582,1782.000,-1.708640732785625
1583,1783.000,-5.339774789986905
1584,1784.000,1.6267055566970612
1585,1785.000,-14.653360562816488
1586,1786.000,2.5121138568006245
1587,1787.000,-12.965126304453861
1588,1788.000,-0.40588129233287873
1589,1789.000,-1.3631674790531179
1590,1790.000,-4.1272813637936
1591,1791.000,-8.615626573325699
1592,1792.000,-8.971887862586755
1593,1793.000,-3.366699115289066
1594,1794.000,-8.34097234447313
1595,1795.000,-15.419722693123504
1596,1796.000,-14.439675434828814
1597,1797.000,1.3269900257650988
1598,1798.000,1.5958731521902791
1599,1799.000,-0.1249607242723414
1600,1800.000,-2.804077405377484
1601,1801.000,-0.6805968263970499
1602,1802.000,0.13389594327600207
1603,1803.000,-1.200555300578344
1604,1804.000,-7.336168897506013
1605,1805.000,-6.859523323098756
1606,1806.000,-9.247840189466388
1607,1807.000,-1.3038622460032911
1608,1808.000,-8.038619379961347
1609,1809.000,-2.9220266169666047
1610,1810.000,6.043960878239432
1611,1811.000,-3.981403198820999
1612,1812.000,4.225864707120536
1613,1813.000,7.875634010324347
1614,1814.000,-12.305776016495656
1615,1815.000,-9.843236242841158
1616,1816.000,1.723161318926259
1617,1817.000,-5.249190486995985
1618,1818.000,2.3350550394593483
1619,1819.000,3.489027453579638
1620,1820.000,-3.717375834644372
1621,1821.000,4.443501438661542
1622,1822.000,10.0669093907336
1623,1823.000,5.459975991488136
1624,1824.000,-5.407514937108772
1625,1825.000,-0.9131857216975732
1626,1826.000,-3.1432088382246093
1627,1827.000,9.601725087495652
1628,1828.000,-0.8493017209545997
1629,1829.000,-3.716188191130186
1630,1830.000,0.8197445974024049
1631,1831.000,3.7392264126183363
1632,1832.000,-1.4875571307213704
1633,1833.000,1.5180874283037156
1634,1834.000,0.9952783960090983
1635,1835.000,5.533662923569864
1636,1836.000,7.054657006296793
1637,1837.000,2.967674482973507
1638,1838.000,-1.3710759649061401
1639,1839.000,3.9755021863506954
1640,1840.000,-3.7038616981271844
1641,1841.000,8.199101587503264
1642,1842.000,3.9509350892074053
1643,1843.000,3.4306276922970937
1644,1844.000,-12.47950787911941
1645,1845.000,16.382775937023325
1646,1846.000,10.99904054018657
1647,1847.000,9.99638016640506
1648,1848.000,3.2403428877723854
1649,1849.000,6.6124926116137885
1650,1850.000,19.827506079770274
1651,1851.000,-1.306747131970269
1652,1852.000,7.373056385328027
1653,1853.000,6.610358873054338
1654,1854.000,3.9494664044416368
1655,1855.000,5.324317883691037
1656,1856.000,-2.5752829545635905
1657,1857.000,7.291043453938983
1658,1858.000,-4.355914497604772
1659,1859.000,14.596251412259335
1660,1860.000,8.494915232438188
1661,1861.000,-1.320811161295751
1662,1862.000,-8.682083067126769
1663,1863.000,4.591550042128802
1664,1864.000,7.092789518281279
1665,1865.000,-1.8399364629224237
1666,1866.000,14.27661309741302
1667,1867.000,5.9313820206928085
1668,1868.000,1.5970089500151516
1669,1869.000,-3.919945650534828
1670,1870.000,3.8125185034489277
1671,1871.000,3.413785515808968
1672,1872.000,8.578572309260835
1673,1873.000,11.037348624516426
1674,1874.000,4.989627019653199
1675,1875.000,7.632222869240877
1676,1876.000,13.472732363743944
1677,1877.000,8.688949508595897
1678,1878.000,3.4862451236747347
1679,1879.000,8.800941842315979
1680,1880.000,2.0056561107676316
1681,1881.000,7.89478718729697
1682,1882.000,5.534413141432651
1683,1883.000,-1.317017146673379
1684,1884.000,8.93551801289027
1685,1885.000,5.856448118961453
1686,1886.000,9.778894478796019
1687,1887.000,-2.5408467929657945
1688,1888.000,12.10186522500021
1689,1889.000,12.389672260075258
1690,1890.000,3.4018318447097045
1691,1891.000,4.94003231585225
1692,1892.000,5.835806813945965
1693,1893.000,5.438969282388371
1694,1894.000,10.5903854665562
1695,1895.000,1.3072149131442075
1696,1896.000,-1.3024240306506272
1697,1897.000,4.142014782040405
1698,1898.000,16.98885229700568
1699,1899.000,3.2560132581554626
1700,1900.000,-0.4131557932796568
1701,1901.000,0.06183848049772678
1702,1902.000,6.565282212952525
1703,1903.000,12.610155332588647
1704,1904.000,1.1224025619644635
1705,1905.000,6.57034541695225
1706,1906.000,6.793123206001155
1707,1907.000,8.287351029292495
1708,1908.000,6.3442837778184185
1709,1909.000,11.761892132785079
1710,1910.000,9.559128564581442
1711,1911.000,1.7216453321357221
1712,1912.000,19.943576481947048
1713,1913.000,-2.8153201525899476
1714,1914.000,-2.5747639521036945
1715,1915.000,11.512015487975077
1716,1916.000,6.382523356501679
1717,1917.000,3.737380625946571
1718,1918.000,6.389700051438695
1719,1919.000,9.258463169929655
1720,1920.000,2.5542062994870776
1721,1921.000,1.2303805382882729
1722,1922.000,-1.3050482360979458
1723,1923.000,-0.2422993676009355
1724,1924.000,0.06509657754099862
1725,1925.000,11.674767809849072
1726,1926.000,6.408867315905127
1727,1927.000,7.927553857397697
1728,1928.000,1.2123889702322685
1729,1929.000,10.806791963790829
1730,1930.000,-4.9278210799711815
1731,1931.000,7.200845692578696
1732,1932.000,8.437280905951411
1733,1933.000,0.7037729546391347
1734,1934.000,-2.071623997780307
1735,1935.000,7.1098869806533
1736,1936.000,-0.3720444109064829
1737,1937.000,-1.5869607066142635
1738,1938.000,3.5438223249652765
1739,1939.000,-3.1491913199809005
1740,1940.000,2.6310291186555332
1741,1941.000,15.495481164022976
1742,1942.000,0.5936261013343938
1743,1943.000,8.540507977121706
1744,1944.000,-3.3508944017255544
1745,1945.000,3.339242531157879
1746,1946.000,1.077364100731529
1747,1947.000,1.5633993896744869
1748,1948.000,6.965789237425952
1749,1949.000,15.170274239386572
1750,1950.000,1.3643987459413438
1751,1951.000,9.797333861624793
1752,1952.000,3.914295444106301
1753,1953.000,6.069304103455124
1754,1954.000,-1.327542798882405
1755,1955.000,-2.928681151042383
1756,1956.000,-0.06901409148554194
1757,1957.000,-3.680195010050511
1758,1958.000,0.7134944511803951
1759,1959.000,-5.753933603043606
1760,1960.000,0.41821767798546716
1761,1961.000,1.2506758899246506
1762,1962.000,10.885236372480904
1763,1963.000,10.128152208571692
1764,1964.000,2.63575322327074
1765,1965.000,-3.6513580170078512
1766,1966.000,2.7918277944261263
1767,1967.000,3.8215657037742403
1768,1968.000,-2.483012504369526
1769,1969.000,-6.633456307816232
1770,1970.000,-12.52411744777919
1771,1971.000,-2.254667929857078
1772,1972.000,9.260158975127297
1773,1973.000,-3.7643132699615762
1774,1974.000,-0.46952146936177996
1775,1975.000,-0.8541766955131607
1776,1976.000,-0.40727828997137294
1777,1977.000,1.0541181357220921
1778,1978.000,-15.89554030098111
1779,1979.000,-5.051816754718402
1780,1980.000,-2.1773946529183377
1781,1981.000,-5.269340696987001
1782,1982.000,2.263089136767803
1783,1983.000,-7.565209403653398
1784,1984.000,-0.10844084728842063
1785,1985.000,4.6431619992356445
1786,1986.000,-7.7861949495500085
1787,1987.000,-6.417605058866229
1788,1988.000,-8.674255974679
1789,1989.000,-2.6577336246073173
1790,1990.000,-20.43844821897096
1791,1991.000,-16.727553251825157
1792,1992.000,-10.064920501889219
1793,1993.000,-3.425634033445931
1794,1994.000,-5.475971197562558
1795,1995.000,-14.312100632930424
1796,1996.000,-0.13708126683627597
1797,1997.000,-9.491420316333915
1798,1998.000,-14.304084289082084
1799,1999.000,-7.763042984343883
1800,2000.000,-3.522547494161472
