pixel_index,raman_shift_cm-1,intensity
0,197.000,-0.576609
1,198.000,-10.778695
2,199.000,-1.040321
3,200.000,-1.386245
4,201.000,-14.317439
5,202.000,7.686359
6,203.000,-5.508048
7,204.000,6.113926
8,205.000,7.355535
9,206.000,5.485744
10,207.000,-3.658114
11,208.000,-1.61723
12,209.000,0.582464
13,210.000,-3.588912
14,211.000,5.855757
15,212.000,-9.495938
16,213.000,-10.288566
17,214.000,-1.005697
18,215.000,1.037445
19,216.000,12.897781
20,217.000,3.445863
21,218.000,9.341566
22,219.000,4.346449
23,220.000,-1.293695
24,221.000,-3.84143
25,222.000,-7.360577
26,223.000,-1.367231
27,224.000,7.718896
28,225.000,7.442697
29,226.000,-11.019739
30,227.000,-0.372697
31,228.000,-9.120335
32,229.000,1.671495
33,230.000,5.652419
34,231.000,-1.562381
35,232.000,-2.320202
36,233.000,8.029405
37,234.000,1.692514
38,235.000,2.41744
39,236.000,-3.688588
40,237.000,-0.689839
41,238.000,-7.513077
42,239.000,7.777336
43,240.000,3.131326
44,241.000,-9.196508
45,242.000,14.154873
46,243.000,7.463982
47,244.000,9.467033
48,245.000,-0.897268
49,246.000,5.731992
50,247.000,-4.847027
51,248.000,8.675219
52,249.000,-6.504921
53,250.000,3.190549
54,251.000,-2.826157
55,252.000,10.743242
56,253.000,-1.232242
57,254.000,3.920161
58,255.000,10.182444
59,256.000,-7.948807
60,257.000,-8.513275
61,258.000,8.681214
62,259.000,5.602622
63,260.000,-1.985751
64,261.000,3.127879
65,262.000,1.74449
66,263.000,7.151149
67,264.000,8.844766
68,265.000,-6.794243
69,266.000,2.65358
70,267.000,-3.850505
71,268.000,0.812109
72,269.000,13.524005
73,270.000,5.925569
74,271.000,-0.818324
75,272.000,16.633224
76,273.000,-5.596034
77,274.000,5.974708
78,275.000,2.062253
79,276.000,2.368034
80,277.000,-1.608156
81,278.000,8.467285
82,279.000,14.9004
83,280.000,-1.319566
84,281.000,2.623162
85,282.000,0.037243
86,283.000,-2.964448
87,284.000,-3.481615
88,285.000,-5.586346
89,286.000,0.437201
90,287.000,1.149502
91,288.000,0.275766
92,289.000,5.209426
93,290.000,-9.672444
94,291.000,-11.795268
95,292.000,-3.466755
96,293.000,-3.194779
97,294.000,18.221621
98,295.000,-8.505086
99,296.000,2.67384
100,297.000,-1.031348
101,298.000,-5.744244
102,299.000,-8.999995
103,300.000,1.302525
104,301.000,-1.771283
105,302.000,5.69879
106,303.000,1.080546
107,304.000,6.469645
108,305.000,-6.081035
109,306.000,0.086947
110,307.000,-1.595513
111,308.000,3.379232
112,309.000,-0.940577
113,310.000,3.691957
114,311.000,-4.656419
115,312.000,-11.099748
116,313.000,7.336762
117,314.000,-3.162206
118,315.000,-0.85259
119,316.000,2.858078
120,317.000,-0.186963
121,318.000,3.458788
122,319.000,1.322085
123,320.000,-3.67618
124,321.000,-9.388411
125,322.000,0.870197
126,323.000,5.01931
127,324.000,1.178344
128,325.000,13.252943
129,326.000,-7.454681
130,327.000,-3.78702
131,328.000,-10.724873
132,329.000,1.500524
133,330.000,7.633071
134,331.000,-0.400877
135,332.000,-3.511996
136,333.000,4.884612
137,334.000,-0.126044
138,335.000,10.178837
139,336.000,-0.981953
140,337.000,-10.248723
141,338.000,-2.313228
142,339.000,8.261967
143,340.000,3.00697
144,341.000,1.141012
145,342.000,-5.826666
146,343.000,-9.913737
147,344.000,2.351789
148,345.000,-2.037517
149,346.000,6.428329
150,347.000,-3.47984
151,348.000,5.067922
152,349.000,7.471368
153,350.000,-5.910473
154,351.000,5.656764
155,352.000,-1.683528
156,353.000,5.756344
157,354.000,-5.05671
158,355.000,-2.641687
159,356.000,8.039361
160,357.000,-6.577934
161,358.000,11.610728
162,359.000,0.269701
163,360.000,-2.570843
164,361.000,-11.451764
165,362.000,-4.315113
166,363.000,1.225956
167,364.000,-2.203125
168,365.000,-3.837999
169,366.000,-6.826563
170,367.000,0.105546
171,368.000,1.707355
172,369.000,-4.416472
173,370.000,9.838929
174,371.000,0.400616
175,372.000,-1.352795
176,373.000,-12.157764
177,374.000,2.314329
178,375.000,5.144202
179,376.000,3.307989
180,377.000,-0.214118
181,378.000,-2.259659
182,379.000,3.729563
183,380.000,-0.844893
184,381.000,4.939597
185,382.000,-2.618219
186,383.000,-8.554469
187,384.000,9.18647
188,385.000,5.773029
189,386.000,18.745916
190,387.000,-1.21285
191,388.000,2.094913
192,389.000,-1.202834
193,390.000,2.51018
194,391.000,-2.498321
195,392.000,2.398612
196,393.000,2.870937
197,394.000,-3.423154
198,395.000,-4.991256
199,396.000,4.033782
200,397.000,-3.356277
201,398.000,-1.414746
202,399.000,3.543244
203,400.000,-14.553775
204,401.000,-2.687398
205,402.000,5.929988
206,403.000,-5.658246
207,404.000,-7.078567
208,405.000,1.922841
209,406.000,8.068588
210,407.000,3.071777
211,408.000,1.901979
212,409.000,-4.586112
213,410.000,3.717221
214,411.000,9.154903
215,412.000,6.304185
216,413.000,-3.321355
217,414.000,-0.092866
218,415.000,6.157495
219,416.000,5.056257
220,417.000,-8.527771
221,418.000,0.018269
222,419.000,-10.673184
223,420.000,0.162966
224,421.000,-0.220786
225,422.000,-5.080945
226,423.000,-3.310049
227,424.000,3.016603
228,425.000,0.949553
229,426.000,4.497693
230,427.000,-8.719079
231,428.000,2.169722
232,429.000,-2.653569
233,430.000,-1.210601
234,431.000,-10.731928
235,432.000,3.931775
236,433.000,5.541827
237,434.000,4.787795
238,435.000,-10.286073
239,436.000,-4.152194
240,437.000,-1.808398
241,438.000,-4.608969
242,439.000,0.72817
243,440.000,-5.952378
244,441.000,-2.651463
245,442.000,4.138799
246,443.000,1.956835
247,444.000,-3.531657
248,445.000,0.977391
249,446.000,1.920385
250,447.000,-5.74503
251,448.000,-2.246825
252,449.000,-9.55428
253,450.000,5.200872
254,451.000,6.521621
255,452.000,-14.227262
256,453.000,0.711382
257,454.000,-7.531605
258,455.000,0.711493
259,456.000,-7.139425
260,457.000,-5.016051
261,458.000,-5.682101
262,459.000,3.013348
263,460.000,-8.12722
264,461.000,5.954172
265,462.000,-0.748482
266,463.000,-8.72003
267,464.000,-6.190654
268,465.000,2.150547
269,466.000,4.559735
270,467.000,9.647575
271,468.000,2.217025
272,469.000,5.171881
273,470.000,2.837125
274,471.000,8.932444
275,472.000,-4.119006
276,473.000,5.755809
277,474.000,1.03338
278,475.000,-10.071403
279,476.000,3.408096
280,477.000,-3.846811
281,478.000,-8.017913
282,479.000,-5.607442
283,480.000,5.259057
284,481.000,2.647782
285,482.000,3.141769
286,483.000,-3.99997
287,484.000,1.581359
288,485.000,-3.316322
289,486.000,0.473392
290,487.000,-0.110942
291,488.000,0.632506
292,489.000,1.409759
293,490.000,-7.548639
294,491.000,2.057932
295,492.000,-2.732089
296,493.000,1.687309
297,494.000,8.851756
298,495.000,-0.265176
299,496.000,1.095182
300,497.000,-6.891628
301,498.000,0.712813
302,499.000,-0.410761
303,500.000,-6.291955
304,501.000,-9.434142
305,502.000,-5.500899
306,503.000,5.111326
307,504.000,4.389963
308,505.000,-2.259896
309,506.000,0.080034
310,507.000,3.809598
311,508.000,-0.103825
312,509.000,-18.765402
313,510.000,2.037502
314,511.000,-6.040427
315,512.000,-1.500041
316,513.000,-0.012985
317,514.000,4.871538
318,515.000,3.405216
319,516.000,0.814466
320,517.000,3.578449
321,518.000,10.12192
322,519.000,-2.583715
323,520.000,-4.630684
324,521.000,0.19961
325,522.000,1.410563
326,523.000,-8.335175
327,524.000,-4.695347
328,525.000,0.38268
329,526.000,0.981113
330,527.000,-5.290577
331,528.000,6.431405
332,529.000,-1.039842
333,530.000,-1.482777
334,531.000,1.489042
335,532.000,1.210643
336,533.000,6.42248
337,534.000,7.927367
338,535.000,-15.416304
339,536.000,-9.194219
340,537.000,-7.249493
341,538.000,-4.754568
342,539.000,1.054569
343,540.000,7.300035
344,541.000,-7.734481
345,542.000,2.477222
346,543.000,-0.520518
347,544.000,3.417209
348,545.000,10.609187
349,546.000,-4.340514
350,547.000,2.200058
351,548.000,4.103382
352,549.000,2.859272
353,550.000,1.02533
354,551.000,-2.809441
355,552.000,1.359192
356,553.000,1.602178
357,554.000,0.219027
358,555.000,3.484438
359,556.000,0.178692
360,557.000,6.407073
361,558.000,7.387008
362,559.000,-4.514658
363,560.000,-1.288026
364,561.000,5.690245
365,562.000,-0.218758
366,563.000,1.602053
367,564.000,1.885654
368,565.000,4.980903
369,566.000,1.396926
370,567.000,-1.509055
371,568.000,10.137584
372,569.000,-7.067352
373,570.000,-7.231077
374,571.000,13.605887
375,572.000,1.678553
376,573.000,20.265787
377,574.000,12.347566
378,575.000,5.229523
379,576.000,14.324516
380,577.000,-6.54234
381,578.000,6.135896
382,579.000,9.900715
383,580.000,3.19725
384,581.000,0.047334
385,582.000,-10.7225
386,583.000,2.10727
387,584.000,3.576919
388,585.000,7.895533
389,586.000,2.308882
390,587.000,-1.305949
391,588.000,9.74408
392,589.000,-2.795881
393,590.000,15.450185
394,591.000,10.187678
395,592.000,8.785802
396,593.000,3.937591
397,594.000,4.952294
398,595.000,8.1878
399,596.000,5.982172
400,597.000,3.151224
401,598.000,1.611848
402,599.000,15.983384
403,600.000,12.164406
404,601.000,12.974905
405,602.000,10.616927
406,603.000,15.410305
407,604.000,18.366298
408,605.000,16.9254
409,606.000,28.821968
410,607.000,25.504404
411,608.000,20.75365
412,609.000,32.846086
413,610.000,45.95218
414,611.000,50.736505
415,612.000,61.002541
416,613.000,58.826781
417,614.000,91.041434
418,615.000,103.476131
419,616.000,117.879289
420,617.000,131.749656
421,618.000,155.561539
422,619.000,177.886183
423,620.000,179.052094
424,621.000,177.736524
425,622.000,147.99034
426,623.000,137.606477
427,624.000,105.681719
428,625.000,86.003331
429,626.000,79.801529
430,627.000,63.424283
431,628.000,48.41695
432,629.000,44.317271
433,630.000,33.257988
434,631.000,38.245382
435,632.000,33.083825
436,633.000,18.569834
437,634.000,21.630685
438,635.000,19.453285
439,636.000,19.807561
440,637.000,12.204693
441,638.000,19.114816
442,639.000,24.583855
443,640.000,28.378802
444,641.000,21.544659
445,642.000,21.058492
446,643.000,16.257809
447,644.000,12.482557
448,645.000,4.565992
449,646.000,9.308011
450,647.000,5.722145
451,648.000,0.982821
452,649.000,13.962872
453,650.000,10.354734
454,651.000,9.030456
455,652.000,6.355516
456,653.000,3.285859
457,654.000,7.903208
458,655.000,6.29279
459,656.000,-6.972718
460,657.000,1.695117
461,658.000,-1.915604
462,659.000,2.250786
463,660.000,5.375746
464,661.000,1.941255
465,662.000,1.42123
466,663.000,-8.149495
467,664.000,6.672442
468,665.000,4.864062
469,666.000,12.432987
470,667.000,-4.727945
471,668.000,-0.542572
472,669.000,-4.477322
473,670.000,2.500506
474,671.000,-8.114103
475,672.000,-6.337278
476,673.000,-1.883547
477,674.000,-3.624555
478,675.000,9.678729
479,676.000,0.72806
480,677.000,-1.473704
481,678.000,4.067784
482,679.000,11.859924
483,680.000,-9.016042
484,681.000,5.485242
485,682.000,-4.048226
486,683.000,7.03772
487,684.000,-4.389903
488,685.000,6.518362
489,686.000,3.962738
490,687.000,-4.762841
491,688.000,2.143493
492,689.000,2.57392
493,690.000,4.676127
494,691.000,-2.853488
495,692.000,3.374202
496,693.000,1.494735
497,694.000,5.539593
498,695.000,0.580017
499,696.000,1.71776
500,697.000,1.892443
501,698.000,4.627495
502,699.000,-1.941464
503,700.000,0.879614
504,701.000,-6.230109
505,702.000,-6.798617
506,703.000,1.958815
507,704.000,14.769365
508,705.000,5.338893
509,706.000,1.3233
510,707.000,5.588261
511,708.000,-1.619982
512,709.000,0.569349
513,710.000,4.791751
514,711.000,1.575872
515,712.000,-1.293402
516,713.000,7.061569
517,714.000,2.570814
518,715.000,20.832543
519,716.000,2.798695
520,717.000,2.36664
521,718.000,-5.579403
522,719.000,-2.042334
523,720.000,5.526137
524,721.000,-2.071397
525,722.000,-11.905127
526,723.000,10.398678
527,724.000,1.050858
528,725.000,-5.690287
529,726.000,3.833721
530,727.000,0.215041
531,728.000,9.322638
532,729.000,4.469504
533,730.000,-2.256129
534,731.000,-9.457933
535,732.000,-6.725744
536,733.000,7.929204
537,734.000,-1.319489
538,735.000,-9.870995
539,736.000,12.026838
540,737.000,-4.262998
541,738.000,4.242315
542,739.000,6.067174
543,740.000,7.87539
544,741.000,2.362045
545,742.000,1.083372
546,743.000,6.637761
547,744.000,-3.806495
548,745.000,2.217364
549,746.000,-12.167199
550,747.000,-6.589607
551,748.000,-9.169246
552,749.000,-0.515792
553,750.000,-2.836993
554,751.000,-2.215542
555,752.000,0.344839
556,753.000,3.139985
557,754.000,5.719718
558,755.000,0.177475
559,756.000,3.516851
560,757.000,8.017231
561,758.000,1.042749
562,759.000,7.664379
563,760.000,9.196976
564,761.000,8.583092
565,762.000,-1.958662
566,763.000,-0.382117
567,764.000,4.175704
568,765.000,0.460453
569,766.000,1.6454
570,767.000,8.001561
571,768.000,3.620214
572,769.000,8.995555
573,770.000,9.781203
574,771.000,8.070675
575,772.000,1.422706
576,773.000,16.565448
577,774.000,0.553852
578,775.000,6.869513
579,776.000,4.791863
580,777.000,22.019123
581,778.000,18.624549
582,779.000,10.037997
583,780.000,9.798394
584,781.000,35.068599
585,782.000,14.552623
586,783.000,25.825471
587,784.000,29.741656
588,785.000,34.83458
589,786.000,42.814141
590,787.000,37.073082
591,788.000,57.746065
592,789.000,59.49588
593,790.000,71.506158
594,791.000,75.348214
595,792.000,83.394342
596,793.000,94.359978
597,794.000,102.404597
598,795.000,97.731783
599,796.000,94.703366
600,797.000,87.500533
601,798.000,80.086142
602,799.000,71.364032
603,800.000,52.16421
604,801.000,50.253877
605,802.000,47.558132
606,803.000,45.707649
607,804.000,47.530532
608,805.000,34.852476
609,806.000,20.949208
610,807.000,21.308153
611,808.000,25.314061
612,809.000,18.244193
613,810.000,14.900173
614,811.000,15.763428
615,812.000,17.875936
616,813.000,12.172358
617,814.000,14.656519
618,815.000,9.928454
619,816.000,5.283277
620,817.000,8.683717
621,818.000,7.688196
622,819.000,12.622559
623,820.000,11.800089
624,821.000,6.744601
625,822.000,7.269565
626,823.000,3.9792
627,824.000,-5.648489
628,825.000,1.452429
629,826.000,-0.829548
630,827.000,9.558492
631,828.000,7.66913
632,829.000,10.224424
633,830.000,6.269916
634,831.000,12.968308
635,832.000,6.587855
636,833.000,10.197235
637,834.000,19.998625
638,835.000,11.227634
639,836.000,-1.643205
640,837.000,13.548656
641,838.000,1.539095
642,839.000,7.698485
643,840.000,-4.318652
644,841.000,-5.618569
645,842.000,3.329652
646,843.000,1.338709
647,844.000,4.27285
648,845.000,2.159409
649,846.000,1.179036
650,847.000,-1.912055
651,848.000,-3.10724
652,849.000,-2.505431
653,850.000,1.110902
654,851.000,-2.09824
655,852.000,-3.022022
656,853.000,4.462156
657,854.000,-1.667399
658,855.000,-1.006847
659,856.000,2.316303
660,857.000,-6.033092
661,858.000,-10.659518
662,859.000,-1.023678
663,860.000,-2.960299
664,861.000,-10.456984
665,862.000,0.789087
666,863.000,1.861182
667,864.000,-4.370677
668,865.000,-0.007772
669,866.000,3.101169
670,867.000,8.622876
671,868.000,-1.800335
672,869.000,4.243417
673,870.000,-1.1303
674,871.000,4.521651
675,872.000,-1.751199
676,873.000,6.663781
677,874.000,1.172294
678,875.000,10.244703
679,876.000,9.811492
680,877.000,8.75541
681,878.000,5.511282
682,879.000,-0.487858
683,880.000,-0.709261
684,881.000,-9.821036
685,882.000,-6.806676
686,883.000,-3.440413
687,884.000,4.107653
688,885.000,1.870002
689,886.000,13.395036
690,887.000,0.240777
691,888.000,3.589544
692,889.000,5.542063
693,890.000,1.20881
694,891.000,-8.235567
695,892.000,-9.275063
696,893.000,3.164825
697,894.000,-7.413428
698,895.000,-4.612706
699,896.000,8.894855
700,897.000,-0.951502
701,898.000,-5.908504
702,899.000,0.989999
703,900.000,-3.113407
704,901.000,5.781512
705,902.000,-3.061651
706,903.000,-4.004076
707,904.000,15.544993
708,905.000,0.904637
709,906.000,8.087542
710,907.000,9.317472
711,908.000,-3.70557
712,909.000,-5.141763
713,910.000,-6.469521
714,911.000,10.206743
715,912.000,4.311236
716,913.000,5.276131
717,914.000,-7.945368
718,915.000,-1.025213
719,916.000,1.079785
720,917.000,5.527825
721,918.000,-6.356074
722,919.000,-6.152471
723,920.000,1.07548
724,921.000,4.212435
725,922.000,5.799588
726,923.000,1.916614
727,924.000,7.597657
728,925.000,14.652592
729,926.000,13.156691
730,927.000,-3.082126
731,928.000,9.752265
732,929.000,4.744114
733,930.000,8.374637
734,931.000,7.637283
735,932.000,-5.689085
736,933.000,5.645892
737,934.000,4.682309
738,935.000,-1.799571
739,936.000,2.447232
740,937.000,4.39934
741,938.000,2.619912
742,939.000,11.879697
743,940.000,8.35075
744,941.000,-7.159227
745,942.000,7.428366
746,943.000,5.310906
747,944.000,5.315098
748,945.000,10.450671
749,946.000,11.51302
750,947.000,5.096869
751,948.000,1.649742
752,949.000,3.017773
753,950.000,9.72483
754,951.000,-0.834756
755,952.000,2.347343
756,953.000,3.662261
757,954.000,0.159373
758,955.000,6.378841
759,956.000,3.74857
760,957.000,1.985974
761,958.000,-7.01948
762,959.000,12.087754
763,960.000,-1.824658
764,961.000,1.369743
765,962.000,9.070456
766,963.000,21.677008
767,964.000,10.353772
768,965.000,9.354952
769,966.000,16.666419
770,967.000,1.754841
771,968.000,18.591505
772,969.000,5.659608
773,970.000,7.902958
774,971.000,25.844428
775,972.000,20.124137
776,973.000,18.518761
777,974.000,22.174827
778,975.000,20.146367
779,976.000,16.53922
780,977.000,25.783469
781,978.000,24.181478
782,979.000,14.406094
783,980.000,22.671891
784,981.000,30.190508
785,982.000,25.363959
786,983.000,25.206444
787,984.000,49.398288
788,985.000,52.768891
789,986.000,58.686077
790,987.000,61.304102
791,988.000,76.378318
792,989.000,86.169369
793,990.000,95.587308
794,991.000,120.333705
795,992.000,138.827845
796,993.000,170.997425
797,994.000,225.950136
798,995.000,283.893598
799,996.000,359.072716
800,997.000,470.532534
801,998.000,626.507409
802,999.000,821.722794
803,1000.000,968.527331
804,1001.000,1003.522655
805,1002.000,887.027703
806,1003.000,707.128024
807,1004.000,524.141439
808,1005.000,400.838046
809,1006.000,311.404221
810,1007.000,243.980812
811,1008.000,197.751017
812,1009.000,168.440308
813,1010.000,146.731342
814,1011.000,113.114305
815,1012.000,102.73884
816,1013.000,85.324519
817,1014.000,78.327801
818,1015.000,85.165089
819,1016.000,83.435832
820,1017.000,80.864311
821,1018.000,77.8968
822,1019.000,83.428029
823,1020.000,81.131462
824,1021.000,82.782735
825,1022.000,84.681421
826,1023.000,111.358856
827,1024.000,126.490803
828,1025.000,160.990654
829,1026.000,198.796875
830,1027.000,266.451573
831,1028.000,306.362814
832,1029.000,365.70081
833,1030.000,426.003553
834,1031.000,434.87887
835,1032.000,391.660978
836,1033.000,321.474633
837,1034.000,258.10219
838,1035.000,213.273492
839,1036.000,156.702347
840,1037.000,124.067832
841,1038.000,98.254623
842,1039.000,105.918277
843,1040.000,66.777628
844,1041.000,65.948596
845,1042.000,63.819905
846,1043.000,38.544018
847,1044.000,51.509195
848,1045.000,35.868231
849,1046.000,40.637143
850,1047.000,39.046312
851,1048.000,21.073596
852,1049.000,24.013609
853,1050.000,22.23861
854,1051.000,28.090953
855,1052.000,19.432368
856,1053.000,16.891926
857,1054.000,12.143586
858,1055.000,8.048953
859,1056.000,14.508533
860,1057.000,30.702253
861,1058.000,15.297933
862,1059.000,13.53787
863,1060.000,21.200057
864,1061.000,21.208566
865,1062.000,13.925108
866,1063.000,17.168062
867,1064.000,5.42234
868,1065.000,9.868219
869,1066.000,11.692928
870,1067.000,0.691984
871,1068.000,-1.529608
872,1069.000,18.999939
873,1070.000,16.294117
874,1071.000,15.624297
875,1072.000,2.160811
876,1073.000,11.61534
877,1074.000,11.677179
878,1075.000,-1.980588
879,1076.000,2.192424
880,1077.000,12.094168
881,1078.000,13.817264
882,1079.000,5.557656
883,1080.000,9.083721
884,1081.000,12.003742
885,1082.000,6.170297
886,1083.000,5.491176
887,1084.000,5.727432
888,1085.000,8.237371
889,1086.000,19.413177
890,1087.000,11.831166
891,1088.000,8.290977
892,1089.000,0.263915
893,1090.000,4.030109
894,1091.000,10.587812
895,1092.000,-0.078477
896,1093.000,-0.113353
897,1094.000,0.820144
898,1095.000,3.072202
899,1096.000,-3.927495
900,1097.000,3.278898
901,1098.000,3.635149
902,1099.000,-4.272659
903,1100.000,-1.072031
904,1101.000,12.581796
905,1102.000,4.109492
906,1103.000,1.921962
907,1104.000,7.433734
908,1105.000,-0.48205
909,1106.000,10.375567
910,1107.000,9.066846
911,1108.000,12.814002
912,1109.000,9.097092
913,1110.000,12.64899
914,1111.000,4.643433
915,1112.000,-1.377519
916,1113.000,7.377235
917,1114.000,-8.138907
918,1115.000,-0.536178
919,1116.000,15.063367
920,1117.000,10.534549
921,1118.000,-0.788399
922,1119.000,-0.749239
923,1120.000,12.066815
924,1121.000,-5.080835
925,1122.000,5.272675
926,1123.000,9.32955
927,1124.000,6.640736
928,1125.000,11.199428
929,1126.000,7.946178
930,1127.000,3.441074
931,1128.000,8.673758
932,1129.000,13.809463
933,1130.000,6.215552
934,1131.000,3.232206
935,1132.000,7.757143
936,1133.000,15.085212
937,1134.000,12.257654
938,1135.000,10.986129
939,1136.000,24.969043
940,1137.000,20.775978
941,1138.000,12.522864
942,1139.000,24.732618
943,1140.000,11.05112
944,1141.000,26.444939
945,1142.000,24.697311
946,1143.000,31.910061
947,1144.000,33.671893
948,1145.000,48.066124
949,1146.000,45.789687
950,1147.000,47.767569
951,1148.000,71.674866
952,1149.000,75.713145
953,1150.000,93.259
954,1151.000,88.060149
955,1152.000,123.548102
956,1153.000,131.437758
957,1154.000,152.588037
958,1155.000,152.656398
959,1156.000,141.236962
960,1157.000,143.151081
961,1158.000,118.737013
962,1159.000,91.748332
963,1160.000,86.418809
964,1161.000,64.032521
965,1162.000,54.049245
966,1163.000,53.853877
967,1164.000,59.813405
968,1165.000,41.536397
969,1166.000,38.786815
970,1167.000,37.267701
971,1168.000,42.251141
972,1169.000,41.687049
973,1170.000,49.877881
974,1171.000,27.001297
975,1172.000,38.795432
976,1173.000,46.729307
977,1174.000,51.37294
978,1175.000,51.497324
979,1176.000,46.25204
980,1177.000,63.946051
981,1178.000,77.948716
982,1179.000,91.988332
983,1180.000,93.937503
984,1181.000,115.002391
985,1182.000,126.975563
986,1183.000,117.666383
987,1184.000,107.802292
988,1185.000,95.975451
989,1186.000,90.34576
990,1187.000,77.984928
991,1188.000,63.296629
992,1189.000,55.584923
993,1190.000,46.83202
994,1191.000,35.816522
995,1192.000,31.623302
996,1193.000,36.182476
997,1194.000,27.396388
998,1195.000,22.001001
999,1196.000,24.519296
1000,1197.000,18.723348
1001,1198.000,31.736799
1002,1199.000,8.874789
1003,1200.000,3.690379
1004,1201.000,10.677827
1005,1202.000,5.81798
1006,1203.000,11.549555
1007,1204.000,10.713411
1008,1205.000,13.814012
1009,1206.000,4.266562
1010,1207.000,-1.869216
1011,1208.000,-1.505081
1012,1209.000,17.642337
1013,1210.000,6.674913
1014,1211.000,2.890243
1015,1212.000,6.363641
1016,1213.000,4.83427
1017,1214.000,9.855568
1018,1215.000,1.34775
1019,1216.000,7.524783
1020,1217.000,6.470185
1021,1218.000,0.334104
1022,1219.000,7.613878
1023,1220.000,14.178886
1024,1221.000,2.408682
1025,1222.000,6.313709
1026,1223.000,5.177793
1027,1224.000,0.348349
1028,1225.000,2.743297
1029,1226.000,2.746442
1030,1227.000,-1.475261
1031,1228.000,15.718587
1032,1229.000,2.521559
1033,1230.000,6.625788
1034,1231.000,8.439796
1035,1232.000,4.054385
1036,1233.000,4.362055
1037,1234.000,2.718872
1038,1235.000,-1.887563
1039,1236.000,5.369427
1040,1237.000,3.160546
1041,1238.000,1.900087
1042,1239.000,3.115726
1043,1240.000,3.466057
1044,1241.000,-5.578907
1045,1242.000,-2.197355
1046,1243.000,9.336428
1047,1244.000,6.930368
1048,1245.000,3.455992
1049,1246.000,-1.890311
1050,1247.000,2.108897
1051,1248.000,2.195531
1052,1249.000,11.385905
1053,1250.000,0.004983
1054,1251.000,-1.904846
1055,1252.000,1.567426
1056,1253.000,7.681354
1057,1254.000,3.231058
1058,1255.000,-3.328313
1059,1256.000,7.652371
1060,1257.000,0.076888
1061,1258.000,-0.385513
1062,1259.000,-4.950257
1063,1260.000,1.454217
1064,1261.000,7.005244
1065,1262.000,2.069288
1066,1263.000,-6.512926
1067,1264.000,-1.988667
1068,1265.000,2.055372
1069,1266.000,9.301495
1070,1267.000,4.857755
1071,1268.000,4.216574
1072,1269.000,-5.371817
1073,1270.000,5.953156
1074,1271.000,-1.599036
1075,1272.000,1.415839
1076,1273.000,2.200475
1077,1274.000,-1.997006
1078,1275.000,-9.963176
1079,1276.000,3.882115
1080,1277.000,5.316705
1081,1278.000,-1.690748
1082,1279.000,15.580437
1083,1280.000,11.229065
1084,1281.000,-8.14543
1085,1282.000,4.085495
1086,1283.000,-7.111611
1087,1284.000,-3.961447
1088,1285.000,-0.832888
1089,1286.000,4.194059
1090,1287.000,3.892858
1091,1288.000,-1.964671
1092,1289.000,-10.641777
1093,1290.000,-9.763221
1094,1291.000,6.733392
1095,1292.000,1.681934
1096,1293.000,2.312623
1097,1294.000,-1.660142
1098,1295.000,2.235381
1099,1296.000,4.749303
1100,1297.000,-2.783133
1101,1298.000,0.592855
1102,1299.000,4.533595
1103,1300.000,-3.782841
1104,1301.000,0.650647
1105,1302.000,-0.982942
1106,1303.000,11.715486
1107,1304.000,4.158685
1108,1305.000,5.834612
1109,1306.000,4.275805
1110,1307.000,-1.838453
1111,1308.000,5.102704
1112,1309.000,-0.766591
1113,1310.000,6.45703
1114,1311.000,-3.623666
1115,1312.000,6.812698
1116,1313.000,-2.742763
1117,1314.000,4.325418
1118,1315.000,-11.068328
1119,1316.000,3.030973
1120,1317.000,7.433938
1121,1318.000,13.24087
1122,1319.000,14.211433
1123,1320.000,10.490255
1124,1321.000,1.883341
1125,1322.000,-10.399275
1126,1323.000,-2.920477
1127,1324.000,-6.140622
1128,1325.000,-3.019866
1129,1326.000,4.533745
1130,1327.000,3.518464
1131,1328.000,-9.387911
1132,1329.000,-0.785703
1133,1330.000,22.305172
1134,1331.000,2.672908
1135,1332.000,12.645523
1136,1333.000,11.137614
1137,1334.000,-5.166799
1138,1335.000,1.975193
1139,1336.000,6.876344
1140,1337.000,1.636794
1141,1338.000,4.134803
1142,1339.000,-2.358288
1143,1340.000,2.467423
1144,1341.000,-10.292807
1145,1342.000,4.526893
1146,1343.000,-4.169271
1147,1344.000,-10.558845
1148,1345.000,14.414067
1149,1346.000,3.971004
1150,1347.000,5.673465
1151,1348.000,-0.649428
1152,1349.000,-3.57996
1153,1350.000,-0.011265
1154,1351.000,13.370037
1155,1352.000,7.88832
1156,1353.000,8.144209
1157,1354.000,8.677085
1158,1355.000,-1.999226
1159,1356.000,4.46579
1160,1357.000,0.569228
1161,1358.000,12.276673
1162,1359.000,-7.413867
1163,1360.000,3.481091
1164,1361.000,-4.019542
1165,1362.000,9.48318
1166,1363.000,8.529227
1167,1364.000,-0.671967
1168,1365.000,7.965651
1169,1366.000,-1.296742
1170,1367.000,-0.846305
1171,1368.000,-1.910673
1172,1369.000,2.951328
1173,1370.000,2.684521
1174,1371.000,11.125491
1175,1372.000,9.728079
1176,1373.000,0.169274
1177,1374.000,4.618894
1178,1375.000,-4.675119
1179,1376.000,4.366988
1180,1377.000,-1.631977
1181,1378.000,-7.200521
1182,1379.000,6.985566
1183,1380.000,-2.221027
1184,1381.000,0.352791
1185,1382.000,2.834933
1186,1383.000,3.578029
1187,1384.000,11.468521
1188,1385.000,-0.203681
1189,1386.000,1.452866
1190,1387.000,0.277448
1191,1388.000,0.417397
1192,1389.000,1.257429
1193,1390.000,-1.171511
1194,1391.000,5.624571
1195,1392.000,0.107334
1196,1393.000,15.306854
1197,1394.000,11.979429
1198,1395.000,10.338226
1199,1396.000,-2.062081
1200,1397.000,2.168473
1201,1398.000,0.434116
1202,1399.000,4.048559
1203,1400.000,12.663693
1204,1401.000,4.508448
1205,1402.000,-2.036614
1206,1403.000,13.125801
1207,1404.000,11.76479
1208,1405.000,-0.672593
1209,1406.000,18.352767
1210,1407.000,6.564582
1211,1408.000,3.882856
1212,1409.000,3.001457
1213,1410.000,16.762677
1214,1411.000,8.297225
1215,1412.000,20.933916
1216,1413.000,6.315843
1217,1414.000,8.202756
1218,1415.000,13.720907
1219,1416.000,11.022069
1220,1417.000,7.4909
1221,1418.000,11.314589
1222,1419.000,6.312581
1223,1420.000,22.542294
1224,1421.000,17.739153
1225,1422.000,15.976517
1226,1423.000,12.484086
1227,1424.000,24.518786
1228,1425.000,16.348245
1229,1426.000,35.281585
1230,1427.000,26.92267
1231,1428.000,25.959777
1232,1429.000,24.994323
1233,1430.000,28.115956
1234,1431.000,39.615421
1235,1432.000,26.387345
1236,1433.000,42.098958
1237,1434.000,39.763961
1238,1435.000,48.758879
1239,1436.000,66.105509
1240,1437.000,64.018861
1241,1438.000,68.342273
1242,1439.000,65.950211
1243,1440.000,84.637079
1244,1441.000,99.919416
1245,1442.000,109.375515
1246,1443.000,130.480344
1247,1444.000,138.465491
1248,1445.000,176.234962
1249,1446.000,182.308575
1250,1447.000,190.70855
1251,1448.000,201.544198
1252,1449.000,210.109702
1253,1450.000,208.776832
1254,1451.000,217.885624
1255,1452.000,197.588355
1256,1453.000,168.838641
1257,1454.000,179.405453
1258,1455.000,159.48509
1259,1456.000,125.945621
1260,1457.000,114.323116
1261,1458.000,106.046074
1262,1459.000,94.208241
1263,1460.000,82.986587
1264,1461.000,82.285063
1265,1462.000,71.162206
1266,1463.000,55.20192
1267,1464.000,54.795868
1268,1465.000,53.048506
1269,1466.000,34.047294
1270,1467.000,38.723693
1271,1468.000,29.763386
1272,1469.000,43.867453
1273,1470.000,31.005028
1274,1471.000,32.9908
1275,1472.000,20.336161
1276,1473.000,25.155688
1277,1474.000,25.476247
1278,1475.000,31.023011
1279,1476.000,19.232111
1280,1477.000,26.274783
1281,1478.000,19.515032
1282,1479.000,11.698777
1283,1480.000,19.514963
1284,1481.000,24.954339
1285,1482.000,9.338155
1286,1483.000,14.410049
1287,1484.000,3.513318
1288,1485.000,15.813351
1289,1486.000,15.321653
1290,1487.000,14.970344
1291,1488.000,8.099703
1292,1489.000,3.590959
1293,1490.000,1.947761
1294,1491.000,16.667696
1295,1492.000,2.633883
1296,1493.000,7.748628
1297,1494.000,9.170274
1298,1495.000,3.9649
1299,1496.000,2.783128
1300,1497.000,6.065369
1301,1498.000,7.161605
1302,1499.000,10.315689
1303,1500.000,9.27668
1304,1501.000,13.946238
1305,1502.000,18.237428
1306,1503.000,3.674456
1307,1504.000,10.666591
1308,1505.000,11.058545
1309,1506.000,9.627829
1310,1507.000,1.406523
1311,1508.000,6.667935
1312,1509.000,5.135683
1313,1510.000,10.471131
1314,1511.000,11.026048
1315,1512.000,1.4212
1316,1513.000,7.665774
1317,1514.000,4.073798
1318,1515.000,-1.009371
1319,1516.000,8.961974
1320,1517.000,2.865969
1321,1518.000,-0.57023
1322,1519.000,7.59343
1323,1520.000,21.20469
1324,1521.000,1.839219
1325,1522.000,19.135867
1326,1523.000,7.420687
1327,1524.000,5.534211
1328,1525.000,8.782876
1329,1526.000,13.209113
1330,1527.000,14.677926
1331,1528.000,14.115033
1332,1529.000,14.822072
1333,1530.000,7.751457
1334,1531.000,8.092757
1335,1532.000,1.887135
1336,1533.000,9.011385
1337,1534.000,4.336656
1338,1535.000,0.102072
1339,1536.000,11.215444
1340,1537.000,12.254127
1341,1538.000,14.947552
1342,1539.000,5.626334
1343,1540.000,6.92655
1344,1541.000,0.168533
1345,1542.000,-0.109778
1346,1543.000,13.167996
1347,1544.000,5.767273
1348,1545.000,17.836335
1349,1546.000,12.952353
1350,1547.000,17.422493
1351,1548.000,15.443097
1352,1549.000,22.338693
1353,1550.000,8.459596
1354,1551.000,13.101052
1355,1552.000,22.249919
1356,1553.000,7.387079
1357,1554.000,5.835598
1358,1555.000,16.116888
1359,1556.000,13.562241
1360,1557.000,12.20166
1361,1558.000,25.607596
1362,1559.000,19.004066
1363,1560.000,21.30493
1364,1561.000,25.588352
1365,1562.000,28.09548
1366,1563.000,28.175441
1367,1564.000,30.181777
1368,1565.000,39.337477
1369,1566.000,27.792855
1370,1567.000,21.122929
1371,1568.000,46.038354
1372,1569.000,51.01046
1373,1570.000,57.156957
1374,1571.000,62.309256
1375,1572.000,66.601237
1376,1573.000,73.539289
1377,1574.000,75.434498
1378,1575.000,90.37831
1379,1576.000,101.62736
1380,1577.000,122.440322
1381,1578.000,147.244418
1382,1579.000,167.384406
1383,1580.000,185.103683
1384,1581.000,198.361183
1385,1582.000,217.777025
1386,1583.000,243.242977
1387,1584.000,235.862172
1388,1585.000,202.633346
1389,1586.000,197.754276
1390,1587.000,189.714335
1391,1588.000,165.287962
1392,1589.000,165.539564
1393,1590.000,170.004245
1394,1591.000,158.065414
1395,1592.000,169.347475
1396,1593.000,185.20542
1397,1594.000,198.85347
1398,1595.000,235.810479
1399,1596.000,288.458007
1400,1597.000,330.679203
1401,1598.000,406.089116
1402,1599.000,485.776307
1403,1600.000,571.340978
1404,1601.000,634.9154
1405,1602.000,622.053836
1406,1603.000,585.284205
1407,1604.000,514.050568
1408,1605.000,428.6143
1409,1606.000,352.083521
1410,1607.000,272.377053
1411,1608.000,223.808365
1412,1609.000,173.937904
1413,1610.000,153.210327
1414,1611.000,127.092978
1415,1612.000,112.637385
1416,1613.000,88.689415
1417,1614.000,66.021271
1418,1615.000,92.84936
1419,1616.000,53.089234
1420,1617.000,51.397737
1421,1618.000,52.354978
1422,1619.000,46.74401
1423,1620.000,44.105893
1424,1621.000,31.693428
1425,1622.000,30.098606
1426,1623.000,40.082704
1427,1624.000,30.576047
1428,1625.000,36.487651
1429,1626.000,17.836375
1430,1627.000,24.058082
1431,1628.000,18.642247
1432,1629.000,25.938973
1433,1630.000,23.119034
1434,1631.000,18.610935
1435,1632.000,14.750563
1436,1633.000,25.831932
1437,1634.000,18.61461
1438,1635.000,15.342079
1439,1636.000,15.168566
1440,1637.000,15.617525
1441,1638.000,3.468803
1442,1639.000,28.563139
1443,1640.000,17.622146
1444,1641.000,11.290984
1445,1642.000,6.874537
1446,1643.000,0.24985
1447,1644.000,2.08883
1448,1645.000,16.587242
1449,1646.000,9.65924
1450,1647.000,12.942588
1451,1648.000,9.372834
1452,1649.000,12.974299
1453,1650.000,4.780428
1454,1651.000,6.190855
1455,1652.000,9.386852
1456,1653.000,9.999835
1457,1654.000,17.15898
1458,1655.000,7.459453
1459,1656.000,4.354633
1460,1657.000,10.233802
1461,1658.000,-0.54644
1462,1659.000,-0.693597
1463,1660.000,2.228934
1464,1661.000,6.844844
1465,1662.000,8.786487
1466,1663.000,9.425144
1467,1664.000,11.251738
1468,1665.000,16.120788
1469,1666.000,9.218956
1470,1667.000,5.283193
1471,1668.000,3.471625
1472,1669.000,5.252509
1473,1670.000,-11.003551
1474,1671.000,1.673122
1475,1672.000,-2.121099
1476,1673.000,-8.277376
1477,1674.000,-2.013295
1478,1675.000,5.486062
1479,1676.000,-0.582828
1480,1677.000,3.805305
1481,1678.000,3.503368
1482,1679.000,2.656662
1483,1680.000,-0.192283
1484,1681.000,4.748143
1485,1682.000,7.188763
1486,1683.000,12.740846
1487,1684.000,10.59792
1488,1685.000,-1.039286
1489,1686.000,-0.926724
1490,1687.000,7.766298
1491,1688.000,-0.928215
1492,1689.000,1.592058
1493,1690.000,-8.538313
1494,1691.000,0.048402
1495,1692.000,-1.164181
1496,1693.000,-3.171934
1497,1694.000,6.814829
1498,1695.000,6.699114
1499,1696.000,-1.267201
1500,1697.000,2.393486
1501,1698.000,-5.927591
1502,1699.000,-3.907731
1503,1700.000,6.000898
1504,1701.000,8.840748
1505,1702.000,8.128699
1506,1703.000,0.758907
1507,1704.000,0.313477
1508,1705.000,3.122946
1509,1706.000,-9.031123
1510,1707.000,9.872643
1511,1708.000,-7.39757
1512,1709.000,-5.922915
1513,1710.000,10.11697
1514,1711.000,5.790107
1515,1712.000,-2.585128
1516,1713.000,2.031004
1517,1714.000,7.927708
1518,1715.000,-5.545273
1519,1716.000,5.713812
1520,1717.000,-1.989557
1521,1718.000,7.206876
1522,1719.000,8.481153
1523,1720.000,4.025723
1524,1721.000,12.687755
1525,1722.000,4.382842
1526,1723.000,-1.283718
1527,1724.000,2.533438
1528,1725.000,-0.15687
1529,1726.000,-4.895192
1530,1727.000,5.579037
1531,1728.000,0.885597
1532,1729.000,-3.910378
1533,1730.000,-5.242901
1534,1731.000,-0.793101
1535,1732.000,-0.555681
1536,1733.000,-0.977126
1537,1734.000,-0.37948
1538,1735.000,4.320732
1539,1736.000,-8.956284
1540,1737.000,11.414348
1541,1738.000,-2.158919
1542,1739.000,5.885218
1543,1740.000,13.254409
1544,1741.000,5.942653
1545,1742.000,9.640158
1546,1743.000,0.032488
1547,1744.000,-4.268085
1548,1745.000,-7.213016
1549,1746.000,0.572337
1550,1747.000,-6.436894
1551,1748.000,3.978146
1552,1749.000,4.648593
1553,1750.000,0.385454
1554,1751.000,1.336558
1555,1752.000,3.216132
1556,1753.000,4.633115
1557,1754.000,-8.40711
1558,1755.000,-5.886836
1559,1756.000,-5.39208
1560,1757.000,-1.837836
1561,1758.000,1.080998
1562,1759.000,-8.496389
1563,1760.000,4.385404
1564,1761.000,-4.759318
1565,1762.000,3.853644
1566,1763.000,1.000187
1567,1764.000,3.192529
1568,1765.000,1.292734
1569,1766.000,-1.835978
1570,1767.000,-2.417608
1571,1768.000,-0.206748
1572,1769.000,10.182809
1573,1770.000,-8.007748
1574,1771.000,7.470964
1575,1772.000,-2.845623
1576,1773.000,3.542029
1577,1774.000,-0.819856
1578,1775.000,1.94515
1579,1776.000,-5.096278
1580,1777.000,2.754932
1581,1778.000,1.63132
1582,1779.000,-6.028158
1583,1780.000,5.211554
1584,1781.000,-2.217603
1585,1782.000,9.322637
1586,1783.000,7.33446
1587,1784.000,6.880565
1588,1785.000,4.312503
1589,1786.000,-7.84199
1590,1787.000,-3.002566
1591,1788.000,10.294493
1592,1789.000,4.530351
1593,1790.000,-7.515536
1594,1791.000,-1.146686
1595,1792.000,0.266722
1596,1793.000,-5.502625
1597,1794.000,16.37008
1598,1795.000,2.086349
1599,1796.000,3.600077
1600,1797.000,8.202578
1601,1798.000,-9.093989
1602,1799.000,2.377246
1603,1800.000,-0.433524
1604,1801.000,1.387699
1605,1802.000,7.668227
1606,1803.000,6.035296
1607,1804.000,-4.847159
1608,1805.000,-7.712818
1609,1806.000,-9.660039
1610,1807.000,2.762066
1611,1808.000,-2.973124
1612,1809.000,2.843931
1613,1810.000,2.931112
1614,1811.000,7.965744
1615,1812.000,11.738862
1616,1813.000,11.787011
1617,1814.000,-2.336883
1618,1815.000,-1.471701
1619,1816.000,-1.551511
1620,1817.000,1.071311
1621,1818.000,-0.301814
1622,1819.000,-6.906975
1623,1820.000,-4.121817
1624,1821.000,-3.071818
1625,1822.000,10.299181
1626,1823.000,0.781306
1627,1824.000,5.96863
1628,1825.000,-7.328785
1629,1826.000,-1.335585
1630,1827.000,-9.127385
1631,1828.000,2.420905
1632,1829.000,-4.916536
1633,1830.000,-4.952739
1634,1831.000,-0.293862
1635,1832.000,5.062944
1636,1833.000,7.400706
1637,1834.000,0.691286
1638,1835.000,6.449952
1639,1836.000,-5.596325
1640,1837.000,-0.365882
1641,1838.000,0.968548
1642,1839.000,-7.042377
1643,1840.000,-4.162159
1644,1841.000,5.484379
1645,1842.000,-6.784127
1646,1843.000,5.368692
1647,1844.000,-4.511257
1648,1845.000,7.989807
1649,1846.000,-7.791078
1650,1847.000,-2.933834
1651,1848.000,4.489606
1652,1849.000,5.199673
1653,1850.000,1.937948
1654,1851.000,-7.629797
1655,1852.000,1.630074
1656,1853.000,1.178014
1657,1854.000,0.685077
1658,1855.000,5.077268
1659,1856.000,8.131282
1660,1857.000,1.970217
1661,1858.000,-2.323786
1662,1859.000,7.273996
1663,1860.000,1.837046
1664,1861.000,1.729933
1665,1862.000,7.945601
1666,1863.000,0.068806
1667,1864.000,-4.006009
1668,1865.000,2.746568
1669,1866.000,0.393387
1670,1867.000,1.601821
1671,1868.000,5.009673
1672,1869.000,-4.321582
1673,1870.000,1.396193
1674,1871.000,5.004258
1675,1872.000,9.479968
1676,1873.000,1.589372
1677,1874.000,0.334909
1678,1875.000,1.067995
1679,1876.000,-4.883937
1680,1877.000,-0.867092
1681,1878.000,1.729137
1682,1879.000,3.299196
1683,1880.000,9.945455
1684,1881.000,-2.460122
1685,1882.000,-17.142259
1686,1883.000,-6.888967
1687,1884.000,-1.575638
1688,1885.000,6.326678
1689,1886.000,2.359299
1690,1887.000,17.872323
1691,1888.000,2.698756
1692,1889.000,3.888888
1693,1890.000,1.934087
1694,1891.000,-2.839451
1695,1892.000,-0.6398
1696,1893.000,-2.18798
1697,1894.000,2.857977
1698,1895.000,6.122893
1699,1896.000,7.009891
1700,1897.000,-2.4784
1701,1898.000,-0.751067
1702,1899.000,0.799815
1703,1900.000,6.434812
1704,1901.000,-5.863586
1705,1902.000,-6.788
1706,1903.000,-7.079069
1707,1904.000,-2.50916
1708,1905.000,8.404031
1709,1906.000,15.232739
1710,1907.000,-5.449837
1711,1908.000,-5.867851
1712,1909.000,5.593773
1713,1910.000,-0.816575
1714,1911.000,-4.131623
1715,1912.000,10.361671
1716,1913.000,18.886211
1717,1914.000,1.31479
1718,1915.000,7.310078
1719,1916.000,5.777312
1720,1917.000,-0.085276
1721,1918.000,-8.51516
1722,1919.000,2.825757
1723,1920.000,5.898082
1724,1921.000,-2.153028
1725,1922.000,-4.161981
1726,1923.000,-6.152048
1727,1924.000,3.873374
1728,1925.000,12.170995
1729,1926.000,1.459086
1730,1927.000,3.634316
1731,1928.000,2.479389
1732,1929.000,0.7389
1733,1930.000,2.895355
1734,1931.000,-3.873898
1735,1932.000,4.313589
1736,1933.000,13.07237
1737,1934.000,-1.2041
1738,1935.000,0.651706
1739,1936.000,1.038527
1740,1937.000,-4.536577
1741,1938.000,0.82605
1742,1939.000,-3.277939
1743,1940.000,2.513681
1744,1941.000,-13.913584
1745,1942.000,0.385794
1746,1943.000,-3.18277
1747,1944.000,-8.830442
1748,1945.000,4.644254
1749,1946.000,1.662408
1750,1947.000,0.765149
1751,1948.000,-1.451657
1752,1949.000,-6.047144
1753,1950.000,-7.49353
1754,1951.000,-16.86991
1755,1952.000,4.412159
1756,1953.000,-2.676489
1757,1954.000,-5.811179
1758,1955.000,-3.019913
1759,1956.000,-7.350235
1760,1957.000,7.517813
1761,1958.000,7.032621
1762,1959.000,1.032318
1763,1960.000,2.348936
1764,1961.000,-3.602678
1765,1962.000,-1.39105
1766,1963.000,1.092679
1767,1964.000,-4.413924
1768,1965.000,2.868552
1769,1966.000,2.773504
1770,1967.000,-0.363005
1771,1968.000,0.949879
1772,1969.000,1.703165
1773,1970.000,-8.07481
1774,1971.000,3.2967
1775,1972.000,-4.731322
1776,1973.000,3.602995
1777,1974.000,-0.2251
1778,1975.000,3.308084
1779,1976.000,2.542378
1780,1977.000,-11.43753
1781,1978.000,-6.976518
1782,1979.000,7.066009
1783,1980.000,5.697629
1784,1981.000,1.327561
1785,1982.000,-12.053014
1786,1983.000,4.270697
1787,1984.000,-1.455737
1788,1985.000,-14.846517
1789,1986.000,-2.140864
1790,1987.000,9.779713
1791,1988.000,5.09548
1792,1989.000,-2.909065
1793,1990.000,4.980819
1794,1991.000,-5.632717
1795,1992.000,-4.787186
1796,1993.000,2.475592
1797,1994.000,11.815019
1798,1995.000,0.881227
1799,1996.000,-1.778771
1800,1997.000,-12.556672
