raman_shift_cm-1,intensity
200.000000,0.008769635928
201.000000,0.009724004904
202.000000,0.0134011099
203.000000,0.01139218102
204.000000,0.006791315727
205.000000,0.01006392978
206.000000,0.008827636032
207.000000,0.01037205498
208.000000,0.006858646016
209.000000,0.01055879623
210.000000,0.01054624645
211.000000,0.01322697006
212.000000,0.0107092427
213.000000,0.01109728193
214.000000,0.007090192465
215.000000,0.01458212261
216.000000,0.006245613089
217.000000,0.01228074908
218.000000,0.009417579712
219.000000,0.00831633866
220.000000,0.008765306865
221.000000,0.008734094082
222.000000,0.01083874956
223.000000,0.009858503309
224.000000,0.01304401375
225.000000,0.006419915511
226.000000,0.01007321519
227.000000,0.008295520535
228.000000,0.01163163225
229.000000,0.005844026375
230.000000,0.009393017136
231.000000,0.01050101255
232.000000,0.007112391894
233.000000,0.0120516241
234.000000,0.01043888519
235.000000,0.01209543881
236.000000,0.01200036348
237.000000,0.008122554679
238.000000,0.008486943928
239.000000,0.009676143696
240.000000,0.01157900295
241.000000,0.01178529453
242.000000,0.008664268296
243.000000,0.008869523404
244.000000,0.008488553346
245.000000,0.008916005799
246.000000,0.009608920277
247.000000,0.009821423423
248.000000,0.01420157067
249.000000,0.009072824361
250.000000,0.009508474655
251.000000,0.01100337233
252.000000,0.00818036401
253.000000,0.009349554919
254.000000,0.01011374508
255.000000,0.01163570075
256.000000,0.007455681728
257.000000,0.01283095483
258.000000,0.009383407538
259.000000,0.01042746338
260.000000,0.01178311734
261.000000,0.01141083871
262.000000,0.01220803074
263.000000,0.01043627868
264.000000,0.01005097442
265.000000,0.01072347831
266.000000,0.008099412592
267.000000,0.01251954231
268.000000,0.008540721352
269.000000,0.007571334466
270.000000,0.01420497028
271.000000,0.009819595477
272.000000,0.007734570406
273.000000,0.01379769657
274.000000,0.009434071059
275.000000,0.01221798929
276.000000,0.008435203917
277.000000,0.009596967242
278.000000,0.00671781679
279.000000,0.006277347307
280.000000,0.008142709714
281.000000,0.00993985608
282.000000,0.01169226315
283.000000,0.01494909275
284.000000,0.008033288217
285.000000,0.01211545972
286.000000,0.008889064605
287.000000,0.009793057819
288.000000,0.00713610564
289.000000,0.00714089241
290.000000,0.008542320274
291.000000,0.007713400446
292.000000,0.01009289576
293.000000,0.008695361142
294.000000,0.01260217244
295.000000,0.01040720867
296.000000,0.01043203933
297.000000,0.01237682984
298.000000,0.01113858329
299.000000,0.01002809495
300.000000,0.009921719221
301.000000,0.00986167661
302.000000,0.01225742868
303.000000,0.01167056985
304.000000,0.01083665138
305.000000,0.01170289401
306.000000,0.009016591722
307.000000,0.01112812999
308.000000,0.007281846263
309.000000,0.01280148707
310.000000,0.01028747807
311.000000,0.01047460639
312.000000,0.01130703019
313.000000,0.01008928878
314.000000,0.009600940948
315.000000,0.01248917815
316.000000,0.01034156586
317.000000,0.008278780262
318.000000,0.01099010404
319.000000,0.006701211483
320.000000,0.01342300699
321.000000,0.009770133283
322.000000,0.01020464028
323.000000,0.01462889428
324.000000,0.01441732008
325.000000,0.01034593965
326.000000,0.01136455122
327.000000,0.01229567438
328.000000,0.01347985674
329.000000,0.009854132999
330.000000,0.01038734735
331.000000,0.01256660758
332.000000,0.0106569561
333.000000,0.01162737576
334.000000,0.0113386199
335.000000,0.007849606051
336.000000,0.008402081376
337.000000,0.00483782357
338.000000,0.00960080217
339.000000,0.01279926527
340.000000,0.007903728341
341.000000,0.01259030502
342.000000,0.01212235095
343.000000,0.01001413972
344.000000,0.0101091711
345.000000,0.01029063584
346.000000,0.00840337584
347.000000,0.009561473966
348.000000,0.01003359633
349.000000,0.01135119614
350.000000,0.01171154645
351.000000,0.008643050426
352.000000,0.01178056392
353.000000,0.008574013076
354.000000,0.00979254309
355.000000,0.01087001442
356.000000,0.0100863301
357.000000,0.00987835412
358.000000,0.01067180297
359.000000,0.009027972891
360.000000,0.008828895177
361.000000,0.009726661751
362.000000,0.012058101
363.000000,0.009932897219
364.000000,0.01394595713
365.000000,0.01056610846
366.000000,0.004189498585
367.000000,0.009259888885
368.000000,0.01346977159
369.000000,0.01015310889
370.000000,0.009265470533
371.000000,0.008394546011
372.000000,0.01279019578
373.000000,0.01214899095
374.000000,0.01148816061
375.000000,0.01100105115
376.000000,0.01302742359
377.000000,0.01178878587
378.000000,0.007687560713
379.000000,0.01168483545
380.000000,0.0104879958
381.000000,0.009928906338
382.000000,0.01167713313
383.000000,0.0102079491
384.000000,0.004284894012
385.000000,0.01326761612
386.000000,0.01222912471
387.000000,0.009909359893
388.000000,0.009410607644
389.000000,0.0106095694
390.000000,0.007588365764
391.000000,0.01077085498
392.000000,0.009698549294
393.000000,0.009453951162
394.000000,0.008314534995
395.000000,0.008804428952
396.000000,0.01237523362
397.000000,0.01283363253
398.000000,0.01117022681
399.000000,0.01007444829
400.000000,0.008410696459
401.000000,0.0116030033
402.000000,0.01339037225
403.000000,0.006940507271
404.000000,0.01251906069
405.000000,0.005840241463
406.000000,0.009492613292
407.000000,0.01094294354
408.000000,0.0074447954
409.000000,0.007141876034
410.000000,0.01054830577
411.000000,0.0119315021
412.000000,0.009228293057
413.000000,0.01286812384
414.000000,0.008621650116
415.000000,0.01369136553
416.000000,0.01042465549
417.000000,0.01065564938
418.000000,0.01141612629
419.000000,0.0108295358
420.000000,0.01388028526
421.000000,0.01460294899
422.000000,0.01128349262
423.000000,0.009861137885
424.000000,0.007841653001
425.000000,0.008686428781
426.000000,0.01021501564
427.000000,0.009995200106
428.000000,0.01011190705
429.000000,0.01021074578
430.000000,0.01119314154
431.000000,0.007502119839
432.000000,0.008153994466
433.000000,0.01245025864
434.000000,0.01188449325
435.000000,0.009137856942
436.000000,0.01280162063
437.000000,0.008859724205
438.000000,0.009710498425
439.000000,0.00656473857
440.000000,0.01191154605
441.000000,0.01020144334
442.000000,0.01236017944
443.000000,0.01164083439
444.000000,0.01042296378
445.000000,0.01055777735
446.000000,0.01263167036
447.000000,0.009919700862
448.000000,0.009946588208
449.000000,0.01039336918
450.000000,0.01187234323
451.000000,0.01211314513
452.000000,0.01410770494
453.000000,0.01012279135
454.000000,0.01281960158
455.000000,0.008993032804
456.000000,0.01151679177
457.000000,0.01056818334
458.000000,0.01379481257
459.000000,0.01154981207
460.000000,0.009440441112
461.000000,0.0114985412
462.000000,0.0110395251
463.000000,0.009717637242
464.000000,0.009766371614
465.000000,0.008471488777
466.000000,0.01587795992
467.000000,0.01063756699
468.000000,0.01231958191
469.000000,0.008042849473
470.000000,0.008205700648
471.000000,0.01007432907
472.000000,0.01008622859
473.000000,0.01199192031
474.000000,0.008382854071
475.000000,0.01147332395
476.000000,0.01342715473
477.000000,0.008571706949
478.000000,0.01222292938
479.000000,0.008485264685
480.000000,0.01110211582
481.000000,0.01113974501
482.000000,0.0138911936
483.000000,0.009038270381
484.000000,0.0107597528
485.000000,0.01251377259
486.000000,0.008085797353
487.000000,0.0104151933
488.000000,0.008696668386
489.000000,0.009036384852
490.000000,0.01180790668
491.000000,0.01184885989
492.000000,0.01560710099
493.000000,0.01320985648
494.000000,0.01303788162
495.000000,0.01012979793
496.000000,0.009865818364
497.000000,0.01074413753
498.000000,0.005923090326
499.000000,0.0137907659
500.000000,0.009136721766
501.000000,0.008360495222
502.000000,0.009566317507
503.000000,0.01223459971
504.000000,0.01297291269
505.000000,0.009734680544
506.000000,0.01136285039
507.000000,0.01037913008
508.000000,0.008503776143
509.000000,0.0108392957
510.000000,0.01055822891
511.000000,0.007431815878
512.000000,0.01271202989
513.000000,0.007372616833
514.000000,0.01098813787
515.000000,0.008425398755
516.000000,0.008902654461
517.000000,0.009131828349
518.000000,0.01195253492
519.000000,0.008040345666
520.000000,0.01017411463
521.000000,0.01366599012
522.000000,0.009176706067
523.000000,0.0105119981
524.000000,0.01191151706
525.000000,0.00942479465
526.000000,0.01154893903
527.000000,0.009285046572
528.000000,0.01201547918
529.000000,0.0107500387
530.000000,0.008762616673
531.000000,0.01346385006
532.000000,0.0104666287
533.000000,0.01010792385
534.000000,0.008829633335
535.000000,0.009751287666
536.000000,0.01051094495
537.000000,0.01106032771
538.000000,0.01292618896
539.000000,0.008107129601
540.000000,0.01005850588
541.000000,0.01316445099
542.000000,0.01115091588
543.000000,0.01161969211
544.000000,0.01400601644
545.000000,0.01151230437
546.000000,0.01178796855
547.000000,0.01079235456
548.000000,0.01442895654
549.000000,0.01301386408
550.000000,0.009492040479
551.000000,0.0120531154
552.000000,0.008682385485
553.000000,0.01317667301
554.000000,0.01236964828
555.000000,0.01073180026
556.000000,0.01027415481
557.000000,0.007515462615
558.000000,0.01266158763
559.000000,0.01093064627
560.000000,0.01057376666
561.000000,0.01267728564
562.000000,0.009936799339
563.000000,0.01013000561
564.000000,0.009954140807
565.000000,0.00867782932
566.000000,0.01624714119
567.000000,0.01108546629
568.000000,0.01082333484
569.000000,0.0133772979
570.000000,0.005332874015
571.000000,0.01162847123
572.000000,0.01177736414
573.000000,0.009874176069
574.000000,0.01280548966
575.000000,0.00790605569
576.000000,0.01204032045
577.000000,0.01386824963
578.000000,0.007730528375
579.000000,0.009358116793
580.000000,0.01202441311
581.000000,0.01239304442
582.000000,0.01123358825
583.000000,0.01336191234
584.000000,0.01324983104
585.000000,0.01020614006
586.000000,0.01285746743
587.000000,0.01067690227
588.000000,0.009265057761
589.000000,0.008804811762
590.000000,0.0159198372
591.000000,0.0138694787
592.000000,0.01833381269
593.000000,0.01181962685
594.000000,0.01440253535
595.000000,0.01620179798
596.000000,0.01570216077
597.000000,0.01751656413
598.000000,0.01740271426
599.000000,0.01656016194
600.000000,0.01390488359
601.000000,0.01755933442
602.000000,0.02393700828
603.000000,0.02323451644
604.000000,0.0258742598
605.000000,0.02362404433
606.000000,0.02641536005
607.000000,0.02745847755
608.000000,0.0329359815
609.000000,0.03589937567
610.000000,0.0411954524
611.000000,0.04950940386
612.000000,0.05158173161
613.000000,0.06410646738
614.000000,0.07199370048
615.000000,0.09276410073
616.000000,0.1096751781
617.000000,0.1344812503
618.000000,0.16059541
619.000000,0.1848385687
620.000000,0.1899548379
621.000000,0.1805535695
622.000000,0.1579620466
623.000000,0.1351912527
624.000000,0.1088674372
625.000000,0.08957344678
626.000000,0.07477888424
627.000000,0.06401118492
628.000000,0.0518677551
629.000000,0.04737757709
630.000000,0.04389248758
631.000000,0.03286643165
632.000000,0.03496112817
633.000000,0.03361522541
634.000000,0.02572290657
635.000000,0.02614369377
636.000000,0.020502035
637.000000,0.02252561471
638.000000,0.01999827412
639.000000,0.02023474546
640.000000,0.01690226616
641.000000,0.01632246581
642.000000,0.01639703676
643.000000,0.01527383095
644.000000,0.01493373582
645.000000,0.01529971399
646.000000,0.01306649118
647.000000,0.01462348263
648.000000,0.01554495118
649.000000,0.009652795996
650.000000,0.01440362784
651.000000,0.01226839637
652.000000,0.0112936279
653.000000,0.01063585377
654.000000,0.01143397115
655.000000,0.01146912631
656.000000,0.01349089147
657.000000,0.01012864017
658.000000,0.01460774586
659.000000,0.01076454671
660.000000,0.01366110161
661.000000,0.01437090082
662.000000,0.009659058625
663.000000,0.01416915432
664.000000,0.01633610361
665.000000,0.01102762718
666.000000,0.01303233116
667.000000,0.01156348466
668.000000,0.0119429773
669.000000,0.01136173461
670.000000,0.01069638873
671.000000,0.01311641983
672.000000,0.01339899933
673.000000,0.0116019486
674.000000,0.01460126299
675.000000,0.01372265124
676.000000,0.01292376683
677.000000,0.01005393861
678.000000,0.01527035189
679.000000,0.01408574748
680.000000,0.007120056614
681.000000,0.009179308389
682.000000,0.01041990262
683.000000,0.01323374256
684.000000,0.01382793169
685.000000,0.01074447887
686.000000,0.01179891089
687.000000,0.01268679716
688.000000,0.008729241577
689.000000,0.01244905119
690.000000,0.01064226494
691.000000,0.01161395445
692.000000,0.01113717206
693.000000,0.008862321462
694.000000,0.009225003931
695.000000,0.01129067726
696.000000,0.01145899785
697.000000,0.01066579737
698.000000,0.01331217715
699.000000,0.01046390399
700.000000,0.008741403763
701.000000,0.01048075428
702.000000,0.01081797582
703.000000,0.01090367746
704.000000,0.01349108252
705.000000,0.01218444046
706.000000,0.01327196183
707.000000,0.0124115978
708.000000,0.01083598506
709.000000,0.01324358944
710.000000,0.01065073988
711.000000,0.01167321567
712.000000,0.009178463521
713.000000,0.01138974517
714.000000,0.01054488362
715.000000,0.01194551405
716.000000,0.01484327552
717.000000,0.01596226619
718.000000,0.01326748888
719.000000,0.01118183269
720.000000,0.0129029505
721.000000,0.01172295948
722.000000,0.01006135489
723.000000,0.01116464147
724.000000,0.01080483996
725.000000,0.01011220033
726.000000,0.0140986277
727.000000,0.01027451301
728.000000,0.01037999159
729.000000,0.01280135697
730.000000,0.0100267436
731.000000,0.009138715973
732.000000,0.009760350178
733.000000,0.01245264704
734.000000,0.01226901241
735.000000,0.01214355401
736.000000,0.01064769152
737.000000,0.009782698052
738.000000,0.01345823723
739.000000,0.008789266217
740.000000,0.0112959217
741.000000,0.00911153158
742.000000,0.01099476824
743.000000,0.01154888576
744.000000,0.01436048578
745.000000,0.00622269935
746.000000,0.01474861911
747.000000,0.01030756616
748.000000,0.01273277069
749.000000,0.01382369523
750.000000,0.01075729835
751.000000,0.01218998377
752.000000,0.01343664381
753.000000,0.01229380022
754.000000,0.01116566165
755.000000,0.01312061968
756.000000,0.01307527028
757.000000,0.009979453705
758.000000,0.01582595511
759.000000,0.01370234619
760.000000,0.008559412391
761.000000,0.01190948929
762.000000,0.01719174354
763.000000,0.01712506816
764.000000,0.01470620408
765.000000,0.011032015
766.000000,0.01418629423
767.000000,0.01706731021
768.000000,0.01605316893
769.000000,0.01495124567
770.000000,0.01453607327
771.000000,0.01809797198
772.000000,0.01651319095
773.000000,0.01813828336
774.000000,0.01910112241
775.000000,0.02210815395
776.000000,0.02000810482
777.000000,0.02109226521
778.000000,0.01807673482
779.000000,0.02512975904
780.000000,0.02614881767
781.000000,0.02606728254
782.000000,0.02359475896
783.000000,0.02945286527
784.000000,0.03366253012
785.000000,0.04125013817
786.000000,0.04253413493
787.000000,0.04817262968
788.000000,0.0545799541
789.000000,0.0632586404
790.000000,0.06733151877
791.000000,0.07811326395
792.000000,0.08822273856
793.000000,0.1000169817
794.000000,0.1071752016
795.000000,0.110792111
796.000000,0.1058315812
797.000000,0.1007733601
798.000000,0.08887869304
799.000000,0.08405538728
800.000000,0.06854702826
801.000000,0.06569703993
802.000000,0.05621978206
803.000000,0.04419719303
804.000000,0.04328417507
805.000000,0.03828623277
806.000000,0.03045666565
807.000000,0.03182191455
808.000000,0.02798472036
809.000000,0.02682253439
810.000000,0.02269424373
811.000000,0.0228170105
812.000000,0.02251803424
813.000000,0.02025305673
814.000000,0.01846964591
815.000000,0.0185621147
816.000000,0.01620925869
817.000000,0.01823617339
818.000000,0.01187465822
819.000000,0.01953511513
820.000000,0.01621059748
821.000000,0.01664584691
822.000000,0.01706131775
823.000000,0.01254898837
824.000000,0.0193182575
825.000000,0.01225783872
826.000000,0.01520531257
827.000000,0.01471045715
828.000000,0.01649653857
829.000000,0.01367073839
830.000000,0.01070196245
831.000000,0.01402871117
832.000000,0.008300101966
833.000000,0.01271227147
834.000000,0.01207592292
835.000000,0.01601552152
836.000000,0.01222782617
837.000000,0.0117935688
838.000000,0.01109225622
839.000000,0.01081405779
840.000000,0.01134453171
841.000000,0.01358384181
842.000000,0.009676251477
843.000000,0.01183797193
844.000000,0.009267651899
845.000000,0.01181211943
846.000000,0.01242370341
847.000000,0.009577455087
848.000000,0.01085733923
849.000000,0.01217277295
850.000000,0.013469266
851.000000,0.01379487175
852.000000,0.01163027063
853.000000,0.009818664811
854.000000,0.008535084739
855.000000,0.01332798989
856.000000,0.01453705614
857.000000,0.01245060429
858.000000,0.01483382856
859.000000,0.0107661647
860.000000,0.01087161497
861.000000,0.01478940153
862.000000,0.009601127161
863.000000,0.01282391748
864.000000,0.01237249836
865.000000,0.0118939186
866.000000,0.01505027162
867.000000,0.009801992898
868.000000,0.01069771568
869.000000,0.007353908736
870.000000,0.009438614272
871.000000,0.01050641254
872.000000,0.01075312564
873.000000,0.01111973717
874.000000,0.01212528445
875.000000,0.01018124811
876.000000,0.007543800143
877.000000,0.01182612445
878.000000,0.01236622852
879.000000,0.00918741158
880.000000,0.009941014432
881.000000,0.01506280214
882.000000,0.01359123754
883.000000,0.01371844142
884.000000,0.01288141443
885.000000,0.01183497124
886.000000,0.01052042829
887.000000,0.01270268945
888.000000,0.01116049857
889.000000,0.01068197953
890.000000,0.01155327277
891.000000,0.01142311442
892.000000,0.01338296566
893.000000,0.009676235396
894.000000,0.01662917034
895.000000,0.009602593934
896.000000,0.01078282695
897.000000,0.0135533117
898.000000,0.009986613498
899.000000,0.01071608002
900.000000,0.01175774333
901.000000,0.005749673828
902.000000,0.01071526118
903.000000,0.009813158127
904.000000,0.01127697394
905.000000,0.01279877479
906.000000,0.01310318843
907.000000,0.01486209428
908.000000,0.01476630524
909.000000,0.01396753241
910.000000,0.01183310973
911.000000,0.01403963255
912.000000,0.009962792588
913.000000,0.01180131864
914.000000,0.01492478273
915.000000,0.01365023437
916.000000,0.009274309876
917.000000,0.01093049094
918.000000,0.01398330328
919.000000,0.01343966717
920.000000,0.01440843825
921.000000,0.008715198321
922.000000,0.009766800399
923.000000,0.01185900876
924.000000,0.01044480808
925.000000,0.01239596465
926.000000,0.01253465237
927.000000,0.0132607313
928.000000,0.01235360253
929.000000,0.01380711559
930.000000,0.01430401201
931.000000,0.01310461308
932.000000,0.01039596493
933.000000,0.01552644161
934.000000,0.01343194497
935.000000,0.01391922332
936.000000,0.01348611634
937.000000,0.009972600691
938.000000,0.01446524017
939.000000,0.01206313272
940.000000,0.01101450796
941.000000,0.01615580945
942.000000,0.01304797446
943.000000,0.01434776615
944.000000,0.01567038805
945.000000,0.01724826386
946.000000,0.01045668931
947.000000,0.01273658574
948.000000,0.01572915246
949.000000,0.01316162983
950.000000,0.008087015944
951.000000,0.01510403714
952.000000,0.01543473113
953.000000,0.01675770455
954.000000,0.01580936547
955.000000,0.01465839489
956.000000,0.01619053831
957.000000,0.01591679813
958.000000,0.01521116822
959.000000,0.01700388064
960.000000,0.0174814848
961.000000,0.01502116787
962.000000,0.01944948526
963.000000,0.01939327329
964.000000,0.0196809443
965.000000,0.0129657385
966.000000,0.01916528858
967.000000,0.01914914026
968.000000,0.01789348396
969.000000,0.02163684938
970.000000,0.01804723629
971.000000,0.02422519935
972.000000,0.0232585347
973.000000,0.02227530537
974.000000,0.02706059479
975.000000,0.02612248874
976.000000,0.02698344858
977.000000,0.02493974364
978.000000,0.03003361938
979.000000,0.03340651976
980.000000,0.03460921339
981.000000,0.03187415965
982.000000,0.0396752739
983.000000,0.04289554249
984.000000,0.04463904938
985.000000,0.0460212068
986.000000,0.04837435224
987.000000,0.05512236834
988.000000,0.06256725766
989.000000,0.07267543351
990.000000,0.08378320768
991.000000,0.09466405913
992.000000,0.110453687
993.000000,0.1363805108
994.000000,0.1666082315
995.000000,0.2170008427
996.000000,0.2767631033
997.000000,0.3757455553
998.000000,0.5167056431
999.000000,0.705663186
1000.000000,0.9176732785
1001.000000,1.015713733
1002.000000,0.9147888275
1003.000000,0.7072150382
1004.000000,0.5175133083
1005.000000,0.3799895508
1006.000000,0.279299984
1007.000000,0.2203320722
1008.000000,0.17472157
1009.000000,0.1424789758
1010.000000,0.1214896987
1011.000000,0.1053802678
1012.000000,0.09325262824
1013.000000,0.08611980171
1014.000000,0.07618458225
1015.000000,0.07742981443
1016.000000,0.07232539061
1017.000000,0.06784652337
1018.000000,0.06508609942
1019.000000,0.07030532248
1020.000000,0.07251322412
1021.000000,0.07974726828
1022.000000,0.08704947573
1023.000000,0.1000176941
1024.000000,0.1109020793
1025.000000,0.1340566658
1026.000000,0.1619142724
1027.000000,0.2049709636
1028.000000,0.2678757464
1029.000000,0.3381654448
1030.000000,0.4091590081
1031.000000,0.4396817553
1032.000000,0.4087415882
1033.000000,0.3370417488
1034.000000,0.2605947221
1035.000000,0.1980693383
1036.000000,0.1566396268
1037.000000,0.1224173124
1038.000000,0.1003688287
1039.000000,0.08467070754
1040.000000,0.07213480501
1041.000000,0.05732863369
1042.000000,0.05796266845
1043.000000,0.0502153134
1044.000000,0.04774399747
1045.000000,0.04503040546
1046.000000,0.03482982903
1047.000000,0.03289456745
1048.000000,0.03225618338
1049.000000,0.03170535407
1050.000000,0.02711165971
1051.000000,0.02605918553
1052.000000,0.02759953918
1053.000000,0.02253217222
1054.000000,0.02376905903
1055.000000,0.02465678458
1056.000000,0.02115951006
1057.000000,0.02255958423
1058.000000,0.02012547843
1059.000000,0.01658595721
1060.000000,0.0181717209
1061.000000,0.01838611762
1062.000000,0.01768452397
1063.000000,0.01801806027
1064.000000,0.01840305453
1065.000000,0.01785193422
1066.000000,0.01732076106
1067.000000,0.01580268231
1068.000000,0.01596668884
1069.000000,0.01541158828
1070.000000,0.01475184369
1071.000000,0.01849477321
1072.000000,0.01170176495
1073.000000,0.01581436329
1074.000000,0.01187515082
1075.000000,0.01380027358
1076.000000,0.0164657933
1077.000000,0.01414118559
1078.000000,0.01739732896
1079.000000,0.0125472557
1080.000000,0.01374446053
1081.000000,0.01295626011
1082.000000,0.01415143752
1083.000000,0.01339933525
1084.000000,0.01317743202
1085.000000,0.01403140486
1086.000000,0.01600163584
1087.000000,0.01400815268
1088.000000,0.01374975502
1089.000000,0.01298620609
1090.000000,0.01208945093
1091.000000,0.01055114346
1092.000000,0.01130477366
1093.000000,0.01343266842
1094.000000,0.009483745434
1095.000000,0.01461182012
1096.000000,0.01242256587
1097.000000,0.01136036813
1098.000000,0.01213297974
1099.000000,0.01454122469
1100.000000,0.01395728924
1101.000000,0.01375501504
1102.000000,0.01678734753
1103.000000,0.01798799047
1104.000000,0.01075403798
1105.000000,0.01515020161
1106.000000,0.01189407226
1107.000000,0.01071823522
1108.000000,0.0124895073
1109.000000,0.0156615358
1110.000000,0.01307355057
1111.000000,0.01282176391
1112.000000,0.01669992169
1113.000000,0.01499548634
1114.000000,0.01391838521
1115.000000,0.01783712768
1116.000000,0.01529419633
1117.000000,0.01298192727
1118.000000,0.01239302953
1119.000000,0.01387981495
1120.000000,0.01522511292
1121.000000,0.01694846268
1122.000000,0.01694089032
1123.000000,0.01567404815
1124.000000,0.01330465238
1125.000000,0.01777034185
1126.000000,0.01634746178
1127.000000,0.01425134069
1128.000000,0.01428159397
1129.000000,0.01756539367
1130.000000,0.01821452827
1131.000000,0.01960260289
1132.000000,0.01601742196
1133.000000,0.02290597051
1134.000000,0.01603923636
1135.000000,0.02036398797
1136.000000,0.02400092971
1137.000000,0.0243894669
1138.000000,0.02151318122
1139.000000,0.02601429792
1140.000000,0.02885009951
1141.000000,0.02973859618
1142.000000,0.02852380449
1143.000000,0.03658895016
1144.000000,0.03326805823
1145.000000,0.04072567949
1146.000000,0.04357140645
1147.000000,0.05125025239
1148.000000,0.0595040953
1149.000000,0.07135286529
1150.000000,0.08053206258
1151.000000,0.09900785659
1152.000000,0.1188940145
1153.000000,0.1343397036
1154.000000,0.1493703279
1155.000000,0.154715035
1156.000000,0.1471709383
1157.000000,0.1342377843
1158.000000,0.1175991068
1159.000000,0.1011888775
1160.000000,0.0892970093
1161.000000,0.07625541769
1162.000000,0.06238433602
1163.000000,0.05498588735
1164.000000,0.04808760887
1165.000000,0.04112454695
1166.000000,0.04519815005
1167.000000,0.04129513169
1168.000000,0.03472929341
1169.000000,0.03780680461
1170.000000,0.04230066555
1171.000000,0.03893535377
1172.000000,0.04006787702
1173.000000,0.04134429263
1174.000000,0.04221102832
1175.000000,0.04539911426
1176.000000,0.05160509349
1177.000000,0.06105630666
1178.000000,0.07021276941
1179.000000,0.08494539343
1180.000000,0.1026973549
1181.000000,0.1170826982
1182.000000,0.1313728904
1183.000000,0.1342945622
1184.000000,0.12645379
1185.000000,0.1190510395
1186.000000,0.09877470346
1187.000000,0.08344456454
1188.000000,0.06675807275
1189.000000,0.05340060023
1190.000000,0.05123421864
1191.000000,0.0377962827
1192.000000,0.03683692076
1193.000000,0.03216634241
1194.000000,0.0305737241
1195.000000,0.02924501358
1196.000000,0.02720668956
1197.000000,0.01958266212
1198.000000,0.02442633922
1199.000000,0.01735991956
1200.000000,0.02156889013
1201.000000,0.01843579608
1202.000000,0.01626552551
1203.000000,0.01683680254
1204.000000,0.01465573095
1205.000000,0.01680377373
1206.000000,0.01828853503
1207.000000,0.01760471657
1208.000000,0.0157100651
1209.000000,0.01753219779
1210.000000,0.01603354071
1211.000000,0.01912532455
1212.000000,0.01555959237
1213.000000,0.01308040639
1214.000000,0.01350059498
1215.000000,0.01236357605
1216.000000,0.01314455273
1217.000000,0.01328721256
1218.000000,0.01483007794
1219.000000,0.01488944622
1220.000000,0.01328692612
1221.000000,0.01392728739
1222.000000,0.01145800446
1223.000000,0.01174053344
1224.000000,0.007753115999
1225.000000,0.0110930846
1226.000000,0.01157757854
1227.000000,0.01773594245
1228.000000,0.009686727089
1229.000000,0.0125029539
1230.000000,0.01162880045
1231.000000,0.009033713892
1232.000000,0.01271712051
1233.000000,0.01215636274
1234.000000,0.009108846142
1235.000000,0.007288543487
1236.000000,0.01186657696
1237.000000,0.009030591248
1238.000000,0.01327094287
1239.000000,0.01130177477
1240.000000,0.01291314267
1241.000000,0.01117656468
1242.000000,0.01490520085
1243.000000,0.01314575717
1244.000000,0.01481873097
1245.000000,0.01193044347
1246.000000,0.009585686895
1247.000000,0.00875842551
1248.000000,0.01059894363
1249.000000,0.01219301774
1250.000000,0.01029980903
1251.000000,0.01656048281
1252.000000,0.01141558452
1253.000000,0.01246735231
1254.000000,0.01168775052
1255.000000,0.00894114152
1256.000000,0.01364768525
1257.000000,0.01279963298
1258.000000,0.01322988424
1259.000000,0.009552728962
1260.000000,0.01148406043
1261.000000,0.01135533098
1262.000000,0.01381275094
1263.000000,0.008597850836
1264.000000,0.01278181056
1265.000000,0.01399154202
1266.000000,0.01053984561
1267.000000,0.009728742419
1268.000000,0.01408862637
1269.000000,0.01187641232
1270.000000,0.01367873409
1271.000000,0.01290743506
1272.000000,0.01354916127
1273.000000,0.01098844839
1274.000000,0.007019126517
1275.000000,0.01256720401
1276.000000,0.009945871798
1277.000000,0.01260408663
1278.000000,0.01026042529
1279.000000,0.01466451569
1280.000000,0.0108266826
1281.000000,0.01302431807
1282.000000,0.0135958888
1283.000000,0.01115920724
1284.000000,0.01198603209
1285.000000,0.01128114421
1286.000000,0.009415456529
1287.000000,0.01432185878
1288.000000,0.009427799164
1289.000000,0.008090502055
1290.000000,0.01025418796
1291.000000,0.01155047744
1292.000000,0.0114179725
1293.000000,0.01058072445
1294.000000,0.01034413518
1295.000000,0.006878728643
1296.000000,0.01254619961
1297.000000,0.0148192317
1298.000000,0.00976466234
1299.000000,0.007564394396
1300.000000,0.01278829438
1301.000000,0.01090395212
1302.000000,0.003075043146
1303.000000,0.0097106624
1304.000000,0.008267342911
1305.000000,0.00884615141
1306.000000,0.01536212979
1307.000000,0.01330559835
1308.000000,0.0109555705
1309.000000,0.01132300358
1310.000000,0.01454062707
1311.000000,0.009046479315
1312.000000,0.01284097524
1313.000000,0.01000683096
1314.000000,0.01305414023
1315.000000,0.0117962363
1316.000000,0.009807453385
1317.000000,0.01354720592
1318.000000,0.01248270701
1319.000000,0.01516381445
1320.000000,0.01053829594
1321.000000,0.01166958129
1322.000000,0.00996636537
1323.000000,0.01391660355
1324.000000,0.009840406514
1325.000000,0.01137828196
1326.000000,0.01411438171
1327.000000,0.0125210353
1328.000000,0.01203423187
1329.000000,0.01199332129
1330.000000,0.01215334978
1331.000000,0.01279930503
1332.000000,0.01084137188
1333.000000,0.007369302859
1334.000000,0.01424889221
1335.000000,0.009309054789
1336.000000,0.01531835739
1337.000000,0.01211454341
1338.000000,0.01810983079
1339.000000,0.01398779088
1340.000000,0.01243893777
1341.000000,0.01348234816
1342.000000,0.008701213746
1343.000000,0.01196837323
1344.000000,0.01086337176
1345.000000,0.0116658152
1346.000000,0.007398754195
1347.000000,0.007102348081
1348.000000,0.01315454384
1349.000000,0.01177444636
1350.000000,0.01077056224
1351.000000,0.01151056505
1352.000000,0.01036923938
1353.000000,0.01074209299
1354.000000,0.01317578374
1355.000000,0.01129062425
1356.000000,0.0132487812
1357.000000,0.01035296661
1358.000000,0.008086958389
1359.000000,0.01050018826
1360.000000,0.01159444425
1361.000000,0.00959218023
1362.000000,0.01113663325
1363.000000,0.01092405503
1364.000000,0.01392511328
1365.000000,0.01377933643
1366.000000,0.0143393777
1367.000000,0.01050959113
1368.000000,0.01284087632
1369.000000,0.01484980391
1370.000000,0.01258502978
1371.000000,0.01211127009
1372.000000,0.01070994542
1373.000000,0.01408034339
1374.000000,0.01276124538
1375.000000,0.01452227875
1376.000000,0.01218432871
1377.000000,0.01683301952
1378.000000,0.01255460586
1379.000000,0.01011792109
1380.000000,0.01315265542
1381.000000,0.01379487901
1382.000000,0.01552478359
1383.000000,0.01194133387
1384.000000,0.01187642582
1385.000000,0.01251917841
1386.000000,0.01234222263
1387.000000,0.008845864517
1388.000000,0.01481791197
1389.000000,0.01601647136
1390.000000,0.01193773423
1391.000000,0.01157440027
1392.000000,0.01343185979
1393.000000,0.01214865473
1394.000000,0.01559969472
1395.000000,0.01279829902
1396.000000,0.01549070166
1397.000000,0.01178885425
1398.000000,0.01158251815
1399.000000,0.01144776597
1400.000000,0.01188925141
1401.000000,0.01589391554
1402.000000,0.01694201287
1403.000000,0.01568864342
1404.000000,0.01603964144
1405.000000,0.01124848996
1406.000000,0.01835920185
1407.000000,0.01375009239
1408.000000,0.01927359209
1409.000000,0.02186714593
1410.000000,0.01730545788
1411.000000,0.01879759544
1412.000000,0.01914893326
1413.000000,0.01553526065
1414.000000,0.01633369229
1415.000000,0.01769481196
1416.000000,0.01992363416
1417.000000,0.02187706064
1418.000000,0.02095688016
1419.000000,0.02362559147
1420.000000,0.02098870148
1421.000000,0.01987791921
1422.000000,0.02369207205
1423.000000,0.02443691945
1424.000000,0.0226392158
1425.000000,0.02882249271
1426.000000,0.0259883075
1427.000000,0.02787464833
1428.000000,0.03140746763
1429.000000,0.03051066033
1430.000000,0.03602266907
1431.000000,0.03783655869
1432.000000,0.04058850592
1433.000000,0.04264641416
1434.000000,0.04512993867
1435.000000,0.04854968442
1436.000000,0.05541603487
1437.000000,0.063060129
1438.000000,0.06827892424
1439.000000,0.07499119218
1440.000000,0.08524093662
1441.000000,0.0965038862
1442.000000,0.103666734
1443.000000,0.1207799079
1444.000000,0.1402159913
1445.000000,0.1552277559
1446.000000,0.1757861737
1447.000000,0.1980428135
1448.000000,0.2138676159
1449.000000,0.2290235964
1450.000000,0.2303091771
1451.000000,0.2277917292
1452.000000,0.2195392055
1453.000000,0.1992127079
1454.000000,0.1740562485
1455.000000,0.1545410996
1456.000000,0.1357686622
1457.000000,0.1209247344
1458.000000,0.1035528865
1459.000000,0.09511583641
1460.000000,0.08694791971
1461.000000,0.07769223568
1462.000000,0.06536720472
1463.000000,0.05995915354
1464.000000,0.05447555016
1465.000000,0.04874753116
1466.000000,0.04994439096
1467.000000,0.04160522805
1468.000000,0.03774520717
1469.000000,0.0381787248
1470.000000,0.03585266928
1471.000000,0.03630284895
1472.000000,0.0345607218
1473.000000,0.02946975708
1474.000000,0.02415679756
1475.000000,0.0286032662
1476.000000,0.02776096823
1477.000000,0.02878943263
1478.000000,0.02097897595
1479.000000,0.02099992577
1480.000000,0.02584245286
1481.000000,0.02531639507
1482.000000,0.02403469842
1483.000000,0.02076819358
1484.000000,0.02294865799
1485.000000,0.01870127617
1486.000000,0.01685639113
1487.000000,0.01888615255
1488.000000,0.01886268808
1489.000000,0.01996857591
1490.000000,0.02024934506
1491.000000,0.01411482712
1492.000000,0.01804136656
1493.000000,0.01821704929
1494.000000,0.01440533886
1495.000000,0.01624492045
1496.000000,0.01671086761
1497.000000,0.01733208078
1498.000000,0.01449644944
1499.000000,0.01487564846
1500.000000,0.01371076558
1501.000000,0.0165363996
1502.000000,0.01504166106
1503.000000,0.01441169523
1504.000000,0.0168280005
1505.000000,0.01508066311
1506.000000,0.01289479932
1507.000000,0.01759703839
1508.000000,0.01720081839
1509.000000,0.01609027672
1510.000000,0.01298052633
1511.000000,0.01732206696
1512.000000,0.01381712819
1513.000000,0.01116568734
1514.000000,0.01470113524
1515.000000,0.0186213639
1516.000000,0.01401219458
1517.000000,0.01611828422
1518.000000,0.01771272034
1519.000000,0.01530135946
1520.000000,0.01429616597
1521.000000,0.01497575944
1522.000000,0.01615542761
1523.000000,0.01396194657
1524.000000,0.01574219176
1525.000000,0.01620517178
1526.000000,0.01435619528
1527.000000,0.01663378037
1528.000000,0.01637189199
1529.000000,0.01464014368
1530.000000,0.01499791958
1531.000000,0.01568099883
1532.000000,0.01524061618
1533.000000,0.01521593467
1534.000000,0.01367426458
1535.000000,0.01607713912
1536.000000,0.01747203942
1537.000000,0.01741293285
1538.000000,0.01460282714
1539.000000,0.01755587373
1540.000000,0.01782375187
1541.000000,0.01491383778
1542.000000,0.01802547515
1543.000000,0.01683539416
1544.000000,0.01666559062
1545.000000,0.01813104272
1546.000000,0.01750776216
1547.000000,0.01373311781
1548.000000,0.01895473536
1549.000000,0.01661989024
1550.000000,0.01905039125
1551.000000,0.0210047646
1552.000000,0.01959936199
1553.000000,0.01964657372
1554.000000,0.02133595114
1555.000000,0.02262537991
1556.000000,0.02057937672
1557.000000,0.02168001435
1558.000000,0.02470971493
1559.000000,0.02776029051
1560.000000,0.02549570714
1561.000000,0.02830755193
1562.000000,0.02625108165
1563.000000,0.02908524006
1564.000000,0.03072379174
1565.000000,0.02972955788
1566.000000,0.03424687753
1567.000000,0.0361957024
1568.000000,0.03412726911
1569.000000,0.0421680444
1570.000000,0.04662412897
1571.000000,0.05092624682
1572.000000,0.05640095856
1573.000000,0.06002236547
1574.000000,0.06875079974
1575.000000,0.07974485198
1576.000000,0.09078955845
1577.000000,0.1071123812
1578.000000,0.129781058
1579.000000,0.1489708785
1580.000000,0.176784097
1581.000000,0.2083278695
1582.000000,0.2264398736
1583.000000,0.234864865
1584.000000,0.2325403936
1585.000000,0.2158376902
1586.000000,0.1943436851
1587.000000,0.1703510678
1588.000000,0.1578923395
1589.000000,0.1468791211
1590.000000,0.1441984888
1591.000000,0.1404864793
1592.000000,0.1423773904
1593.000000,0.1534502285
1594.000000,0.1701361594
1595.000000,0.1924746197
1596.000000,0.2270234696
1597.000000,0.27785486
1598.000000,0.3415403382
1599.000000,0.4261899257
1600.000000,0.5205904608
1601.000000,0.6092886698
1602.000000,0.639776231
1603.000000,0.6083227722
1604.000000,0.516409213
1605.000000,0.4184796502
1606.000000,0.3323925153
1607.000000,0.2587274376
1608.000000,0.2113616009
1609.000000,0.1708061158
1610.000000,0.1435222489
1611.000000,0.1183428261
1612.000000,0.1005361966
1613.000000,0.09098652536
1614.000000,0.07851549783
1615.000000,0.06909730913
1616.000000,0.05962424031
1617.000000,0.05861200731
1618.000000,0.0504126624
1619.000000,0.04647423949
1620.000000,0.04198960364
1621.000000,0.04032649839
1622.000000,0.03883535024
1623.000000,0.03523733114
1624.000000,0.03316549188
1625.000000,0.03046801029
1626.000000,0.03292127941
1627.000000,0.03177515684
1628.000000,0.02673629713
1629.000000,0.02444554416
1630.000000,0.02568132685
1631.000000,0.02105024419
1632.000000,0.02388669224
1633.000000,0.02317212937
1634.000000,0.02226254884
1635.000000,0.02444213467
1636.000000,0.02433360852
1637.000000,0.02106362365
1638.000000,0.0189770251
1639.000000,0.02125268193
1640.000000,0.02104523122
1641.000000,0.01604642892
1642.000000,0.01659572951
1643.000000,0.01717916265
1644.000000,0.01409429875
1645.000000,0.01487474435
1646.000000,0.02000802798
1647.000000,0.01404160177
1648.000000,0.0179385569
1649.000000,0.01445821758
1650.000000,0.01777956509
1651.000000,0.01625429424
1652.000000,0.01719525001
1653.000000,0.01250912791
1654.000000,0.01563687752
1655.000000,0.01378362089
1656.000000,0.01625033138
1657.000000,0.01600343075
1658.000000,0.01479062772
1659.000000,0.01406932542
1660.000000,0.01416783178
1661.000000,0.01456154104
1662.000000,0.01294830173
1663.000000,0.01297934728
1664.000000,0.01246588425
1665.000000,0.0115579025
1666.000000,0.01558180718
1667.000000,0.01084144894
1668.000000,0.01590259054
1669.000000,0.01465460775
1670.000000,0.00982023694
1671.000000,0.009499163091
1672.000000,0.0130702931
1673.000000,0.01085538077
1674.000000,0.01315359647
1675.000000,0.01467949074
1676.000000,0.01345066172
1677.000000,0.0122624302
1678.000000,0.0122685485
1679.000000,0.01546400842
1680.000000,0.01180853978
1681.000000,0.01588023093
1682.000000,0.01643817688
1683.000000,0.01166356058
1684.000000,0.01292270393
1685.000000,0.01567086143
1686.000000,0.01089500674
1687.000000,0.0130713088
1688.000000,0.01425803629
1689.000000,0.01011601638
1690.000000,0.01284978501
1691.000000,0.0123431091
1692.000000,0.01101903572
1693.000000,0.01505338649
1694.000000,0.01172291005
1695.000000,0.01644132401
1696.000000,0.01333700366
1697.000000,0.01051826077
1698.000000,0.01239166825
1699.000000,0.01034095848
1700.000000,0.01342525594
1701.000000,0.01308636426
1702.000000,0.009429007595
1703.000000,0.0109241503
1704.000000,0.01264126618
1705.000000,0.01180181903
1706.000000,0.00974027605
1707.000000,0.01377345853
1708.000000,0.01428264056
1709.000000,0.008670888119
1710.000000,0.01444452572
1711.000000,0.007521609279
1712.000000,0.01122637345
1713.000000,0.01016295056
1714.000000,0.01035732452
1715.000000,0.01177357213
1716.000000,0.009112258401
1717.000000,0.0111710339
1718.000000,0.01465086619
1719.000000,0.0122238539
1720.000000,0.01423188987
1721.000000,0.01299275141
1722.000000,0.008099869691
1723.000000,0.01474445126
1724.000000,0.01292337862
1725.000000,0.01252319684
1726.000000,0.01048341896
1727.000000,0.01018399403
1728.000000,0.009137615347
1729.000000,0.01088199499
1730.000000,0.01138798334
1731.000000,0.01084408443
1732.000000,0.01083821106
1733.000000,0.007318020022
1734.000000,0.009630553277
1735.000000,0.009545919107
1736.000000,0.01166104594
1737.000000,0.01017730339
1738.000000,0.01016422176
1739.000000,0.01120561172
1740.000000,0.01009122442
1741.000000,0.01045059498
1742.000000,0.0131316782
1743.000000,0.01065990562
1744.000000,0.009196115125
1745.000000,0.01212145935
1746.000000,0.01250751554
1747.000000,0.012157703
1748.000000,0.008351390508
1749.000000,0.01275237777
1750.000000,0.01099531362
1751.000000,0.01115311532
1752.000000,0.01106076191
1753.000000,0.01177852582
1754.000000,0.01182792717
1755.000000,0.01373795326
1756.000000,0.01134488071
1757.000000,0.01069509092
1758.000000,0.01210572384
1759.000000,0.01064267976
1760.000000,0.01296340389
1761.000000,0.01113910446
1762.000000,0.01227538856
1763.000000,0.009824273835
1764.000000,0.01274323292
1765.000000,0.01202458479
1766.000000,0.009163638663
1767.000000,0.01007017252
1768.000000,0.01095811884
1769.000000,0.008228508048
1770.000000,0.008668983834
1771.000000,0.01171037576
1772.000000,0.01173620335
1773.000000,0.01335504663
1774.000000,0.008255471568
1775.000000,0.01002655026
1776.000000,0.00680309239
1777.000000,0.01410521498
1778.000000,0.008152858834
1779.000000,0.01022743149
1780.000000,0.01442457124
1781.000000,0.01345143964
1782.000000,0.009006156988
1783.000000,0.01503784933
1784.000000,0.01153645013
1785.000000,0.008664301579
1786.000000,0.01115338032
1787.000000,0.01187610626
1788.000000,0.01184689192
1789.000000,0.006508293312
1790.000000,0.0141694991
1791.000000,0.007498495771
1792.000000,0.01018029758
1793.000000,0.01336291419
1794.000000,0.01134502347
1795.000000,0.01050837693
1796.000000,0.009398879801
1797.000000,0.011684238
1798.000000,0.01323809202
1799.000000,0.009496698904
1800.000000,0.01137983076
1801.000000,0.009835173476
1802.000000,0.009743621993
1803.000000,0.00653561781
1804.000000,0.01105235692
1805.000000,0.01237061762
1806.000000,0.01026548733
1807.000000,0.01258620393
1808.000000,0.01090075853
1809.000000,0.01293678834
1810.000000,0.01085744873
1811.000000,0.009864265828
1812.000000,0.009610528404
1813.000000,0.01075049343
1814.000000,0.01113549931
1815.000000,0.009055975755
1816.000000,0.01027683489
1817.000000,0.007987912571
1818.000000,0.007968851707
1819.000000,0.01181016054
1820.000000,0.01126526393
1821.000000,0.01227174715
1822.000000,0.01083287421
1823.000000,0.01103614659
1824.000000,0.01409976566
1825.000000,0.008939032517
1826.000000,0.01110533782
1827.000000,0.01358045531
1828.000000,0.01446242826
1829.000000,0.01162627074
1830.000000,0.01032373065
1831.000000,0.00850085205
1832.000000,0.01022078576
1833.000000,0.01080977977
1834.000000,0.01054663351
1835.000000,0.0114790208
1836.000000,0.0115950137
1837.000000,0.009592827075
1838.000000,0.008776548736
1839.000000,0.009927447269
1840.000000,0.01131912544
1841.000000,0.01361593467
1842.000000,0.007339220696
1843.000000,0.01252353226
1844.000000,0.009913672281
1845.000000,0.01256218203
1846.000000,0.01406826364
1847.000000,0.01140701287
1848.000000,0.008251580436
1849.000000,0.009636028323
1850.000000,0.0111275359
1851.000000,0.009795230011
1852.000000,0.01029173741
1853.000000,0.008934989649
1854.000000,0.009989780218
1855.000000,0.009215704931
1856.000000,0.01205074669
1857.000000,0.01099035889
1858.000000,0.01181696206
1859.000000,0.007274351037
1860.000000,0.009531457574
1861.000000,0.00896997511
1862.000000,0.009563638137
1863.000000,0.008708829233
1864.000000,0.008999429735
1865.000000,0.01339536935
1866.000000,0.009862856262
1867.000000,0.007974338033
1868.000000,0.00980871665
1869.000000,0.0146703765
1870.000000,0.01171928344
1871.000000,0.008590406361
1872.000000,0.009884484046
1873.000000,0.01022128311
1874.000000,0.01042336805
1875.000000,0.00681479608
1876.000000,0.0085403567
1877.000000,0.01002325686
1878.000000,0.00705191741
1879.000000,0.009989672533
1880.000000,0.01047333234
1881.000000,0.01181485116
1882.000000,0.01236079772
1883.000000,0.009977139645
1884.000000,0.01076015148
1885.000000,0.01162123118
1886.000000,0.01226141647
1887.000000,0.01046749539
1888.000000,0.008889884619
1889.000000,0.01145402802
1890.000000,0.01194958124
1891.000000,0.01060274321
1892.000000,0.01141395827
1893.000000,0.01335940787
1894.000000,0.009358812427
1895.000000,0.008980100922
1896.000000,0.008247954018
1897.000000,0.01098565372
1898.000000,0.01212672559
1899.000000,0.009352427825
1900.000000,0.0137737781
1901.000000,0.009208997021
1902.000000,0.01083494558
1903.000000,0.01010129015
1904.000000,0.01296220088
1905.000000,0.009118401249
1906.000000,0.01346574411
1907.000000,0.009987377439
1908.000000,0.007761510946
1909.000000,0.009232101933
1910.000000,0.01001075667
1911.000000,0.01352339371
1912.000000,0.009400832719
1913.000000,0.01029533729
1914.000000,0.01427252083
1915.000000,0.01060689693
1916.000000,0.009103159204
1917.000000,0.008889557125
1918.000000,0.007318925853
1919.000000,0.01096928179
1920.000000,0.01259850427
1921.000000,0.009587901591
1922.000000,0.008260627008
1923.000000,0.01079414818
1924.000000,0.01027767684
1925.000000,0.009989867497
1926.000000,0.01110793434
1927.000000,0.01030509494
1928.000000,0.009540806838
1929.000000,0.01214291601
1930.000000,0.006684384821
1931.000000,0.008063129288
1932.000000,0.009682628084
1933.000000,0.007621995636
1934.000000,0.01308399103
1935.000000,0.006010303924
1936.000000,0.01153511155
1937.000000,0.01127178281
1938.000000,0.01083550545
1939.000000,0.01099284858
1940.000000,0.009085893773
1941.000000,0.00879517455
1942.000000,0.01288294265
1943.000000,0.009885418019
1944.000000,0.007362080552
1945.000000,0.007794690305
1946.000000,0.007211575553
1947.000000,0.0106711411
1948.000000,0.01234731159
1949.000000,0.009557329554
1950.000000,0.01042831249
1951.000000,0.009189432681
1952.000000,0.01186511136
1953.000000,0.01185071497
1954.000000,0.01195030188
1955.000000,0.01362883732
1956.000000,0.007834236782
1957.000000,0.01173385988
1958.000000,0.007232334917
1959.000000,0.01159589231
1960.000000,0.01178152526
1961.000000,0.01161746726
1962.000000,0.01177598074
1963.000000,0.009997200885
1964.000000,0.009042024731
1965.000000,0.0117244776
1966.000000,0.009067799429
1967.000000,0.01162381057
1968.000000,0.008653407564
1969.000000,0.01092020909
1970.000000,0.0108268659
1971.000000,0.008684805418
1972.000000,0.009670664749
1973.000000,0.01202686214
1974.000000,0.01034404842
1975.000000,0.01127642462
1976.000000,0.009241473093
1977.000000,0.0105025609
1978.000000,0.007489003278
1979.000000,0.008816606141
1980.000000,0.01266115796
1981.000000,0.01132336019
1982.000000,0.01031141365
1983.000000,0.01054683355
1984.000000,0.007726136519
1985.000000,0.01107413644
1986.000000,0.007946959025
1987.000000,0.008882801802
1988.000000,0.01158363644
1989.000000,0.008856358412
1990.000000,0.009275126383
1991.000000,0.01007773135
1992.000000,0.01042711012
1993.000000,0.01277766955
1994.000000,0.006985388776
1995.000000,0.009442095564
1996.000000,0.0113279175
1997.000000,0.009276713876
1998.000000,0.009450809252
1999.000000,0.008649918654
2000.000000,0.009603488624
