raman_shift_cm-1,intensity
200.000000,0.01089301654
201.000000,0.009047992494
202.000000,0.01112950952
203.000000,0.008654546979
204.000000,0.01010424923
205.000000,0.01076687034
206.000000,0.009193833155
207.000000,0.01096227385
208.000000,0.009062480373
209.000000,0.01089111631
210.000000,0.01041303771
211.000000,0.01067590906
212.000000,0.008733972197
213.000000,0.009543649384
214.000000,0.008547890065
215.000000,0.01072838795
216.000000,0.009519724872
217.000000,0.009936067623
218.000000,0.01023114968
219.000000,0.009602671071
220.000000,0.0101134957
221.000000,0.01093920417
222.000000,0.01083226528
223.000000,0.01054000105
224.000000,0.009471384379
225.000000,0.00915876402
226.000000,0.01130755253
227.000000,0.008422018349
228.000000,0.009503416104
229.000000,0.009206922139
230.000000,0.01036821591
231.000000,0.009571055506
232.000000,0.01005684218
233.000000,0.0120298384
234.000000,0.01061832396
235.000000,0.01127349941
236.000000,0.008799364588
237.000000,0.009735153275
238.000000,0.009308248937
239.000000,0.009806262299
240.000000,0.0095954542
241.000000,0.01175681201
242.000000,0.009825604158
243.000000,0.008913476292
244.000000,0.009616679329
245.000000,0.01013002101
246.000000,0.01105527751
247.000000,0.01144261616
248.000000,0.01119525514
249.000000,0.01166164104
250.000000,0.0105734624
251.000000,0.008521202313
252.000000,0.01029121785
253.000000,0.01072069075
254.000000,0.009877991222
255.000000,0.01021315823
256.000000,0.01114065419
257.000000,0.01001901059
258.000000,0.009138089563
259.000000,0.009654282727
260.000000,0.009878525846
261.000000,0.009940615184
262.000000,0.01035899321
263.000000,0.00977863317
264.000000,0.009740058405
265.000000,0.009134650122
266.000000,0.01009203001
267.000000,0.01089780446
268.000000,0.00899143166
269.000000,0.008638377374
270.000000,0.01216064241
271.000000,0.009945102144
272.000000,0.01003782291
273.000000,0.01060248078
274.000000,0.01090297182
275.000000,0.009427811995
276.000000,0.009568046926
277.000000,0.0104743592
278.000000,0.009387921308
279.000000,0.009433556687
280.000000,0.01065265179
281.000000,0.009914117624
282.000000,0.01027020878
283.000000,0.0105659182
284.000000,0.009362759944
285.000000,0.01071571579
286.000000,0.00915004022
287.000000,0.01031044706
288.000000,0.01038211932
289.000000,0.009451687757
290.000000,0.01035626883
291.000000,0.009959189457
292.000000,0.01003874959
293.000000,0.009317236887
294.000000,0.01053473552
295.000000,0.009001573038
296.000000,0.01000096026
297.000000,0.01054019241
298.000000,0.009234644942
299.000000,0.009418141413
300.000000,0.00925254308
301.000000,0.0108081632
302.000000,0.01048184812
303.000000,0.01094579162
304.000000,0.01102899911
305.000000,0.01110241193
306.000000,0.009335489904
307.000000,0.009987983394
308.000000,0.01018138657
309.000000,0.01135701177
310.000000,0.01062217149
311.000000,0.01049922926
312.000000,0.009567014021
313.000000,0.009603041413
314.000000,0.01041501885
315.000000,0.01043746428
316.000000,0.009140242523
317.000000,0.01136360678
318.000000,0.01094369135
319.000000,0.00965920035
320.000000,0.01100915262
321.000000,0.009433886279
322.000000,0.009126718723
323.000000,0.01123880253
324.000000,0.01307805994
325.000000,0.009106392444
326.000000,0.009382642846
327.000000,0.01073969627
328.000000,0.01038915832
329.000000,0.009509782861
330.000000,0.01012494054
331.000000,0.01077267119
332.000000,0.01065827896
333.000000,0.01041146479
334.000000,0.01110903506
335.000000,0.009829605862
336.000000,0.01091737976
337.000000,0.008943395537
338.000000,0.009468196468
339.000000,0.01004398931
340.000000,0.00868063805
341.000000,0.01164170049
342.000000,0.01148192539
343.000000,0.01027629129
344.000000,0.009606654028
345.000000,0.009642533947
346.000000,0.00803525011
347.000000,0.01103865887
348.000000,0.01012450714
349.000000,0.01078301801
350.000000,0.0102375134
351.000000,0.009846592602
352.000000,0.009397399011
353.000000,0.008448947677
354.000000,0.009728569424
355.000000,0.01025333762
356.000000,0.009565070755
357.000000,0.01021158318
358.000000,0.008844744075
359.000000,0.008784140186
360.000000,0.01023407953
361.000000,0.009355054796
362.000000,0.009916470971
363.000000,0.009570465676
364.000000,0.01246411439
365.000000,0.01105107361
366.000000,0.00883545187
367.000000,0.0101741067
368.000000,0.01130193918
369.000000,0.01060183618
370.000000,0.01029833326
371.000000,0.01041243553
372.000000,0.01158098134
373.000000,0.01047057016
374.000000,0.01105103027
375.000000,0.01067702763
376.000000,0.009058280185
377.000000,0.01078566166
378.000000,0.008409929807
379.000000,0.01220517008
380.000000,0.01106248974
381.000000,0.01018153151
382.000000,0.0099634885
383.000000,0.01111853164
384.000000,0.00912723277
385.000000,0.01143192579
386.000000,0.01012770438
387.000000,0.01073479614
388.000000,0.00974936849
389.000000,0.009958011869
390.000000,0.008540926424
391.000000,0.01101304042
392.000000,0.01055733235
393.000000,0.008245577356
394.000000,0.009637169302
395.000000,0.01020793207
396.000000,0.01067644254
397.000000,0.01049481136
398.000000,0.01104006087
399.000000,0.009454102953
400.000000,0.01113545151
401.000000,0.01089248834
402.000000,0.01019521048
403.000000,0.009514765074
404.000000,0.01057962278
405.000000,0.009529339043
406.000000,0.008202388569
407.000000,0.01002888928
408.000000,0.008920211345
409.000000,0.01097020528
410.000000,0.01052981711
411.000000,0.01089144739
412.000000,0.009627218441
413.000000,0.01079562006
414.000000,0.009816486778
415.000000,0.01077140003
416.000000,0.009606218639
417.000000,0.01037154809
418.000000,0.01016394623
419.000000,0.01096878858
420.000000,0.01084411967
421.000000,0.01079326617
422.000000,0.009346560739
423.000000,0.01002918469
424.000000,0.01002820748
425.000000,0.009669595125
426.000000,0.009915094718
427.000000,0.009537153915
428.000000,0.00956699567
429.000000,0.009479738976
430.000000,0.00989061538
431.000000,0.009666209876
432.000000,0.0108609863
433.000000,0.01080595268
434.000000,0.01006937928
435.000000,0.009393550859
436.000000,0.008790413493
437.000000,0.01020133329
438.000000,0.007828132896
439.000000,0.007800321159
440.000000,0.01044795216
441.000000,0.00998947441
442.000000,0.01180463174
443.000000,0.009815362401
444.000000,0.01162568664
445.000000,0.00947711289
446.000000,0.009422472362
447.000000,0.01164367198
448.000000,0.009697139512
449.000000,0.01026157625
450.000000,0.01065313451
451.000000,0.01081302046
452.000000,0.01197719122
453.000000,0.009149525215
454.000000,0.01134274607
455.000000,0.009712328095
456.000000,0.01087808198
457.000000,0.01027902547
458.000000,0.01120798285
459.000000,0.01100414404
460.000000,0.009456475589
461.000000,0.009621630642
462.000000,0.009167756194
463.000000,0.009310444175
464.000000,0.01042474706
465.000000,0.00956185817
466.000000,0.01144968064
467.000000,0.0100020027
468.000000,0.009858492856
469.000000,0.009081311425
470.000000,0.01068208264
471.000000,0.01063211188
472.000000,0.009267490423
473.000000,0.0124584909
474.000000,0.009657852264
475.000000,0.009984933569
476.000000,0.01185846322
477.000000,0.01012459316
478.000000,0.009954960483
479.000000,0.01094369715
480.000000,0.0103929064
481.000000,0.01093860311
482.000000,0.01042058595
483.000000,0.009116676517
484.000000,0.009048727582
485.000000,0.010469285
486.000000,0.00935544814
487.000000,0.009464710927
488.000000,0.008595820977
489.000000,0.01056582496
490.000000,0.009324010961
491.000000,0.01129839825
492.000000,0.01228876395
493.000000,0.01164427995
494.000000,0.01133449115
495.000000,0.01072248041
496.000000,0.009771447669
497.000000,0.0100874255
498.000000,0.00849194408
499.000000,0.01134822712
500.000000,0.01108937238
501.000000,0.009957654593
502.000000,0.00992104408
503.000000,0.008789052067
504.000000,0.01143288399
505.000000,0.01000865726
506.000000,0.01063675428
507.000000,0.0104873185
508.000000,0.009607017887
509.000000,0.012021467
510.000000,0.01101124717
511.000000,0.01020760732
512.000000,0.01085407332
513.000000,0.008731815038
514.000000,0.01066055604
515.000000,0.009943656032
516.000000,0.008875947322
517.000000,0.00960921809
518.000000,0.009757933861
519.000000,0.01184388322
520.000000,0.009681044792
521.000000,0.01059282103
522.000000,0.009099294995
523.000000,0.009474080553
524.000000,0.01099953736
525.000000,0.008981560267
526.000000,0.01065507701
527.000000,0.01011932766
528.000000,0.01068399481
529.000000,0.01232148025
530.000000,0.01100526943
531.000000,0.009615562263
532.000000,0.01113817243
533.000000,0.01035175038
534.000000,0.0103741181
535.000000,0.01086261506
536.000000,0.01021990216
537.000000,0.009805698931
538.000000,0.01131698512
539.000000,0.009382944297
540.000000,0.01109661374
541.000000,0.01121586593
542.000000,0.01000836227
543.000000,0.01082990536
544.000000,0.01144789588
545.000000,0.01068386696
546.000000,0.01195850996
547.000000,0.01074048817
548.000000,0.01265251871
549.000000,0.01246347789
550.000000,0.01019702679
551.000000,0.01108043427
552.000000,0.0113588478
553.000000,0.01097047631
554.000000,0.01373107848
555.000000,0.01116770376
556.000000,0.01111435245
557.000000,0.01025136953
558.000000,0.01195595796
559.000000,0.01097733013
560.000000,0.0108587184
561.000000,0.01294576477
562.000000,0.01084943387
563.000000,0.01065600868
564.000000,0.009841304037
565.000000,0.01104368557
566.000000,0.01281423754
567.000000,0.01074665932
568.000000,0.01018393833
569.000000,0.01120882212
570.000000,0.01155395005
571.000000,0.01092610774
572.000000,0.01154415463
573.000000,0.01212466007
574.000000,0.01118067573
575.000000,0.01079330733
576.000000,0.01288418654
577.000000,0.01383930687
578.000000,0.01153715449
579.000000,0.01198789014
580.000000,0.01169343874
581.000000,0.01227113387
582.000000,0.01267763725
583.000000,0.01287617125
584.000000,0.01244700501
585.000000,0.01274156717
586.000000,0.01404208061
587.000000,0.0136172388
588.000000,0.0127395265
589.000000,0.01184572865
590.000000,0.01566823267
591.000000,0.01497844008
592.000000,0.01609555658
593.000000,0.01444848563
594.000000,0.01480992295
595.000000,0.01491252962
596.000000,0.01614891668
597.000000,0.01669027685
598.000000,0.01781002505
599.000000,0.01841468541
600.000000,0.01617952725
601.000000,0.02000688406
602.000000,0.02135119722
603.000000,0.02370577574
604.000000,0.02260502734
605.000000,0.02593941826
606.000000,0.02714710483
607.000000,0.02931667128
608.000000,0.03318117941
609.000000,0.03625832819
610.000000,0.03897770901
611.000000,0.04817647362
612.000000,0.05245271943
613.000000,0.0622224863
614.000000,0.07380035043
615.000000,0.09238795528
616.000000,0.1095973223
617.000000,0.1349508688
618.000000,0.1622730373
619.000000,0.1816705376
620.000000,0.1898240752
621.000000,0.1824942967
622.000000,0.1603518957
623.000000,0.1346785473
624.000000,0.1107806879
625.000000,0.09036114754
626.000000,0.07547900772
627.000000,0.06299426247
628.000000,0.05342432328
629.000000,0.04759602694
630.000000,0.04281260867
631.000000,0.03451357502
632.000000,0.03343015428
633.000000,0.03054053813
634.000000,0.02680072091
635.000000,0.02509058258
636.000000,0.02309598058
637.000000,0.02338576129
638.000000,0.0193972942
639.000000,0.0200053165
640.000000,0.01767223136
641.000000,0.01930010592
642.000000,0.01727038475
643.000000,0.01707921682
644.000000,0.01640343662
645.000000,0.015812132
646.000000,0.01412225945
647.000000,0.01456475366
648.000000,0.01527161734
649.000000,0.01412757959
650.000000,0.014709052
651.000000,0.01475602399
652.000000,0.01270945451
653.000000,0.01238875155
654.000000,0.01200097465
655.000000,0.01237323804
656.000000,0.0128092042
657.000000,0.01376736491
658.000000,0.01346297509
659.000000,0.01305487126
660.000000,0.0131414247
661.000000,0.01222976107
662.000000,0.01253578924
663.000000,0.01364358623
664.000000,0.01320039542
665.000000,0.01181676733
666.000000,0.01217757232
667.000000,0.01267357119
668.000000,0.01263621513
669.000000,0.01119358751
670.000000,0.01140978717
671.000000,0.01049592911
672.000000,0.01331155059
673.000000,0.01142439733
674.000000,0.01233779739
675.000000,0.01300027721
676.000000,0.01124385189
677.000000,0.01151956812
678.000000,0.01068818227
679.000000,0.01139448729
680.000000,0.01112910139
681.000000,0.01236669549
682.000000,0.01110728267
683.000000,0.01180388007
684.000000,0.01317566469
685.000000,0.01081517044
686.000000,0.01091582183
687.000000,0.01138666605
688.000000,0.01093452696
689.000000,0.0109186547
690.000000,0.01095656158
691.000000,0.01145532809
692.000000,0.01196225626
693.000000,0.01139473696
694.000000,0.01129710345
695.000000,0.01044369894
696.000000,0.01183113695
697.000000,0.01097178637
698.000000,0.009714330183
699.000000,0.01108890016
700.000000,0.01075757538
701.000000,0.01258743446
702.000000,0.009559069878
703.000000,0.01038503289
704.000000,0.01232796518
705.000000,0.01242083558
706.000000,0.01158107395
707.000000,0.01206536423
708.000000,0.01156518465
709.000000,0.01140322874
710.000000,0.01031017091
711.000000,0.01083694099
712.000000,0.01088597838
713.000000,0.01177178479
714.000000,0.01092261335
715.000000,0.01068479278
716.000000,0.01249165742
717.000000,0.0140033267
718.000000,0.01106197536
719.000000,0.01040349595
720.000000,0.01179098282
721.000000,0.01087263366
722.000000,0.01018435172
723.000000,0.01168796139
724.000000,0.01149373276
725.000000,0.01122229345
726.000000,0.01351555086
727.000000,0.01154382757
728.000000,0.01038004627
729.000000,0.01145117893
730.000000,0.01054177046
731.000000,0.01070123197
732.000000,0.009980138985
733.000000,0.01334178347
734.000000,0.01219623643
735.000000,0.01108615764
736.000000,0.01192144314
737.000000,0.01271877469
738.000000,0.01204148562
739.000000,0.01124819621
740.000000,0.01192724365
741.000000,0.01196636079
742.000000,0.01091084509
743.000000,0.0128440388
744.000000,0.0121527745
745.000000,0.01103269297
746.000000,0.01193476307
747.000000,0.01118789449
748.000000,0.01216146428
749.000000,0.01317491381
750.000000,0.01145284183
751.000000,0.01184791837
752.000000,0.01301200665
753.000000,0.01141938741
754.000000,0.01214641326
755.000000,0.01365864597
756.000000,0.01280473997
757.000000,0.01229669323
758.000000,0.01331441723
759.000000,0.01293399355
760.000000,0.01224048182
761.000000,0.01353766721
762.000000,0.01324359384
763.000000,0.01390960941
764.000000,0.01352173832
765.000000,0.01479954569
766.000000,0.01468913306
767.000000,0.01600974943
768.000000,0.01634093768
769.000000,0.01434456157
770.000000,0.01684828154
771.000000,0.01799751008
772.000000,0.01767451706
773.000000,0.01820216574
774.000000,0.01832385666
775.000000,0.01915436177
776.000000,0.01873888194
777.000000,0.01981991131
778.000000,0.02173383367
779.000000,0.02248258897
780.000000,0.02451291764
781.000000,0.0250248561
782.000000,0.02757164546
783.000000,0.03069418628
784.000000,0.03378064921
785.000000,0.03762474449
786.000000,0.04026775816
787.000000,0.04590603919
788.000000,0.0524219788
789.000000,0.06235486861
790.000000,0.06697031466
791.000000,0.07957995216
792.000000,0.08960596065
793.000000,0.09902678044
794.000000,0.1075713519
795.000000,0.1105708462
796.000000,0.1064846869
797.000000,0.1001380012
798.000000,0.09048243519
799.000000,0.07973793586
800.000000,0.06868794373
801.000000,0.06120759326
802.000000,0.05384202519
803.000000,0.04708161268
804.000000,0.04328464944
805.000000,0.03753590159
806.000000,0.03328085495
807.000000,0.03100839729
808.000000,0.02661256397
809.000000,0.02476938423
810.000000,0.02572483503
811.000000,0.02265769715
812.000000,0.02032823365
813.000000,0.01986395718
814.000000,0.0201675119
815.000000,0.0191125293
816.000000,0.01628906565
817.000000,0.01838672757
818.000000,0.01700853558
819.000000,0.01767585036
820.000000,0.0176285374
821.000000,0.01540159907
822.000000,0.01656303498
823.000000,0.01372694767
824.000000,0.01603625476
825.000000,0.01441194871
826.000000,0.01429887781
827.000000,0.01398631976
828.000000,0.01565427658
829.000000,0.01361243121
830.000000,0.0117248751
831.000000,0.01395922196
832.000000,0.01319600497
833.000000,0.0126576587
834.000000,0.01335645879
835.000000,0.01340538544
836.000000,0.01247164178
837.000000,0.0130784984
838.000000,0.01253793781
839.000000,0.01217030856
840.000000,0.01218958574
841.000000,0.0128858493
842.000000,0.01133226211
843.000000,0.01253608824
844.000000,0.01134009181
845.000000,0.01038524232
846.000000,0.01157155868
847.000000,0.01056662346
848.000000,0.01167669651
849.000000,0.01248316734
850.000000,0.01162665042
851.000000,0.01186704403
852.000000,0.01183885466
853.000000,0.01086160437
854.000000,0.01114588273
855.000000,0.01167048101
856.000000,0.0116696399
857.000000,0.01211923818
858.000000,0.01307876643
859.000000,0.01134626349
860.000000,0.01091287558
861.000000,0.01121701097
862.000000,0.01237041064
863.000000,0.01109361077
864.000000,0.009336850372
865.000000,0.01156770273
866.000000,0.01399620432
867.000000,0.01297584318
868.000000,0.01188520878
869.000000,0.01093459603
870.000000,0.009802766194
871.000000,0.01126992588
872.000000,0.01196881577
873.000000,0.009586907623
874.000000,0.01156119939
875.000000,0.01327287383
876.000000,0.01145616546
877.000000,0.01266863154
878.000000,0.01151164297
879.000000,0.01196439751
880.000000,0.01075004297
881.000000,0.0122043651
882.000000,0.01177694213
883.000000,0.01249991633
884.000000,0.01219484672
885.000000,0.01191604273
886.000000,0.01159901269
887.000000,0.0126577361
888.000000,0.01158229612
889.000000,0.01014031348
890.000000,0.0112455846
891.000000,0.01185439616
892.000000,0.01201848675
893.000000,0.01260229592
894.000000,0.01248106323
895.000000,0.01144974403
896.000000,0.01094865158
897.000000,0.01176576234
898.000000,0.0108121532
899.000000,0.009942146245
900.000000,0.01172543854
901.000000,0.01093996888
902.000000,0.00988299134
903.000000,0.01010177996
904.000000,0.01171300978
905.000000,0.01128672769
906.000000,0.01072548393
907.000000,0.01208490015
908.000000,0.01128459823
909.000000,0.01256612179
910.000000,0.0104217709
911.000000,0.01353674706
912.000000,0.01332238104
913.000000,0.01178764763
914.000000,0.01182107963
915.000000,0.01227755024
916.000000,0.01017409374
917.000000,0.01187411263
918.000000,0.01359004288
919.000000,0.01267079183
920.000000,0.01346172746
921.000000,0.01224534481
922.000000,0.01250101868
923.000000,0.01251836825
924.000000,0.0133404397
925.000000,0.0111451262
926.000000,0.01125025774
927.000000,0.01275698737
928.000000,0.0129262399
929.000000,0.0120457875
930.000000,0.01349988986
931.000000,0.01227708023
932.000000,0.01222906771
933.000000,0.01347037888
934.000000,0.01173893059
935.000000,0.01211868409
936.000000,0.01292240828
937.000000,0.01159881175
938.000000,0.01320366439
939.000000,0.012002747
940.000000,0.0120876205
941.000000,0.0133817252
942.000000,0.01351802889
943.000000,0.01232605268
944.000000,0.01384259235
945.000000,0.01461852475
946.000000,0.014679282
947.000000,0.01341716712
948.000000,0.01443712867
949.000000,0.01296055539
950.000000,0.01265471436
951.000000,0.01507052496
952.000000,0.01664335904
953.000000,0.01485286415
954.000000,0.01565637409
955.000000,0.0167406216
956.000000,0.01608624958
957.000000,0.01641398813
958.000000,0.01600118832
959.000000,0.01710314376
960.000000,0.016137231
961.000000,0.01658281183
962.000000,0.01844167586
963.000000,0.01837179699
964.000000,0.01815277241
965.000000,0.01665158338
966.000000,0.0197564695
967.000000,0.01970703253
968.000000,0.01939027046
969.000000,0.01966961412
970.000000,0.02066190977
971.000000,0.02301030215
972.000000,0.02258783369
973.000000,0.02269445361
974.000000,0.02434990771
975.000000,0.02346197258
976.000000,0.02604861761
977.000000,0.02616412611
978.000000,0.02812614346
979.000000,0.03189360075
980.000000,0.03262059222
981.000000,0.03438228427
982.000000,0.03668464147
983.000000,0.0407042896
984.000000,0.0425772846
985.000000,0.04614365312
986.000000,0.04928977767
987.000000,0.05719170178
988.000000,0.06274141806
989.000000,0.0725476198
990.000000,0.08263083642
991.000000,0.0964950654
992.000000,0.1121969865
993.000000,0.1372258141
994.000000,0.1700272287
995.000000,0.2125763002
996.000000,0.2770387278
997.000000,0.373380458
998.000000,0.5141292083
999.000000,0.7072077754
1000.000000,0.9154152684
1001.000000,1.016379936
1002.000000,0.9150668334
1003.000000,0.7088811359
1004.000000,0.5181002925
1005.000000,0.3779589304
1006.000000,0.2825749462
1007.000000,0.2192658608
1008.000000,0.1754975529
1009.000000,0.1444481389
1010.000000,0.1215019859
1011.000000,0.1056872
1012.000000,0.09357398984
1013.000000,0.08458266443
1014.000000,0.07782637127
1015.000000,0.07435240343
1016.000000,0.07014294196
1017.000000,0.06866543244
1018.000000,0.0679946661
1019.000000,0.07074144819
1020.000000,0.07448211454
1021.000000,0.07878229442
1022.000000,0.08620031487
1023.000000,0.09676016069
1024.000000,0.1117070094
1025.000000,0.1324276709
1026.000000,0.1610931883
1027.000000,0.2068123551
1028.000000,0.2650803251
1029.000000,0.3383151706
1030.000000,0.4104377726
1031.000000,0.4393020737
1032.000000,0.4085049642
1033.000000,0.3363428037
1034.000000,0.2613571418
1035.000000,0.1994051205
1036.000000,0.1557305283
1037.000000,0.1233198063
1038.000000,0.1003588252
1039.000000,0.08299310477
1040.000000,0.07040861185
1041.000000,0.06168899365
1042.000000,0.05536083409
1043.000000,0.04913335444
1044.000000,0.04482576507
1045.000000,0.04285536011
1046.000000,0.03760139613
1047.000000,0.03352708341
1048.000000,0.03302758876
1049.000000,0.02830914416
1050.000000,0.02859385653
1051.000000,0.02659180426
1052.000000,0.02708107067
1053.000000,0.02366871012
1054.000000,0.0226867559
1055.000000,0.02368998
1056.000000,0.02187941123
1057.000000,0.02183351325
1058.000000,0.02063949681
1059.000000,0.01988149486
1060.000000,0.02009830381
1061.000000,0.0178365329
1062.000000,0.01779779125
1063.000000,0.01843415346
1064.000000,0.0192119675
1065.000000,0.01822238983
1066.000000,0.01608878806
1067.000000,0.01707936698
1068.000000,0.01665417217
1069.000000,0.01661674576
1070.000000,0.0159613189
1071.000000,0.01611838053
1072.000000,0.01445868916
1073.000000,0.01383311001
1074.000000,0.01423661223
1075.000000,0.01493884659
1076.000000,0.01572906556
1077.000000,0.01478342132
1078.000000,0.01533686611
1079.000000,0.01538770427
1080.000000,0.01474571433
1081.000000,0.01422609616
1082.000000,0.01479085579
1083.000000,0.01398596061
1084.000000,0.0151255456
1085.000000,0.01474749722
1086.000000,0.01483526271
1087.000000,0.01349273777
1088.000000,0.01287040547
1089.000000,0.01519975146
1090.000000,0.01249364922
1091.000000,0.01279743468
1092.000000,0.01346259072
1093.000000,0.01354451389
1094.000000,0.01296884711
1095.000000,0.01411591903
1096.000000,0.01365556793
1097.000000,0.01265762261
1098.000000,0.014018622
1099.000000,0.01408128325
1100.000000,0.01265860934
1101.000000,0.01431318097
1102.000000,0.01367298052
1103.000000,0.01471274978
1104.000000,0.01404275312
1105.000000,0.01274828296
1106.000000,0.01406872166
1107.000000,0.01265842989
1108.000000,0.01408570937
1109.000000,0.01456090788
1110.000000,0.01443543405
1111.000000,0.01424484203
1112.000000,0.01491474533
1113.000000,0.0141286895
1114.000000,0.01373439178
1115.000000,0.01549812511
1116.000000,0.01425377767
1117.000000,0.01514051261
1118.000000,0.0135079467
1119.000000,0.01478313574
1120.000000,0.01510650745
1121.000000,0.01526901671
1122.000000,0.01470531074
1123.000000,0.01390770782
1124.000000,0.01458509001
1125.000000,0.01682998166
1126.000000,0.01624011999
1127.000000,0.01623436467
1128.000000,0.01529263472
1129.000000,0.01593703761
1130.000000,0.01783218791
1131.000000,0.01710002374
1132.000000,0.01784994227
1133.000000,0.02066173345
1134.000000,0.01984978135
1135.000000,0.01984517934
1136.000000,0.02067902438
1137.000000,0.02261550306
1138.000000,0.02378239645
1139.000000,0.02403907247
1140.000000,0.02914635871
1141.000000,0.02854495651
1142.000000,0.02930389578
1143.000000,0.03430298405
1144.000000,0.03717310065
1145.000000,0.0409218928
1146.000000,0.04592186791
1147.000000,0.05234292201
1148.000000,0.0600228313
1149.000000,0.06936776722
1150.000000,0.0817155795
1151.000000,0.09872864895
1152.000000,0.1176189729
1153.000000,0.133631503
1154.000000,0.1477903535
1155.000000,0.1549811993
1156.000000,0.1474450947
1157.000000,0.1357121563
1158.000000,0.1175111818
1159.000000,0.1006390234
1160.000000,0.08547837297
1161.000000,0.07303903917
1162.000000,0.06472625024
1163.000000,0.0555536659
1164.000000,0.05016311437
1165.000000,0.04462650639
1166.000000,0.04339307993
1167.000000,0.04043177351
1168.000000,0.03720129757
1169.000000,0.03703530873
1170.000000,0.03861754684
1171.000000,0.03896205575
1172.000000,0.03841633385
1173.000000,0.0408660774
1174.000000,0.04389792141
1175.000000,0.04862679825
1176.000000,0.05322519851
1177.000000,0.0615843037
1178.000000,0.07154486979
1179.000000,0.0852418306
1180.000000,0.0996491421
1181.000000,0.1155013417
1182.000000,0.1286258842
1183.000000,0.1347806314
1184.000000,0.1294184597
1185.000000,0.1151904201
1186.000000,0.09832944623
1187.000000,0.08074256058
1188.000000,0.06675954112
1189.000000,0.05710644338
1190.000000,0.0494548087
1191.000000,0.04108009217
1192.000000,0.03605823929
1193.000000,0.03497122859
1194.000000,0.02923450359
1195.000000,0.02840180356
1196.000000,0.02473579942
1197.000000,0.02441515624
1198.000000,0.02190517523
1199.000000,0.01919489572
1200.000000,0.02051973991
1201.000000,0.01900901556
1202.000000,0.01769875518
1203.000000,0.01817440802
1204.000000,0.01445169196
1205.000000,0.01642553544
1206.000000,0.01761870396
1207.000000,0.0158128784
1208.000000,0.01613263605
1209.000000,0.01573844186
1210.000000,0.0142908594
1211.000000,0.01586447569
1212.000000,0.01423845024
1213.000000,0.01333506282
1214.000000,0.01353918413
1215.000000,0.01246054195
1216.000000,0.01326942838
1217.000000,0.01353721146
1218.000000,0.01332817653
1219.000000,0.01289190025
1220.000000,0.01403922812
1221.000000,0.01350573113
1222.000000,0.01265046367
1223.000000,0.01257812354
1224.000000,0.01158707494
1225.000000,0.01337897254
1226.000000,0.01232205353
1227.000000,0.0132415085
1228.000000,0.01196317399
1229.000000,0.01224252941
1230.000000,0.01162312517
1231.000000,0.01121581386
1232.000000,0.01200492601
1233.000000,0.01307745577
1234.000000,0.01255551327
1235.000000,0.01083166545
1236.000000,0.01265984359
1237.000000,0.01069423114
1238.000000,0.01228753624
1239.000000,0.01174602076
1240.000000,0.01284790131
1241.000000,0.01058327006
1242.000000,0.01214235935
1243.000000,0.01207046303
1244.000000,0.01210629721
1245.000000,0.01159537067
1246.000000,0.01180039143
1247.000000,0.0100357252
1248.000000,0.01172751756
1249.000000,0.01184345418
1250.000000,0.01161747616
1251.000000,0.0137198348
1252.000000,0.01064654376
1253.000000,0.01083146571
1254.000000,0.0131934402
1255.000000,0.01081947322
1256.000000,0.01057933372
1257.000000,0.01171653148
1258.000000,0.01163825681
1259.000000,0.0097421469
1260.000000,0.01061591032
1261.000000,0.0124520079
1262.000000,0.01072202813
1263.000000,0.009263002324
1264.000000,0.0127310195
1265.000000,0.01157883338
1266.000000,0.01096554125
1267.000000,0.01092685869
1268.000000,0.01109916792
1269.000000,0.01132677566
1270.000000,0.01296996512
1271.000000,0.01194655781
1272.000000,0.01262259907
1273.000000,0.009672241548
1274.000000,0.009443728116
1275.000000,0.01198125196
1276.000000,0.009989116362
1277.000000,0.009717419852
1278.000000,0.01170150142
1279.000000,0.01097692975
1280.000000,0.01063411062
1281.000000,0.01056524262
1282.000000,0.01187851112
1283.000000,0.01131759707
1284.000000,0.01215376268
1285.000000,0.01164999315
1286.000000,0.01195179774
1287.000000,0.0120999691
1288.000000,0.01025861274
1289.000000,0.01163119789
1290.000000,0.01221348314
1291.000000,0.0105725798
1292.000000,0.0116150536
1293.000000,0.01152746341
1294.000000,0.01180073188
1295.000000,0.01209540489
1296.000000,0.01135035375
1297.000000,0.01164818618
1298.000000,0.01166300289
1299.000000,0.009993953646
1300.000000,0.01119171351
1301.000000,0.01138534663
1302.000000,0.01057978167
1303.000000,0.01125790247
1304.000000,0.01034380498
1305.000000,0.009794226541
1306.000000,0.01249341946
1307.000000,0.01046090755
1308.000000,0.011434562
1309.000000,0.01213451788
1310.000000,0.01366554459
1311.000000,0.01133033233
1312.000000,0.01156833564
1313.000000,0.01187740354
1314.000000,0.01146409425
1315.000000,0.01135119748
1316.000000,0.00996329713
1317.000000,0.0119379067
1318.000000,0.0121186565
1319.000000,0.01108254889
1320.000000,0.01075583461
1321.000000,0.01271124197
1322.000000,0.01080445144
1323.000000,0.01267499649
1324.000000,0.01145886948
1325.000000,0.01209664734
1326.000000,0.01093473852
1327.000000,0.01141203274
1328.000000,0.01150322764
1329.000000,0.01226777861
1330.000000,0.01080732875
1331.000000,0.01124741949
1332.000000,0.01133041269
1333.000000,0.0100579185
1334.000000,0.01178935233
1335.000000,0.01029577855
1336.000000,0.01224348181
1337.000000,0.01197434759
1338.000000,0.0120823772
1339.000000,0.01253938502
1340.000000,0.01065568778
1341.000000,0.01032729054
1342.000000,0.01115691451
1343.000000,0.01200221719
1344.000000,0.01333516557
1345.000000,0.01132626609
1346.000000,0.01131990877
1347.000000,0.01102512666
1348.000000,0.01229174825
1349.000000,0.01166906695
1350.000000,0.01161881546
1351.000000,0.01206443438
1352.000000,0.01136842992
1353.000000,0.009764574841
1354.000000,0.01262598087
1355.000000,0.01116376887
1356.000000,0.01124756736
1357.000000,0.009581900136
1358.000000,0.01056288271
1359.000000,0.01070157737
1360.000000,0.0114207403
1361.000000,0.01197888387
1362.000000,0.01171293863
1363.000000,0.01105605258
1364.000000,0.01304275439
1365.000000,0.01278048452
1366.000000,0.01258323799
1367.000000,0.01262394999
1368.000000,0.01331763832
1369.000000,0.01370258595
1370.000000,0.0122226341
1371.000000,0.01238422584
1372.000000,0.01297075232
1373.000000,0.01087410112
1374.000000,0.01280202186
1375.000000,0.01392705276
1376.000000,0.01196662504
1377.000000,0.01342410057
1378.000000,0.01225390401
1379.000000,0.01204487383
1380.000000,0.01380059101
1381.000000,0.01181641372
1382.000000,0.01322168098
1383.000000,0.0112756841
1384.000000,0.01180195571
1385.000000,0.01307813754
1386.000000,0.01385011608
1387.000000,0.01266429066
1388.000000,0.0139425929
1389.000000,0.01330816699
1390.000000,0.01286162243
1391.000000,0.01255972907
1392.000000,0.01260258554
1393.000000,0.01295469511
1394.000000,0.01352520184
1395.000000,0.0144340071
1396.000000,0.01403448731
1397.000000,0.01376137583
1398.000000,0.01440303955
1399.000000,0.01406403316
1400.000000,0.01353059447
1401.000000,0.01532726216
1402.000000,0.01630602058
1403.000000,0.01479040316
1404.000000,0.01474691911
1405.000000,0.01450366841
1406.000000,0.01683651702
1407.000000,0.01642829019
1408.000000,0.01752177013
1409.000000,0.01773451593
1410.000000,0.01780556955
1411.000000,0.01718709562
1412.000000,0.01917910159
1413.000000,0.01774199366
1414.000000,0.01764768047
1415.000000,0.01811072639
1416.000000,0.01984206644
1417.000000,0.02174042385
1418.000000,0.02083669141
1419.000000,0.02169217532
1420.000000,0.02174846836
1421.000000,0.02133032873
1422.000000,0.02345087553
1423.000000,0.02414874897
1424.000000,0.02513560154
1425.000000,0.02748560756
1426.000000,0.02623924548
1427.000000,0.03038189499
1428.000000,0.03038231424
1429.000000,0.03330979641
1430.000000,0.03564077679
1431.000000,0.03748820793
1432.000000,0.0403225873
1433.000000,0.04006581179
1434.000000,0.04527149667
1435.000000,0.05051694243
1436.000000,0.05426885288
1437.000000,0.0594482593
1438.000000,0.06728299982
1439.000000,0.07353188069
1440.000000,0.08281360673
1441.000000,0.0936010545
1442.000000,0.1064935591
1443.000000,0.1206240543
1444.000000,0.1375275268
1445.000000,0.1566360606
1446.000000,0.1757157413
1447.000000,0.1986104689
1448.000000,0.2142175495
1449.000000,0.2259010436
1450.000000,0.2314628755
1451.000000,0.2263549883
1452.000000,0.2153670208
1453.000000,0.1975582488
1454.000000,0.1762348883
1455.000000,0.1566753447
1456.000000,0.1376401072
1457.000000,0.1208623831
1458.000000,0.1069804908
1459.000000,0.09395136032
1460.000000,0.08341037169
1461.000000,0.07574680592
1462.000000,0.06436695608
1463.000000,0.06005926913
1464.000000,0.0555547692
1465.000000,0.04913325455
1466.000000,0.04701612157
1467.000000,0.04282863853
1468.000000,0.03900279918
1469.000000,0.03881548008
1470.000000,0.03513303683
1471.000000,0.0336345469
1472.000000,0.03201864523
1473.000000,0.02961074964
1474.000000,0.02879559838
1475.000000,0.0265226397
1476.000000,0.02646516638
1477.000000,0.02629860337
1478.000000,0.02403889914
1479.000000,0.02290888385
1480.000000,0.024717435
1481.000000,0.02179822377
1482.000000,0.02119210295
1483.000000,0.020990117
1484.000000,0.02137644233
1485.000000,0.01797363816
1486.000000,0.01972841154
1487.000000,0.01962895013
1488.000000,0.01902792436
1489.000000,0.01957362573
1490.000000,0.01884291413
1491.000000,0.01629004931
1492.000000,0.01824846075
1493.000000,0.01749328135
1494.000000,0.01747315884
1495.000000,0.01614591327
1496.000000,0.01772666684
1497.000000,0.01834691911
1498.000000,0.01681721377
1499.000000,0.01564305557
1500.000000,0.01602774667
1501.000000,0.01559828793
1502.000000,0.01581776383
1503.000000,0.0151997437
1504.000000,0.0166009127
1505.000000,0.01440745893
1506.000000,0.01639290718
1507.000000,0.01585569617
1508.000000,0.01554707968
1509.000000,0.01521832015
1510.000000,0.01501559773
1511.000000,0.01613282887
1512.000000,0.01597287014
1513.000000,0.01507170448
1514.000000,0.01435417267
1515.000000,0.01549484055
1516.000000,0.0142834238
1517.000000,0.01602238617
1518.000000,0.01659436859
1519.000000,0.01517267723
1520.000000,0.01532205163
1521.000000,0.0159831264
1522.000000,0.01666633466
1523.000000,0.01439592993
1524.000000,0.01565512604
1525.000000,0.01463266575
1526.000000,0.01427305213
1527.000000,0.01568674379
1528.000000,0.01554943175
1529.000000,0.01664006585
1530.000000,0.01546917556
1531.000000,0.0149316653
1532.000000,0.01433525653
1533.000000,0.0155082821
1534.000000,0.01493676046
1535.000000,0.01447150182
1536.000000,0.01629344591
1537.000000,0.01603512014
1538.000000,0.01779598429
1539.000000,0.01729470686
1540.000000,0.01757045868
1541.000000,0.01686733966
1542.000000,0.0168302135
1543.000000,0.01749490305
1544.000000,0.01672673219
1545.000000,0.01866617156
1546.000000,0.01707906368
1547.000000,0.01837843647
1548.000000,0.01870677126
1549.000000,0.01856017785
1550.000000,0.01736045591
1551.000000,0.01975990106
1552.000000,0.02008472537
1553.000000,0.02232108709
1554.000000,0.02048815557
1555.000000,0.02215151608
1556.000000,0.02198007074
1557.000000,0.02220527974
1558.000000,0.02421091486
1559.000000,0.02516993111
1560.000000,0.02671214363
1561.000000,0.02780784814
1562.000000,0.02809446689
1563.000000,0.02909052148
1564.000000,0.03033164894
1565.000000,0.03052671213
1566.000000,0.03547152974
1567.000000,0.03661181809
1568.000000,0.03830439945
1569.000000,0.04356121108
1570.000000,0.04792869986
1571.000000,0.05002142183
1572.000000,0.0561557462
1573.000000,0.06203098921
1574.000000,0.07020518677
1575.000000,0.07984126878
1576.000000,0.09086660554
1577.000000,0.1076829443
1578.000000,0.1270943019
1579.000000,0.1496336079
1580.000000,0.1783448472
1581.000000,0.2054829491
1582.000000,0.2267177869
1583.000000,0.2361390046
1584.000000,0.2315915919
1585.000000,0.2152004615
1586.000000,0.1947111396
1587.000000,0.1747992013
1588.000000,0.1568453773
1589.000000,0.147235663
1590.000000,0.141065664
1591.000000,0.1391714943
1592.000000,0.1431904347
1593.000000,0.153353984
1594.000000,0.1681239014
1595.000000,0.1926501862
1596.000000,0.2271810683
1597.000000,0.2738569968
1598.000000,0.3420163694
1599.000000,0.4241914665
1600.000000,0.5218982395
1601.000000,0.6083307622
1602.000000,0.6440320237
1603.000000,0.6052897847
1604.000000,0.5172391943
1605.000000,0.4173773922
1606.000000,0.330111636
1607.000000,0.260033649
1608.000000,0.2099772202
1609.000000,0.1705561151
1610.000000,0.1396484755
1611.000000,0.1185209427
1612.000000,0.1007734314
1613.000000,0.08890725999
1614.000000,0.07722970274
1615.000000,0.06969562135
1616.000000,0.06135978372
1617.000000,0.05642298444
1618.000000,0.05136734929
1619.000000,0.04773702099
1620.000000,0.04323000307
1621.000000,0.04004250304
1622.000000,0.03598738157
1623.000000,0.03609279636
1624.000000,0.0330415732
1625.000000,0.03010356174
1626.000000,0.03163841642
1627.000000,0.0305184278
1628.000000,0.02718219086
1629.000000,0.02564962892
1630.000000,0.02511506349
1631.000000,0.02297533824
1632.000000,0.02360443727
1633.000000,0.02256641053
1634.000000,0.02238506867
1635.000000,0.0212373254
1636.000000,0.02229199581
1637.000000,0.01975749846
1638.000000,0.01833835608
1639.000000,0.01995537641
1640.000000,0.01806983461
1641.000000,0.01651713204
1642.000000,0.01676555354
1643.000000,0.01709778343
1644.000000,0.01597501874
1645.000000,0.01708259804
1646.000000,0.01785663501
1647.000000,0.01617142532
1648.000000,0.0178559921
1649.000000,0.01532810878
1650.000000,0.01660431199
1651.000000,0.01410389169
1652.000000,0.01674035695
1653.000000,0.01402912057
1654.000000,0.01488714198
1655.000000,0.01362150462
1656.000000,0.01513262833
1657.000000,0.01442698946
1658.000000,0.01503811853
1659.000000,0.01415755653
1660.000000,0.01398614508
1661.000000,0.01435233146
1662.000000,0.01489325161
1663.000000,0.01313481638
1664.000000,0.01327994594
1665.000000,0.01220408515
1666.000000,0.01153575427
1667.000000,0.01400431459
1668.000000,0.01484900742
1669.000000,0.01310548862
1670.000000,0.01229843351
1671.000000,0.01333979297
1672.000000,0.01232118651
1673.000000,0.01107873949
1674.000000,0.0117598143
1675.000000,0.01217139263
1676.000000,0.01166190071
1677.000000,0.01300829621
1678.000000,0.01175098618
1679.000000,0.01173891727
1680.000000,0.01156620259
1681.000000,0.01448942502
1682.000000,0.01230766311
1683.000000,0.01228361696
1684.000000,0.01250463
1685.000000,0.01432265846
1686.000000,0.01205649057
1687.000000,0.01151144121
1688.000000,0.01252172014
1689.000000,0.01144887137
1690.000000,0.01212486741
1691.000000,0.01149728698
1692.000000,0.01327687748
1693.000000,0.01123305933
1694.000000,0.01158418857
1695.000000,0.01149422151
1696.000000,0.01156671057
1697.000000,0.01169073266
1698.000000,0.01072955492
1699.000000,0.01190054337
1700.000000,0.01272765306
1701.000000,0.01193950774
1702.000000,0.01145770478
1703.000000,0.01243233186
1704.000000,0.0110125361
1705.000000,0.01071199254
1706.000000,0.01209655372
1707.000000,0.01125196644
1708.000000,0.01305618858
1709.000000,0.01154769828
1710.000000,0.01262878979
1711.000000,0.009798809089
1712.000000,0.01258000871
1713.000000,0.01155014142
1714.000000,0.01126736767
1715.000000,0.01149301304
1716.000000,0.0116569657
1717.000000,0.01150727576
1718.000000,0.01249991003
1719.000000,0.0116951537
1720.000000,0.01207069776
1721.000000,0.0103603499
1722.000000,0.01035626548
1723.000000,0.0125689551
1724.000000,0.01132581272
1725.000000,0.01263669884
1726.000000,0.01093231331
1727.000000,0.01095943017
1728.000000,0.009543832384
1729.000000,0.01141435692
1730.000000,0.0117153527
1731.000000,0.01042552882
1732.000000,0.01131127135
1733.000000,0.01086954369
1734.000000,0.01212848619
1735.000000,0.009950182089
1736.000000,0.01175291176
1737.000000,0.01114105287
1738.000000,0.01070984169
1739.000000,0.01172154419
1740.000000,0.01194144554
1741.000000,0.01129665003
1742.000000,0.01232129519
1743.000000,0.01060024164
1744.000000,0.009924021234
1745.000000,0.01201685427
1746.000000,0.00911261548
1747.000000,0.01170609783
1748.000000,0.01094485571
1749.000000,0.01145129259
1750.000000,0.01142406573
1751.000000,0.01233550028
1752.000000,0.01133203984
1753.000000,0.01202422412
1754.000000,0.01049725757
1755.000000,0.01012055129
1756.000000,0.01243844627
1757.000000,0.01174261758
1758.000000,0.01093585577
1759.000000,0.01068221803
1760.000000,0.01139916565
1761.000000,0.009342056323
1762.000000,0.01039009802
1763.000000,0.01103655488
1764.000000,0.01276428741
1765.000000,0.01167796021
1766.000000,0.01028163602
1767.000000,0.01153987158
1768.000000,0.009738157038
1769.000000,0.01102369982
1770.000000,0.01192571172
1771.000000,0.01087887263
1772.000000,0.01048023024
1773.000000,0.01168319163
1774.000000,0.01062042893
1775.000000,0.01037988537
1776.000000,0.009751646255
1777.000000,0.01174370633
1778.000000,0.009775747927
1779.000000,0.009683897239
1780.000000,0.01274663232
1781.000000,0.01019796988
1782.000000,0.01038126751
1783.000000,0.01069233983
1784.000000,0.01199873876
1785.000000,0.009795640166
1786.000000,0.01040196167
1787.000000,0.009760453644
1788.000000,0.01109860846
1789.000000,0.00933748012
1790.000000,0.01163854059
1791.000000,0.009942207663
1792.000000,0.01104040117
1793.000000,0.01058362089
1794.000000,0.008819955953
1795.000000,0.01141991921
1796.000000,0.01061370093
1797.000000,0.0107358105
1798.000000,0.0113278217
1799.000000,0.009999830964
1800.000000,0.0100709978
1801.000000,0.01063963128
1802.000000,0.009757923723
1803.000000,0.009449695788
1804.000000,0.008812245698
1805.000000,0.01024443873
1806.000000,0.009746463567
1807.000000,0.01049102878
1808.000000,0.01076295479
1809.000000,0.01062551101
1810.000000,0.01100813841
1811.000000,0.01059195032
1812.000000,0.01017425859
1813.000000,0.009455869575
1814.000000,0.008463618
1815.000000,0.01196944713
1816.000000,0.00865225021
1817.000000,0.01065753289
1818.000000,0.01139372083
1819.000000,0.009356534809
1820.000000,0.01174267851
1821.000000,0.01022806012
1822.000000,0.0111092863
1823.000000,0.0110362786
1824.000000,0.01192800101
1825.000000,0.01008398719
1826.000000,0.01023685801
1827.000000,0.01081700193
1828.000000,0.01193857381
1829.000000,0.01204038934
1830.000000,0.00978624239
1831.000000,0.01211041173
1832.000000,0.01169977197
1833.000000,0.01173259843
1834.000000,0.01113647268
1835.000000,0.01000300563
1836.000000,0.01241186304
1837.000000,0.01055223992
1838.000000,0.008977274916
1839.000000,0.009002638426
1840.000000,0.0109940189
1841.000000,0.01098548577
1842.000000,0.009270760241
1843.000000,0.009835792851
1844.000000,0.01068477569
1845.000000,0.01042121384
1846.000000,0.01170190434
1847.000000,0.01050486211
1848.000000,0.01161904034
1849.000000,0.01055348509
1850.000000,0.01079540325
1851.000000,0.01097295932
1852.000000,0.009414773472
1853.000000,0.009955418835
1854.000000,0.00905750308
1855.000000,0.00932616163
1856.000000,0.009196405823
1857.000000,0.01028571315
1858.000000,0.01020461572
1859.000000,0.01008771652
1860.000000,0.01052382902
1861.000000,0.008933335962
1862.000000,0.009655715302
1863.000000,0.01038288413
1864.000000,0.009695077386
1865.000000,0.01182320367
1866.000000,0.01145127797
1867.000000,0.009713333831
1868.000000,0.008831652486
1869.000000,0.01102055103
1870.000000,0.01023367722
1871.000000,0.01188978774
1872.000000,0.009841484233
1873.000000,0.009335167353
1874.000000,0.009334731567
1875.000000,0.007989788111
1876.000000,0.01022594728
1877.000000,0.01095616319
1878.000000,0.009302608455
1879.000000,0.01019111639
1880.000000,0.009583213682
1881.000000,0.009998104162
1882.000000,0.01151520395
1883.000000,0.00917272318
1884.000000,0.01050435477
1885.000000,0.009114050771
1886.000000,0.01205368063
1887.000000,0.01037655885
1888.000000,0.01145796768
1889.000000,0.00917347323
1890.000000,0.009781041854
1891.000000,0.009728643677
1892.000000,0.01035260855
1893.000000,0.01284916244
1894.000000,0.01116134669
1895.000000,0.0104066009
1896.000000,0.008616840624
1897.000000,0.009869689687
1898.000000,0.01059447717
1899.000000,0.01023110628
1900.000000,0.01057164495
1901.000000,0.009599967656
1902.000000,0.009769928921
1903.000000,0.01016870668
1904.000000,0.01228861474
1905.000000,0.01045714307
1906.000000,0.01130569587
1907.000000,0.01087936542
1908.000000,0.007791299348
1909.000000,0.01013636851
1910.000000,0.008583753133
1911.000000,0.01019746477
1912.000000,0.01023351928
1913.000000,0.009057433383
1914.000000,0.01094259705
1915.000000,0.01076397487
1916.000000,0.00817826554
1917.000000,0.008811129341
1918.000000,0.01048849886
1919.000000,0.01087784373
1920.000000,0.01037791664
1921.000000,0.01080559802
1922.000000,0.009901459649
1923.000000,0.009255935614
1924.000000,0.01070899688
1925.000000,0.009587870118
1926.000000,0.01071692744
1927.000000,0.01049934114
1928.000000,0.009919301049
1929.000000,0.01031894471
1930.000000,0.008278186608
1931.000000,0.01044654465
1932.000000,0.01024649746
1933.000000,0.009458322983
1934.000000,0.01143066332
1935.000000,0.009503226091
1936.000000,0.01063092718
1937.000000,0.01046639469
1938.000000,0.01069005149
1939.000000,0.009689724972
1940.000000,0.009380096311
1941.000000,0.01050662266
1942.000000,0.01114974173
1943.000000,0.009143616633
1944.000000,0.01014039231
1945.000000,0.00897329979
1946.000000,0.008887940059
1947.000000,0.01050668711
1948.000000,0.009730870423
1949.000000,0.009425163397
1950.000000,0.01072480303
1951.000000,0.01061037486
1952.000000,0.009472572738
1953.000000,0.01071350383
1954.000000,0.01055951367
1955.000000,0.01045031324
1956.000000,0.009913569948
1957.000000,0.01116139147
1958.000000,0.009070791086
1959.000000,0.01015434788
1960.000000,0.009296112003
1961.000000,0.009884451251
1962.000000,0.01068759331
1963.000000,0.01085318979
1964.000000,0.01179311394
1965.000000,0.01058566142
1966.000000,0.009720993721
1967.000000,0.01091625206
1968.000000,0.009564769641
1969.000000,0.01049897337
1970.000000,0.009821506945
1971.000000,0.01067084735
1972.000000,0.009408390472
1973.000000,0.01069807103
1974.000000,0.01075782667
1975.000000,0.00966344026
1976.000000,0.00911782463
1977.000000,0.01054669385
1978.000000,0.009595013135
1979.000000,0.008589792202
1980.000000,0.0122940946
1981.000000,0.01080919304
1982.000000,0.009318711475
1983.000000,0.01044376901
1984.000000,0.01006513437
1985.000000,0.0103991525
1986.000000,0.00933941486
1987.000000,0.01154544796
1988.000000,0.01140660836
1989.000000,0.01036345146
1990.000000,0.009034134054
1991.000000,0.00995473753
1992.000000,0.009552606807
1993.000000,0.01058131689
1994.000000,0.008854952897
1995.000000,0.008038652827
1996.000000,0.01000899573
1997.000000,0.00941852495
1998.000000,0.01089581394
1999.000000,0.01022026212
2000.000000,0.009335243046
