pixel_index,raman_shift_cm-1,intensity
0,-224.846,99.0
1,-221.778,98.0
2,-218.712,98.0
3,-215.647,100.0
4,-212.583,98.0
5,-209.521,98.0
6,-206.460,100.0
7,-203.399,98.0
8,-200.340,97.0
9,-197.283,97.0
10,-194.226,99.0
11,-191.171,99.0
12,-188.116,98.0
13,-185.064,98.0
14,-182.012,98.0
15,-178.961,97.0
16,-175.912,98.0
17,-172.864,99.0
18,-169.817,98.0
19,-166.771,99.0
20,-163.726,99.0
21,-160.683,97.0
22,-157.641,100.0
23,-154.600,98.0
24,-151.560,97.0
25,-148.521,99.0
26,-145.484,97.0
27,-142.447,100.0
28,-139.412,97.0
29,-136.379,98.0
30,-133.346,98.0
31,-130.314,99.0
32,-127.284,97.0
33,-124.255,99.0
34,-121.227,99.0
35,-118.200,99.0
36,-115.175,99.0
37,-112.150,98.0
38,-109.127,99.0
39,-106.105,98.0
40,-103.084,99.0
41,-100.065,99.0
42,-97.046,100.0
43,-94.029,99.0
44,-91.013,99.0
45,-87.998,99.0
46,-84.984,99.0
47,-81.972,98.0
48,-78.960,99.0
49,-75.950,98.0
50,-72.941,98.0
51,-69.933,98.0
52,-66.927,98.0
53,-63.921,99.0
54,-60.917,98.0
55,-57.914,99.0
56,-54.912,98.0
57,-51.911,96.0
58,-48.912,98.0
59,-45.913,99.0
60,-42.916,98.0
61,-39.920,99.0
62,-36.925,99.0
63,-33.931,99.0
64,-30.939,100.0
65,-27.947,100.0
66,-24.957,104.0
67,-21.968,100.0
68,-18.980,99.0
69,-15.993,95.0
70,-13.008,99.0
71,-10.023,100.0
72,-7.040,99.0
73,-4.058,98.0
74,-1.077,97.0
75,1.903,98.0
76,4.881,98.0
77,7.859,99.0
78,10.835,98.0
79,13.810,99.0
80,16.784,99.0
81,19.757,99.0
82,22.728,97.0
83,25.699,98.0
84,28.668,100.0
85,31.636,97.0
86,34.603,99.0
87,37.569,99.0
88,40.534,99.0
89,43.497,97.0
90,46.460,98.0
91,49.421,98.0
92,52.381,97.0
93,55.340,99.0
94,58.297,99.0
95,61.254,98.0
96,64.209,98.0
97,67.164,100.0
98,70.117,100.0
99,73.069,100.0
100,76.020,101.0
101,78.969,100.0
102,81.918,100.0
103,84.865,100.0
104,87.811,99.0
105,90.757,100.0
106,93.700,102.0
107,96.643,100.0
108,99.585,98.0
109,102.525,98.0
110,105.465,100.0
111,108.403,101.0
112,111.340,99.0
113,114.276,101.0
114,117.211,102.0
115,120.144,99.0
116,123.077,99.0
117,126.008,100.0
118,128.938,99.0
119,131.868,99.0
120,134.795,99.0
121,137.722,100.0
122,140.648,101.0
123,143.572,100.0
124,146.496,98.0
125,149.418,102.0
126,152.339,100.0
127,155.259,101.0
128,158.178,100.0
129,161.096,99.0
130,164.012,99.0
131,166.928,100.0
132,169.842,98.0
133,172.755,100.0
134,175.667,99.0
135,178.578,98.0
136,181.488,99.0
137,184.397,100.0
138,187.304,99.0
139,190.211,98.0
140,193.116,99.0
141,196.020,100.0
142,198.923,101.0
143,201.825,99.0
144,204.726,100.0
145,207.625,102.0
146,210.524,99.0
147,213.421,100.0
148,216.318,101.0
149,219.213,99.0
150,222.107,100.0
151,225.000,100.0
152,227.891,100.0
153,230.782,101.0
154,233.672,101.0
155,236.560,100.0
156,239.447,101.0
157,242.333,100.0
158,245.218,101.0
159,248.102,100.0
160,250.985,99.0
161,253.867,100.0
162,256.748,100.0
163,259.627,100.0
164,262.505,100.0
165,265.383,100.0
166,268.259,103.0
167,271.134,102.0
168,274.008,99.0
169,276.880,102.0
170,279.752,102.0
171,282.623,101.0
172,285.492,100.0
173,288.360,100.0
174,291.228,102.0
175,294.094,100.0
176,296.959,103.0
177,299.823,99.0
178,302.685,101.0
179,305.547,100.0
180,308.408,102.0
181,311.267,100.0
182,314.126,100.0
183,316.983,102.0
184,319.839,98.0
185,322.694,103.0
186,325.548,101.0
187,328.401,100.0
188,331.253,103.0
189,334.103,100.0
190,336.953,103.0
191,339.801,102.0
192,342.649,99.0
193,345.495,99.0
194,348.340,100.0
195,351.184,100.0
196,354.027,99.0
197,356.869,100.0
198,359.709,101.0
199,362.549,100.0
200,365.388,100.0
201,368.225,100.0
202,371.061,102.0
203,373.897,101.0
204,376.731,99.0
205,379.564,99.0
206,382.396,103.0
207,385.227,101.0
208,388.057,101.0
209,390.885,102.0
210,393.713,101.0
211,396.539,101.0
212,399.365,101.0
213,402.189,99.0
214,405.012,100.0
215,407.835,100.0
216,410.656,101.0
217,413.476,102.0
218,416.295,102.0
219,419.112,101.0
220,421.929,102.0
221,424.745,100.0
222,427.559,101.0
223,430.373,100.0
224,433.185,99.0
225,435.996,101.0
226,438.807,102.0
227,441.616,100.0
228,444.424,100.0
229,447.231,100.0
230,450.037,99.0
231,452.842,99.0
232,455.645,100.0
233,458.448,101.0
234,461.250,101.0
235,464.050,100.0
236,466.849,102.0
237,469.648,101.0
238,472.445,102.0
239,475.241,102.0
240,478.036,101.0
241,480.830,100.0
242,483.623,99.0
243,486.415,101.0
244,489.206,101.0
245,491.996,101.0
246,494.784,104.0
247,497.572,107.0
248,500.358,105.0
249,503.144,110.0
250,505.928,115.0
251,508.712,123.0
252,511.494,121.0
253,514.275,108.0
254,517.055,106.0
255,519.834,101.0
256,522.612,104.0
257,525.389,102.0
258,528.165,103.0
259,530.940,100.0
260,533.713,102.0
261,536.486,103.0
262,539.257,99.0
263,542.028,99.0
264,544.797,101.0
265,547.566,102.0
266,550.333,102.0
267,553.099,103.0
268,555.864,102.0
269,558.629,102.0
270,561.392,102.0
271,564.154,101.0
272,566.915,102.0
273,569.674,104.0
274,572.433,101.0
275,575.191,102.0
276,577.948,101.0
277,580.703,99.0
278,583.458,101.0
279,586.211,99.0
280,588.964,99.0
281,591.715,102.0
282,594.466,102.0
283,597.215,103.0
284,599.963,101.0
285,602.710,102.0
286,605.457,104.0
287,608.202,101.0
288,610.946,101.0
289,613.689,102.0
290,616.431,102.0
291,619.172,100.0
292,621.911,101.0
293,624.650,100.0
294,627.388,102.0
295,630.125,100.0
296,632.860,101.0
297,635.595,102.0
298,638.328,102.0
299,641.061,102.0
300,643.792,101.0
301,646.523,102.0
302,649.252,103.0
303,651.980,102.0
304,654.708,102.0
305,657.434,102.0
306,660.159,102.0
307,662.883,102.0
308,665.606,100.0
309,668.328,102.0
310,671.049,102.0
311,673.769,103.0
312,676.488,101.0
313,679.206,102.0
314,681.923,102.0
315,684.639,101.0
316,687.354,103.0
317,690.067,103.0
318,692.780,103.0
319,695.492,103.0
320,698.202,103.0
321,700.912,100.0
322,703.621,102.0
323,706.328,103.0
324,709.035,101.0
325,711.740,102.0
326,714.444,104.0
327,717.148,103.0
328,719.850,100.0
329,722.552,103.0
330,725.252,103.0
331,727.951,101.0
332,730.649,101.0
333,733.347,103.0
334,736.043,102.0
335,738.738,102.0
336,741.432,101.0
337,744.125,102.0
338,746.817,101.0
339,749.508,101.0
340,752.198,100.0
341,754.887,102.0
342,757.575,103.0
343,760.262,104.0
344,762.948,102.0
345,765.633,103.0
346,768.317,103.0
347,770.999,103.0
348,773.681,101.0
349,776.362,103.0
350,779.042,102.0
351,781.720,102.0
352,784.398,102.0
353,787.075,101.0
354,789.751,103.0
355,792.425,102.0
356,795.099,102.0
357,797.771,102.0
358,800.443,103.0
359,803.114,102.0
360,805.783,102.0
361,808.452,101.0
362,811.119,104.0
363,813.786,102.0
364,816.451,103.0
365,819.116,103.0
366,821.779,101.0
367,824.442,102.0
368,827.103,102.0
369,829.763,103.0
370,832.423,102.0
371,835.081,102.0
372,837.739,103.0
373,840.395,103.0
374,843.050,104.0
375,845.705,102.0
376,848.358,102.0
377,851.010,103.0
378,853.662,104.0
379,856.312,103.0
380,858.961,102.0
381,861.610,103.0
382,864.257,102.0
383,866.903,103.0
384,869.549,102.0
385,872.193,104.0
386,874.836,103.0
387,877.478,102.0
388,880.120,102.0
389,882.760,104.0
390,885.399,103.0
391,888.037,103.0
392,890.675,103.0
393,893.311,102.0
394,895.946,104.0
395,898.580,101.0
396,901.214,101.0
397,903.846,102.0
398,906.477,104.0
399,909.107,103.0
400,911.737,103.0
401,914.365,104.0
402,916.992,105.0
403,919.618,102.0
404,922.244,103.0
405,924.868,105.0
406,927.491,103.0
407,930.113,106.0
408,932.735,104.0
409,935.355,104.0
410,937.974,104.0
411,940.592,104.0
412,943.210,103.0
413,945.826,104.0
414,948.441,105.0
415,951.056,104.0
416,953.669,104.0
417,956.281,104.0
418,958.893,102.0
419,961.503,103.0
420,964.112,105.0
421,966.721,103.0
422,969.328,104.0
423,971.935,105.0
424,974.540,102.0
425,977.144,106.0
426,979.748,104.0
427,982.350,103.0
428,984.952,102.0
429,987.552,103.0
430,990.152,104.0
431,992.750,105.0
432,995.348,103.0
433,997.944,102.0
434,1000.540,106.0
435,1003.134,104.0
436,1005.728,101.0
437,1008.321,103.0
438,1010.912,104.0
439,1013.503,104.0
440,1016.092,105.0
441,1018.681,103.0
442,1021.269,104.0
443,1023.856,104.0
444,1026.441,105.0
445,1029.026,105.0
446,1031.610,104.0
447,1034.193,106.0
448,1036.775,102.0
449,1039.355,103.0
450,1041.935,102.0
451,1044.514,103.0
452,1047.092,104.0
453,1049.669,105.0
454,1052.245,103.0
455,1054.820,103.0
456,1057.394,103.0
457,1059.967,103.0
458,1062.539,103.0
459,1065.110,103.0
460,1067.681,104.0
461,1070.250,102.0
462,1072.818,105.0
463,1075.385,105.0
464,1077.951,105.0
465,1080.517,102.0
466,1083.081,105.0
467,1085.644,104.0
468,1088.207,104.0
469,1090.768,104.0
470,1093.329,103.0
471,1095.888,104.0
472,1098.447,103.0
473,1101.004,103.0
474,1103.561,104.0
475,1106.116,103.0
476,1108.671,107.0
477,1111.225,104.0
478,1113.777,103.0
479,1116.329,104.0
480,1118.880,104.0
481,1121.430,103.0
482,1123.979,105.0
483,1126.527,103.0
484,1129.074,103.0
485,1131.620,105.0
486,1134.165,105.0
487,1136.709,106.0
488,1139.252,105.0
489,1141.794,103.0
490,1144.335,105.0
491,1146.875,106.0
492,1149.415,102.0
493,1151.953,106.0
494,1154.490,104.0
495,1157.027,105.0
496,1159.562,104.0
497,1162.097,104.0
498,1164.630,103.0
499,1167.163,103.0
500,1169.695,104.0
501,1172.225,105.0
502,1174.755,102.0
503,1177.284,105.0
504,1179.812,104.0
505,1182.338,104.0
506,1184.864,105.0
507,1187.389,105.0
508,1189.913,105.0
509,1192.436,104.0
510,1194.959,105.0
511,1197.480,106.0
512,1200.000,104.0
513,1202.519,107.0
514,1205.038,105.0
515,1207.555,102.0
516,1210.071,107.0
517,1212.587,107.0
518,1215.101,104.0
519,1217.615,103.0
520,1220.128,105.0
521,1222.639,105.0
522,1225.150,105.0
523,1227.660,105.0
524,1230.169,104.0
525,1232.677,105.0
526,1235.184,106.0
527,1237.690,102.0
528,1240.195,104.0
529,1242.699,106.0
530,1245.202,103.0
531,1247.704,104.0
532,1250.206,106.0
533,1252.706,106.0
534,1255.206,105.0
535,1257.704,104.0
536,1260.202,105.0
537,1262.698,103.0
538,1265.194,103.0
539,1267.689,104.0
540,1270.183,104.0
541,1272.676,105.0
542,1275.168,104.0
543,1277.659,104.0
544,1280.149,107.0
545,1282.638,105.0
546,1285.126,106.0
547,1287.613,104.0
548,1290.100,104.0
549,1292.585,103.0
550,1295.070,105.0
551,1297.553,103.0
552,1300.036,104.0
553,1302.517,103.0
554,1304.998,104.0
555,1307.478,105.0
556,1309.957,104.0
557,1312.435,105.0
558,1314.912,105.0
559,1317.388,105.0
560,1319.863,106.0
561,1322.337,106.0
562,1324.811,105.0
563,1327.283,105.0
564,1329.755,103.0
565,1332.225,103.0
566,1334.695,105.0
567,1337.163,105.0
568,1339.631,104.0
569,1342.098,106.0
570,1344.564,105.0
571,1347.029,103.0
572,1349.493,104.0
573,1351.956,106.0
574,1354.418,104.0
575,1356.880,105.0
576,1359.340,103.0
577,1361.800,104.0
578,1364.258,105.0
579,1366.716,104.0
580,1369.172,104.0
581,1371.628,104.0
582,1374.083,104.0
583,1376.537,104.0
584,1378.990,106.0
585,1381.442,104.0
586,1383.893,104.0
587,1386.344,106.0
588,1388.793,104.0
589,1391.241,104.0
590,1393.689,108.0
591,1396.135,103.0
592,1398.581,104.0
593,1401.026,104.0
594,1403.470,104.0
595,1405.913,104.0
596,1408.355,104.0
597,1410.796,106.0
598,1413.236,104.0
599,1415.675,106.0
600,1418.114,106.0
601,1420.551,105.0
602,1422.988,104.0
603,1425.423,103.0
604,1427.858,107.0
605,1430.292,104.0
606,1432.725,105.0
607,1435.157,105.0
608,1437.588,106.0
609,1440.018,105.0
610,1442.447,105.0
611,1444.876,103.0
612,1447.303,104.0
613,1449.730,105.0
614,1452.156,106.0
615,1454.580,104.0
616,1457.004,104.0
617,1459.427,103.0
618,1461.849,105.0
619,1464.270,104.0
620,1466.690,104.0
621,1469.110,105.0
622,1471.528,103.0
623,1473.946,105.0
624,1476.362,105.0
625,1478.778,105.0
626,1481.193,104.0
627,1483.607,104.0
628,1486.020,106.0
629,1488.432,105.0
630,1490.843,108.0
631,1493.253,103.0
632,1495.663,104.0
633,1498.071,105.0
634,1500.479,107.0
635,1502.886,104.0
636,1505.292,107.0
637,1507.697,104.0
638,1510.101,105.0
639,1512.504,106.0
640,1514.906,105.0
641,1517.307,107.0
642,1519.708,103.0
643,1522.107,105.0
644,1524.506,105.0
645,1526.904,105.0
646,1529.301,104.0
647,1531.697,105.0
648,1534.092,104.0
649,1536.486,107.0
650,1538.879,105.0
651,1541.272,105.0
652,1543.663,105.0
653,1546.054,107.0
654,1548.444,104.0
655,1550.832,104.0
656,1553.220,104.0
657,1555.607,104.0
658,1557.994,106.0
659,1560.379,103.0
660,1562.763,104.0
661,1565.147,104.0
662,1567.529,104.0
663,1569.911,105.0
664,1572.292,105.0
665,1574.672,106.0
666,1577.051,106.0
667,1579.429,104.0
668,1581.807,102.0
669,1584.183,105.0
670,1586.559,105.0
671,1588.933,106.0
672,1591.307,103.0
673,1593.680,103.0
674,1596.052,105.0
675,1598.423,104.0
676,1600.794,104.0
677,1603.163,105.0
678,1605.531,105.0
679,1607.899,106.0
680,1610.266,104.0
681,1612.632,107.0
682,1614.997,107.0
683,1617.361,103.0
684,1619.724,104.0
685,1622.086,106.0
686,1624.448,105.0
687,1626.808,104.0
688,1629.168,104.0
689,1631.527,105.0
690,1633.885,104.0
691,1636.242,105.0
692,1638.598,108.0
693,1640.954,104.0
694,1643.308,105.0
695,1645.662,106.0
696,1648.014,103.0
697,1650.366,105.0
698,1652.717,105.0
699,1655.067,107.0
700,1657.417,105.0
701,1659.765,103.0
702,1662.112,106.0
703,1664.459,103.0
704,1666.805,106.0
705,1669.150,104.0
706,1671.494,106.0
707,1673.837,104.0
708,1676.179,105.0
709,1678.520,105.0
710,1680.861,103.0
711,1683.201,106.0
712,1685.539,103.0
713,1687.877,104.0
714,1690.214,106.0
715,1692.551,104.0
716,1694.886,104.0
717,1697.220,105.0
718,1699.554,106.0
719,1701.887,105.0
720,1704.219,104.0
721,1706.550,108.0
722,1708.880,106.0
723,1711.209,105.0
724,1713.537,106.0
725,1715.865,105.0
726,1718.192,106.0
727,1720.518,106.0
728,1722.843,105.0
729,1725.167,105.0
730,1727.490,107.0
731,1729.812,106.0
732,1732.134,107.0
733,1734.455,103.0
734,1736.774,103.0
735,1739.093,107.0
736,1741.411,106.0
737,1743.729,105.0
738,1746.045,104.0
739,1748.361,107.0
740,1750.675,105.0
741,1752.989,107.0
742,1755.302,105.0
743,1757.614,105.0
744,1759.925,104.0
745,1762.236,106.0
746,1764.545,107.0
747,1766.854,105.0
748,1769.162,105.0
749,1771.469,103.0
750,1773.775,105.0
751,1776.080,103.0
752,1778.385,107.0
753,1780.688,107.0
754,1782.991,104.0
755,1785.293,106.0
756,1787.594,104.0
757,1789.894,105.0
758,1792.193,105.0
759,1794.492,106.0
760,1796.789,105.0
761,1799.086,107.0
762,1801.382,106.0
763,1803.677,104.0
764,1805.971,104.0
765,1808.265,106.0
766,1810.557,106.0
767,1812.849,103.0
768,1815.140,104.0
769,1817.430,107.0
770,1819.719,105.0
771,1822.007,104.0
772,1824.295,103.0
773,1826.581,104.0
774,1828.867,107.0
775,1831.152,106.0
776,1833.436,105.0
777,1835.719,104.0
778,1838.002,105.0
779,1840.283,101.0
780,1842.564,105.0
781,1844.844,106.0
782,1847.123,106.0
783,1849.401,104.0
784,1851.678,106.0
785,1853.955,103.0
786,1856.231,105.0
787,1858.506,108.0
788,1860.780,105.0
789,1863.053,105.0
790,1865.325,104.0
791,1867.597,107.0
792,1869.867,105.0
793,1872.137,106.0
794,1874.406,105.0
795,1876.674,104.0
796,1878.941,105.0
797,1881.208,104.0
798,1883.473,107.0
799,1885.738,105.0
800,1888.002,104.0
801,1890.265,107.0
802,1892.528,104.0
803,1894.789,107.0
804,1897.050,104.0
805,1899.310,107.0
806,1901.569,106.0
807,1903.827,105.0
808,1906.084,105.0
809,1908.340,104.0
810,1910.596,106.0
811,1912.851,106.0
812,1915.105,105.0
813,1917.358,105.0
814,1919.610,107.0
815,1921.862,106.0
816,1924.113,108.0
817,1926.362,104.0
818,1928.611,105.0
819,1930.860,105.0
820,1933.107,105.0
821,1935.353,105.0
822,1937.599,106.0
823,1939.844,104.0
824,1942.088,106.0
825,1944.331,106.0
826,1946.574,105.0
827,1948.815,106.0
828,1951.056,104.0
829,1953.296,105.0
830,1955.535,106.0
831,1957.773,107.0
832,1960.011,105.0
833,1962.248,105.0
834,1964.483,104.0
835,1966.718,102.0
836,1968.953,106.0
837,1971.186,105.0
838,1973.418,103.0
839,1975.650,107.0
840,1977.881,106.0
841,1980.111,104.0
842,1982.340,104.0
843,1984.569,106.0
844,1986.797,103.0
845,1989.023,105.0
846,1991.249,104.0
847,1993.474,106.0
848,1995.699,105.0
849,1997.922,104.0
850,2000.145,105.0
851,2002.367,105.0
852,2004.588,105.0
853,2006.808,107.0
854,2009.028,104.0
855,2011.246,104.0
856,2013.464,104.0
857,2015.681,107.0
858,2017.898,106.0
859,2020.113,103.0
860,2022.328,105.0
861,2024.541,106.0
862,2026.754,105.0
863,2028.966,106.0
864,2031.178,103.0
865,2033.388,105.0
866,2035.598,105.0
867,2037.807,104.0
868,2040.015,106.0
869,2042.222,104.0
870,2044.429,107.0
871,2046.634,106.0
872,2048.839,107.0
873,2051.043,106.0
874,2053.247,107.0
875,2055.449,105.0
876,2057.651,106.0
877,2059.851,105.0
878,2062.052,106.0
879,2064.251,105.0
880,2066.449,103.0
881,2068.647,105.0
882,2070.844,107.0
883,2073.040,104.0
884,2075.235,107.0
885,2077.429,106.0
886,2079.623,104.0
887,2081.815,107.0
888,2084.007,106.0
889,2086.199,104.0
890,2088.389,104.0
891,2090.579,104.0
892,2092.767,106.0
893,2094.955,106.0
894,2097.143,105.0
895,2099.329,104.0
896,2101.514,104.0
897,2103.699,106.0
898,2105.883,106.0
899,2108.066,105.0
900,2110.249,104.0
901,2112.430,105.0
902,2114.611,105.0
903,2116.791,105.0
904,2118.970,106.0
905,2121.149,104.0
906,2123.326,105.0
907,2125.503,104.0
908,2127.679,106.0
909,2129.854,106.0
910,2132.029,108.0
911,2134.202,106.0
912,2136.375,104.0
913,2138.547,107.0
914,2140.718,107.0
915,2142.889,103.0
916,2145.058,105.0
917,2147.227,108.0
918,2149.395,105.0
919,2151.563,106.0
920,2153.729,107.0
921,2155.895,105.0
922,2158.060,107.0
923,2160.224,104.0
924,2162.387,106.0
925,2164.550,105.0
926,2166.711,105.0
927,2168.872,106.0
928,2171.033,104.0
929,2173.192,105.0
930,2175.351,106.0
931,2177.508,107.0
932,2179.665,103.0
933,2181.822,108.0
934,2183.977,107.0
935,2186.132,104.0
936,2188.285,106.0
937,2190.439,105.0
938,2192.591,105.0
939,2194.742,104.0
940,2196.893,106.0
941,2199.043,105.0
942,2201.192,105.0
943,2203.341,105.0
944,2205.488,103.0
945,2207.635,106.0
946,2209.781,107.0
947,2211.926,105.0
948,2214.071,105.0
949,2216.214,103.0
950,2218.357,104.0
951,2220.499,103.0
952,2222.641,104.0
953,2224.781,106.0
954,2226.921,105.0
955,2229.060,103.0
956,2231.198,105.0
957,2233.336,105.0
958,2235.472,106.0
959,2237.608,106.0
960,2239.743,105.0
961,2241.878,104.0
962,2244.011,106.0
963,2246.144,106.0
964,2248.276,105.0
965,2250.407,105.0
966,2252.538,104.0
967,2254.667,107.0
968,2256.796,105.0
969,2258.924,106.0
970,2261.052,106.0
971,2263.178,106.0
972,2265.304,106.0
973,2267.429,106.0
974,2269.553,105.0
975,2271.677,106.0
976,2273.800,104.0
977,2275.921,105.0
978,2278.043,106.0
979,2280.163,106.0
980,2282.283,105.0
981,2284.401,106.0
982,2286.520,105.0
983,2288.637,102.0
984,2290.753,106.0
985,2292.869,105.0
986,2294.984,106.0
987,2297.098,103.0
988,2299.212,105.0
989,2301.325,104.0
990,2303.437,105.0
991,2305.548,104.0
992,2307.658,105.0
993,2309.768,105.0
994,2311.877,105.0
995,2313.985,105.0
996,2316.092,106.0
997,2318.199,105.0
998,2320.304,104.0
999,2322.409,104.0
1000,2324.514,105.0
1001,2326.617,105.0
1002,2328.720,104.0
1003,2330.822,106.0
1004,2332.923,103.0
1005,2335.024,107.0
1006,2337.123,107.0
1007,2339.222,108.0
1008,2341.320,106.0
1009,2343.418,106.0
1010,2345.514,107.0
1011,2347.610,103.0
1012,2349.705,105.0
1013,2351.800,107.0
1014,2353.893,105.0
1015,2355.986,104.0
1016,2358.078,105.0
1017,2360.170,106.0
1018,2362.260,105.0
1019,2364.350,105.0
1020,2366.439,105.0
1021,2368.527,106.0
1022,2370.615,106.0
1023,2372.702,105.0
