# kind,background_subtracted
# version_label,v1_poly5
# poly_order,5
# iterations_run,7
pixel_index,raman_shift_cm-1,intensity,background_intensity
0,-224.846,1.839553667301658,97.16044633269834
1,-221.778,0.8349062305991595,97.16509376940084
2,-218.712,0.83016390789669,97.16983609210331
3,-215.647,2.8253272717020366,97.17467272829796
4,-212.583,0.820396893062366,97.17960310693763
5,-209.521,0.815373341565433,97.18462665843457
6,-206.460,2.810257185340916,97.18974281465908
7,-203.399,0.805048991061625,97.19495100893838
8,-200.340,0.0,97.20025067605512
9,-197.283,0.0,97.20564125224631
10,-194.226,1.788877824798135,97.21112217520187
11,-191.171,1.7833071159365517,97.21669288406345
12,-188.116,0.7776471805768779,97.22235281942312
13,-185.064,0.7718985766778985,97.2281014233221
14,-182.012,0.766061860750554,97.23393813924945
15,-178.961,0.0,97.2398624121408
16,-175.912,0.7541263116228976,97.2458736883771
17,-172.864,1.7480285842166836,97.25197141578332
18,-169.817,0.7418449563728586,97.25815504362714
19,-166.771,1.7355759773822825,97.26442402261772
20,-163.726,1.7292221950956161,97.27077780490438
21,-160.683,0.0,97.27721584407536
22,-157.641,2.716262404843519,97.28373759515648
23,-154.600,0.7096574853900819,97.29034251460992
24,-151.560,0.0,97.2970300603329
25,-148.521,1.6962003083435917,97.30379969165641
26,-145.484,0.0,97.31065086934395
27,-142.447,2.6824169444097947,97.3175830555902
28,-139.412,0.0,97.32459571401984
29,-136.379,0.6683116903139137,97.33168830968609
30,-133.346,0.6611396909303693,97.33886030906963
31,-130.314,1.6538888199227841,97.34611118007722
32,-127.284,0.0,97.35344039204038
33,-124.255,1.639152584285796,97.3608474157142
34,-121.227,1.6316682767239854,97.36833172327601
35,-118.200,1.6241072116759057,97.3758927883241
36,-115.175,1.616469914123556,97.38353008587644
37,-112.150,0.6087569076305641,97.39124309236944
38,-109.127,1.6009687143434093,97.39903128565659
39,-106.105,0.5931058549927428,97.40689414500726
40,-103.084,1.5851688488946536,97.41483115110535
41,-100.065,1.5771582139519182,97.42284178604808
42,-97.046,2.569074466655323,97.43092553334468
43,-94.029,1.5609181220849706,97.43908187791503
44,-91.013,1.5526896939114607,97.44731030608854
45,-87.998,1.5443896943972675,97.45561030560273
46,-84.984,1.5360186343979763,97.46398136560202
47,-81.972,0.5275770233635626,97.47242297663644
48,-78.960,1.5190653693396996,97.4809346306603
49,-75.950,0.5104841789690227,97.48951582103098
50,-72.941,0.50183395749238,97.49816604250762
51,-69.933,0.49311520875015447,97.50688479124985
52,-66.927,0.4843284351835564,97.51567156481644
53,-63.921,1.475474137835846,97.52452586216415
54,-60.917,0.4665528163536692,97.53344718364633
55,-57.914,1.4575649689882937,97.5424350310117
56,-54.912,0.4485110925969309,97.55148890740307
57,-51.911,0.0,97.560608317356
58,-48.912,0.4302072332023812,97.56979276679762
59,-45.913,1.4209582369547462,97.57904176304525
60,-42.916,0.4116451851948,97.5883548148052
61,-39.920,1.4022685678285711,97.59773143217143
62,-36.925,1.39282887337572,97.60717112662428
63,-33.931,1.3833265889707604,97.61667341102924
64,-30.939,2.3737622003644105,97.62623779963559
65,-27.947,2.3641361919248,97.6358638080752
66,-24.957,6.354449046638834,97.64555095336117
67,-21.968,2.3447012461134022,97.6552987538866
68,-18.980,1.3348932705766572,97.66510672942334
69,-15.993,0.0,97.67497440112061
70,-13.008,1.3150987084961798,97.68490129150382
71,-10.023,2.3051130755267906,97.69488692447321
72,-7.040,1.2950691746973604,97.70493082530264
73,-4.058,0.2849674793617396,97.71503252063826
74,-1.077,0.0,97.72519153849726
75,1.903,0.26459259173346084,97.73540740826654
76,4.881,0.25432033929848785,97.74567966070151
77,7.859,1.2439921720752665,97.75600782792473
78,10.835,0.23360855657533364,97.76639144342467
79,13.810,1.223169957945558,97.77683004205444
80,16.784,1.2126768399695322,97.78732316003047
81,19.757,1.202129665068739,97.79787033493126
82,22.728,0.0,97.8084711056961
83,25.699,0.1808749873762423,97.81912501262376
84,28.668,2.1701684026287467,97.82983159737125
85,31.636,0.0,97.84059040295253
86,34.603,1.1485990262628434,97.85140097373716
87,37.569,1.1377371445508544,97.86226285544915
88,40.534,1.1268244048344371,97.87317559516556
89,43.497,0.0,97.8841387413153
90,46.460,0.10484815632221967,97.89515184367778
91,49.421,0.09378554661829241,97.90621445338171
92,52.381,0.0,97.91732612290372
93,55.340,1.0715135939328206,97.92848640606718
94,58.297,1.0603051419591338,97.93969485804087
95,61.254,0.049048964662318895,97.95095103533768
96,64.209,0.03774550418661704,97.96225449581338
97,67.164,2.026395201334708,97.97360479866529
98,70.117,2.0149984955689604,97.98500150443104
99,73.069,2.0035558250127394,97.99644417498726
100,76.020,2.9920676264516857,98.00793237354831
101,78.969,1.980534335334994,98.019465664665
102,81.918,1.9689563857766643,98.03104361422334
103,84.865,1.957334210556823,98.04266578944318
104,87.811,0.9456682411229878,98.05433175887701
105,90.757,1.9339589075913608,98.06604109240864
106,93.700,3.922206638748065,98.07779336125193
107,96.643,1.9104118620504948,98.0895881379495
108,99.585,0.0,98.10142499637149
109,102.525,0.0,98.11330351171418
110,105.465,1.874776739501172,98.12522326049883
111,108.403,2.8628161794296716,98.13718382057033
112,111.340,0.8508152289040822,98.14918477109592
113,114.276,2.83877430743604,98.16122569256396
114,117.211,3.8266938332174334,98.17330616678257
115,120.144,0.814574223121582,98.18542577687842
116,123.077,0.8024158927045875,98.19758410729541
117,126.008,1.7902192562065835,98.20978074379342
118,128.938,0.7779847265530151,98.22201527344698
119,131.868,0.76571271535596,98.23428728464404
120,134.795,0.7534036329153224,98.24659636708468
121,137.722,1.7410578882202117,98.25894211177979
122,140.648,2.728675888950164,98.27132411104984
123,143.572,1.7162580414764363,98.28374195852356
124,146.496,0.0,98.29619524913673
125,149.418,3.691316420869242,98.30868357913076
126,152.339,1.6787934539484155,98.32120654605158
127,155.259,2.6662362512517745,98.33376374874823
128,158.178,1.6536452126283763,98.34635478737162
129,161.096,0.6410207366267144,98.35897926337329
130,164.012,0.6283632204959417,98.37163677950406
131,166.928,1.6156730601871772,98.38432693981282
132,169.842,0.0,98.39704934964517
133,172.755,1.590196384357796,98.4098036156422
134,175.667,0.577410654260774,98.42258934573923
135,178.578,0.0,98.43540614916442
136,181.488,0.5517463635623869,98.44825363643761
137,184.397,1.5388685806310036,98.461131419369
138,187.304,0.5259608889421941,98.4740391110578
139,190.211,0.0,98.48697632589109
140,193.116,0.5000573204576142,98.49994267954239
141,196.020,1.4870622110295244,98.51293778897048
142,198.923,2.4740387275819273,98.52596127241807
143,201.825,0.4609872505894117,98.53901274941059
144,204.726,1.4479081592452303,98.55209184075477
145,207.625,3.4348018314624937,98.5651981685375
146,210.524,0.42166864387547776,98.57833135612452
147,213.421,1.4085089718409591,98.59149102815904
148,216.318,2.395323189439395,98.6046768105606
149,219.213,0.38211166947628783,98.61788833052371
150,222.107,1.3688747834834487,98.63112521651655
151,225.000,1.3556129017202494,98.64438709827975
152,227.891,1.3423263931749148,98.65767360682509
153,230.782,2.329015625565816,98.67098437443418
154,233.672,2.31568096534275,98.68431903465725
155,236.560,1.3023227776882038,98.6976772223118
156,239.447,2.2889414265186474,98.71105857348135
157,242.333,1.2755372744858136,98.72446272551419
158,245.218,2.2621106829779762,98.73788931702202
159,248.102,1.2486620121212155,98.75133798787878
160,250.985,0.23519162078073919,98.76480837921926
161,253.867,1.221699866562119,98.77830013343788
162,256.748,1.2081871058126126,98.79181289418739
163,259.627,1.1946536936223993,98.8053463063776
164,262.505,1.1810999838258738,98.81890001617413
165,265.383,1.1675263290029818,98.83247367099702
166,268.259,4.153933080480414,98.84606691951959
167,271.134,3.1403205883329264,98.85967941166707
168,274.008,0.12668920138466433,98.87331079861534
169,276.880,3.1130392672103397,98.88696073278966
170,279.752,3.099371132136625,98.90062886786338
171,282.623,2.0856851412433457,98.91431485875665
172,285.492,1.071981638364818,98.92801836163518
173,288.360,1.0582609660911118,98.94173903390889
174,291.228,3.044523465769288,98.95547653423071
175,294.094,1.0307694775047764,98.96923052249522
176,296.959,4.016999340162556,98.98300065983744
177,299.823,0.003213391368475982,98.99678660863152
178,302.685,1.989411967510577,99.01058803248942
179,305.547,0.9755954037403001,99.0244045962597
180,308.408,2.961764033973793,99.0382359660262
181,311.267,0.947918190893219,99.05208180910678
182,314.126,0.9340582059480198,99.06594179405198
183,316.983,2.9201844093561675,99.07981559064383
184,319.839,0.0,99.0937028698945
185,322.694,3.892396695954943,99.10760330404506
186,325.548,1.8784834334358322,99.12151656656417
187,328.401,0.8645576678531768,99.13544233214682
188,331.253,3.850619723286968,99.14938027671303
189,334.103,0.8366699225933871,99.16333007740661
190,336.953,3.822708587406183,99.17729141259382
191,339.801,2.80873603813788,99.19126396186212
192,342.649,0.0,99.20524740601893
193,345.495,0.0,99.21924142709024
194,348.340,0.7667542916805274,99.23324570831947
195,351.184,0.7527400658339047,99.2472599341661
196,354.027,0.0,99.26128379030436
197,356.869,0.7246830363779537,99.27531696362205
198,359.709,1.7106408577808168,99.28935914221918
199,362.549,0.6965899845932739,99.30341001540673
200,365.388,0.6825307262946438,99.31746927370536
201,368.225,0.6684633911559104,99.33153660884409
202,371.061,2.654388286240902,99.3456117137591
203,373.897,1.6403057174076423,99.35969428259236
204,376.731,0.0,99.37378401069044
205,379.564,0.0,99.38788059460315
206,382.396,3.598016267917714,99.40198373208229
207,385.227,1.583906877919631,99.41609312208037
208,388.057,1.56979153525063,99.43020846474937
209,390.885,2.5556705385606193,99.44432946143938
210,393.713,1.5415441853026266,99.45845581469737
211,396.539,1.5274127717340917,99.47258722826591
212,399.365,1.513276592918146,99.48672340708185
213,402.189,0.0,99.50086405727511
214,405.012,0.48499111383269167,99.51500888616731
215,407.835,0.4708423977294274,99.52915760227057
216,410.656,1.4566900847137845,99.54330991528622
217,413.476,2.4425344638965925,99.55746553610341
218,416.295,2.428375823201989,99.57162417679801
219,419.112,1.4142144493688278,99.58578555063117
220,421.929,2.400050627951856,99.59994937204814
221,424.745,0.3858846433230383,99.61411535667696
222,427.559,1.3717167786728766,99.62828322132712
223,430.373,0.35754731601161893,99.64245268398838
224,433.185,0.0,99.65662346382943
225,435.996,1.3292047188033678,99.67079528119663
226,438.807,2.3150321423872953,99.6849678576127
227,441.616,0.3008590842245127,99.69914091577549
228,444.424,0.2866858204433811,99.71331417955662
229,447.231,0.2725126259997097,99.72748737400029
230,450.037,0.0,99.74166022532197
231,452.842,0.0,99.75583246090707
232,455.645,0.22999619069028654,99.77000380930971
233,458.448,1.21582599974856,99.78417400025144
234,461.250,1.201657235380054,99.79834276461995
235,464.050,0.18749016553225317,99.81250983446775
236,466.849,2.173325056989043,99.82667494301096
237,469.648,1.1591621753720176,99.84083782462798
238,472.445,2.1450017851417726,99.85499821485823
239,475.241,2.1308441495991417,99.86915585040086
240,478.036,1.116689530886518,99.88331046911348
241,480.830,0.1025381899891471,99.89746181001085
242,483.623,0.0,99.91160961326366
243,486.415,1.0742463798028155,99.92575362019718
244,489.206,1.0601064267099645,99.93989357329004
245,491.996,1.0459707838271441,99.95402921617286
246,494.784,4.031839706372921,99.96816029362708
247,497.572,7.017713448416345,99.98228655158366
248,500.358,5.003592262878314,99.99640773712169
249,503.144,9.989476401532784,100.01052359846722
250,505.928,14.975366115008015,100.02463388499199
251,508.712,22.961261652787954,100.03873834721205
252,511.494,20.947163263213454,100.05283673678655
253,514.275,7.933071193483542,100.06692880651646
254,517.055,5.918985689656736,100.08101431034326
255,519.834,0.9049069966523007,100.0950930033477
256,522.612,3.890835358251536,100.10916464174846
257,525.389,1.8767710170990597,100.12322898290094
258,528.165,2.8627142147040843,100.13728578529592
259,530.940,0.0,100.15133480855827
260,533.713,1.8346241865542225,100.16537581344578
261,536.486,2.820591438152263,100.17940856184774
262,539.257,0.0,100.19343281678373
263,542.028,0.0,100.20744834240236
264,544.797,0.7785450960200677,100.22145490397993
265,547.566,1.764547732080814,100.23545226791919
266,550.333,1.750559798251956,100.24944020174804
267,553.099,2.736581525881718,100.26341847411828
268,555.864,1.7226131451957087,100.27738685480429
269,558.629,1.7086548852982446,100.29134511470176
270,561.392,1.6947069741735703,100.30529302582643
271,564.154,0.6807696386872237,100.31923036131278
272,566.915,1.6668431045872154,100.33315689541278
273,569.674,3.6529275965053785,100.34707240349462
274,572.433,0.6390233379586618,100.36097666204134
275,575.191,1.6251305513503382,100.37486944864966
276,577.948,0.6112494579713399,100.38875054202866
277,580.703,0.0,100.40261972199845
278,583.458,0.583523230511048,100.41647676948895
279,586.211,0.0,100.43032146653863
280,588.964,0.0,100.44415359629312
281,591.715,1.5420270569959342,100.45797294300407
282,594.466,1.5282207079722525,100.47177929202775
283,597.215,2.514427570176153,100.48557242982385
284,599.963,0.5006478560458589,100.49935214395414
285,602.710,1.4868817769187643,100.51311822308124
286,605.457,3.473129543032684,100.52687045696732
287,608.202,0.4593913635272173,100.54060863647278
288,610.946,0.4456674464449293,100.55433255355507
289,613.689,1.4319579987327131,100.56804200126729
290,616.431,1.4182632262430133,100.58173677375699
291,619.172,0.0,100.59541666626485
292,621.911,0.3909185248765681,100.60908147512343
293,624.650,0.0,100.62273099775588
294,627.388,1.3636349673253818,100.63636503267462
295,630.125,0.0,100.6499833794801
296,632.860,0.336414161140425,100.66358583885958
297,635.595,1.3228277874143402,100.67717221258566
298,638.328,1.309257696484778,100.69074230351522
299,641.061,1.2957040844119945,100.704295915588
300,643.792,0.2821671461746149,100.71783285382539
301,646.523,1.2686470756709554,100.73135292432904
302,649.252,2.2551440657202306,100.74485593427977
303,651.980,1.2416583080639185,100.75834169193608
304,654.708,1.2281899933669678,100.77181000663303
305,657.434,1.2147393112191338,100.78526068878087
306,660.159,1.201306450136201,100.7986935498638
307,662.883,1.1878915975613467,100.81210840243865
308,665.606,0.0,100.82550506013366
309,668.328,1.1611166623528675,100.83888333764713
310,671.049,1.1477569492537896,100.85224305074621
311,673.769,2.134415983734442,100.86558401626556
312,676.488,0.12109394789391104,100.87890605210609
313,679.206,1.107791022766321,100.89220897723368
314,681.923,1.0945073883220573,100.90549261167794
315,684.639,0.08124322346915847,100.91875677653084
316,687.354,2.0679987060544818,100.93200129394552
317,690.067,2.054774012865053,100.94522598713495
318,692.780,2.041569319629346,100.95843068037065
319,695.492,2.028384801018518,100.97161519898148
320,698.202,2.0152206306477183,100.98477936935228
321,700.912,0.0,100.9979230189226
322,703.621,0.9889540238145145,101.01104597618549
323,706.328,1.9758519293139187,101.02414807068608
324,709.035,0.0,101.03722913302049
325,711.740,0.949711005165625,101.05028899483437
326,714.444,2.9366725111782728,101.06332748882173
327,717.148,1.923655551276397,101.0763444487236
328,719.850,0.0,101.08933970932681
329,722.552,1.897686893537383,101.10231310646262
330,725.252,1.8847355229944327,101.11526447700557
331,727.951,0.0,101.12819365887204
332,730.649,0.0,101.14110049101909
333,733.347,1.8460151865568406,101.15398481344316
334,736.043,0.8331535328212567,101.16684646717874
335,738.738,0.8203147057028559,101.17968529429714
336,741.432,0.0,101.19250113790518
337,744.125,0.7947061578560977,101.2052938421439
338,746.817,0.0,101.21806325218735
339,749.508,0.0,101.23080921424119
340,752.198,0.0,101.24353157554154
341,754.887,0.7437698156463881,101.25623018435361
342,757.575,1.731095110029571,101.26890488997043
343,760.262,2.718444457288399,101.2815555427116
344,762.948,0.7058180060779904,101.29418199392201
345,765.633,1.6932159040294579,101.30678409597054
346,768.317,1.6806382977512442,101.31936170224876
347,770.999,1.6680853328303158,101.33191466716968
348,773.681,0.0,101.3444428461665
349,776.362,1.6430539043087578,101.35694609569124
350,779.042,0.6305757267864607,101.36942427321354
351,781.720,0.6181227627806436,101.38187723721936
352,784.398,0.6056951527903323,101.39430484720967
353,787.075,0.0,101.4067069636992
354,789.751,1.580916551784867,101.41908344821513
355,792.425,0.5685658367041242,101.43143416329588
356,795.099,0.556241027510282,101.44375897248972
357,797.771,0.5439422596464283,101.45605774035357
358,800.443,1.531669667548286,101.46833033245171
359,803.114,0.5194233846455063,101.4805766153545
360,805.783,0.5072035433629907,101.49279645663701
361,808.452,0.0,101.5049897248779
362,811.119,2.4828437103419674,101.51715628965803
363,813.786,0.4707039784408238,101.52929602155918
364,816.451,1.4585912078371734,101.54140879216283
365,819.116,1.4465055259511956,101.5534944740488
366,821.779,0.0,101.56555294079408
367,824.442,0.4224159330286028,101.5775840669714
368,827.103,0.41041227185192497,101.58958772814808
369,829.763,1.3984361991152952,101.6015638008847
370,832.423,0.38648783726617353,101.61351216273383
371,835.081,0.3745673077612963,101.6254326922387
372,837.739,1.3626747310679974,101.637325268932
373,840.395,1.350810226665459,101.64918977333454
374,843.050,2.3389739130460185,101.66102608695398
375,845.705,0.3271659077164344,101.67283409228357
376,848.358,0.3153863271991355,101.68461367280086
377,851.010,1.303635287033572,101.69636471296643
378,853.662,2.2919129017774367,101.70808709822256
379,856.312,1.2802192850080019,101.719780714992
380,858.961,0.2685545493232979,101.7314454506767
381,861.610,1.2569188063435348,101.74308119365647
382,864.257,0.2453121667122531,101.75468783328775
383,866.903,1.2337347400977023,101.7662652599023
384,869.549,0.2221866351940207,101.77781336480598
385,872.193,2.210667959722656,101.78933204027734
386,874.836,1.1991788204334881,101.80082117956651
387,877.478,0.1877193231062364,101.81228067689376
388,880.120,0.1762895725516529,101.82371042744835
389,882.760,2.1648896726128726,101.83511032738713
390,885.399,1.1535197261666355,101.84648027383336
391,888.037,1.1421798351246224,101.85782016487538
392,890.675,1.130870100434663,101.86912989956534
393,893.311,0.11959062208208593,101.88040937791791
394,895.946,2.108341499090983,101.89165850090902
395,898.580,0.0,101.90287717047455
396,901.214,0.0,101.91406528950908
397,903.846,0.07477723813541104,101.92522276186459
398,906.477,2.06365050765082,101.93634949234918
399,909.107,1.0525546132741965,101.9474453867258
400,911.737,1.0414896482890157,101.95851035171098
401,914.365,2.0304557050264975,101.9695442949735
402,916.992,3.019452874866843,101.98054712513316
403,919.618,0.008481248240499895,101.9915187517595
404,922.244,0.9975409146295391,102.00245908537046
405,924.868,2.986631962568822,102.01336803743118
406,927.491,0.9757544796473354,102.02424552035266
407,930.113,3.9649085525094847,102.03509144749052
408,932.735,1.9540942668563446,102.04590573314366
409,935.355,1.943311707446938,102.05668829255306
410,937.974,1.9325609580995575,102.06743904190044
411,940.592,1.9218421016930023,102.078157898307
412,943.210,0.9111552201678563,102.08884477983214
413,945.826,1.9005003945278247,102.09949960547218
414,948.441,2.8898777048409556,102.11012229515904
415,951.056,1.8792872302409336,102.12071276975907
416,953.669,1.8687290489283725,102.13127095107163
417,956.281,1.8582032381721234,102.14179676182788
418,958.893,0.0,102.15229012568953
419,961.503,0.83724903275251,102.16275096724749
420,964.112,2.8268207879793437,102.17317921202066
421,966.721,0.8164252135454575,102.18357478645454
422,969.328,1.8060623820798867,102.19393761792011
423,971.935,2.795732365287577,102.20426763471242
424,974.540,0.0,102.21456476604934
425,977.144,3.775171057929711,102.22482894207029
426,979.748,1.7649399061650257,102.23506009383497
427,982.350,0.7547418466779021,102.2452581533221
428,984.952,0.0,102.25542305342805
429,987.552,0.7344452720343497,102.26555472796565
430,990.152,1.7243468883371236,102.27565311166288
431,992.750,2.7142818598384366,102.28571814016156
432,995.348,0.7042502499838577,102.29574975001614
433,997.944,0.0,102.30574787869234
434,1000.540,3.6842875354340805,102.31571246456592
435,1003.134,1.6743565530786242,102.32564344692138
436,1005.728,0.0,102.33554076595067
437,1008.321,0.6545956372480504,102.34540436275195
438,1010.912,1.6447658206717364,102.35523417932826
439,1013.503,1.6349698414137066,102.3650301585863
440,1016.092,2.6252077556649454,102.37479224433505
441,1018.681,0.6154796187153977,102.3845203812846
442,1021.269,1.6057854849551916,102.39421451504481
443,1023.856,1.5961254078759737,102.40387459212403
444,1026.441,2.586499440072174,102.41350055992783
445,1029.026,2.5769076332422713,102.42309236675773
446,1031.610,1.5673500381900993,102.4326499618099
447,1034.193,3.5578267048261125,102.44217329517389
448,1036.775,0.0,102.45166231783136
449,1039.355,0.5388830183452455,102.46111698165475
450,1041.935,0.0,102.47053723940608
451,1044.514,0.5200769552644147,102.47992304473559
452,1047.092,1.51072564781947,102.48927435218053
453,1049.669,2.501408882836202,102.4985911171638
454,1052.245,0.4921267040072479,102.50787329599275
455,1054.820,0.48287915414213956,102.51712084585786
456,1057.394,0.4736662751685543,102.52633372483145
457,1059.967,0.46448810813359387,102.5355118918664
458,1062.539,0.45534469320507753,102.54465530679492
459,1065.110,0.4462360696727927,102.55376393032721
460,1067.681,1.4371622759498308,102.56283772405017
461,1070.250,0.0,102.57187665042622
462,1072.818,2.419119327208122,102.58088067279188
463,1075.385,2.41015024464339,102.58984975535661
464,1077.951,2.401216136798567,102.59878386320143
465,1080.517,0.0,102.60768296227775
466,1083.081,2.3834529805940434,102.61654701940596
467,1085.644,1.3746239977257488,102.62537600227425
468,1088.207,1.3658301205626913,102.63416987943731
469,1090.768,1.3570713796849816,102.64292862031502
470,1093.329,0.34834780480883865,102.65165219519116
471,1095.888,1.339659424787797,102.6603405752122
472,1098.447,0.3310062676140433,102.66899373238596
473,1101.004,0.3223883604196942,102.6776116395803
474,1103.561,1.3138057294780339,102.68619427052197
475,1106.116,0.3052584002048633,102.69474159979514
476,1108.671,4.296746397159694,102.7032536028403
477,1111.225,1.2882697440471276,102.71173025595287
478,1113.777,0.27982846371804726,102.72017153628195
479,1116.329,1.2714225781709558,102.72857742182904
480,1118.880,1.263052108553211,102.73694789144679
481,1121.430,0.2547170751623753,102.74528292483762
482,1123.979,2.2464174974474105,102.75358250255259
483,1126.527,0.2381533940100411,102.76184660598996
484,1129.074,0.2299247826059485,102.77007521739405
485,1131.620,2.221731680146121,102.77826831985388
486,1134.165,2.213574102698132,102.78642589730187
487,1136.709,3.205452065487364,102.79454793451264
488,1139.252,2.1973655828983425,102.80263441710166
489,1141.794,0.1893146684760012,102.810685331524
490,1144.335,2.1812993349269334,102.81870066507307
491,1146.875,3.1733195941207413,102.82668040587926
492,1149.415,0.0,102.83462454290876
493,1151.953,3.1574669340377994,102.8425330659622
494,1154.490,1.1495940343265687,102.85040596567343
495,1157.027,2.1417567664918096,102.85824323350819
496,1159.562,1.1339551382371411,102.86604486176286
497,1162.097,1.1261891564368227,102.87381084356318
498,1164.630,0.11845882713708988,102.88154117286291
499,1167.163,0.11076415555733377,102.88923584444267
500,1169.695,1.1031051460914654,102.89689485390853
501,1172.225,2.095481802309166,102.90451819769083
502,1174.755,0.0,102.91210587304285
503,1177.284,2.0803421219605127,102.91965787803949
504,1179.812,1.072825788423927,102.92717421157607
505,1182.338,1.0653451266329483,102.93465487336705
506,1184.864,2.0579001360553235,102.94209986394468
507,1187.389,2.050490815342286,102.94950918465771
508,1189.913,2.04311716232975,102.95688283767025
509,1192.436,1.035779174039689,102.96422082596031
510,1194.959,2.028476846681343,102.97152315331866
511,1197.480,3.0212101756525556,102.97878982434744
512,1200.000,1.0139791555410085,102.98602084445899
513,1202.519,4.006783780125545,102.99321621987445
514,1205.038,1.9996240423774054,103.0003759576226
515,1207.555,0.0,103.00750006553847
516,1210.071,3.9854114477378744,103.01458855226213
517,1212.587,3.978358572762616,103.02164142723738
518,1215.101,0.9713412992894916,103.02865870071051
519,1217.615,0.0,103.03564038372896
520,1220.128,1.95741351185994,103.04258648814006
521,1222.639,1.950502973410238,103.04949702658976
522,1225.150,1.9436279874786209,103.05637201252138
523,1227.660,1.9367885398257414,103.06321146017426
524,1230.169,0.9299846154174958,103.0700153845825
525,1232.677,1.9232161984262461,103.07678380157375
526,1235.184,2.9164832722321563,103.08351672776784
527,1237.690,0.0,103.09021418057552
528,1240.195,0.9031238218027937,103.0968761781972
529,1242.699,2.896497260378311,103.10350273962169
530,1245.202,0.0,103.11009388462487
531,1247.704,0.8833503662315678,103.11664963376843
532,1250.206,2.8768299916014115,103.12317000839859
533,1252.706,2.8703449693551875,103.12965503064481
534,1255.206,1.8638952765814452,103.13610472341855
535,1257.704,0.8574808895880466,103.14251911041195
536,1260.202,1.8511017839034594,103.14889821609654
537,1262.698,0.0,103.15524206572196
538,1265.194,0.0,103.16155068531477
539,1267.689,0.832175898322987,103.16782410167701
540,1270.183,0.8259376576149293,103.17406234238507
541,1272.676,1.8197345642116858,103.18026543578831
542,1275.168,0.8135665889921597,103.18643341100784
543,1277.659,0.8074337020647988,103.1925662979352
544,1280.149,3.801335872768931,103.19866412723107
545,1282.638,1.7952730696759431,103.20472693032406
546,1285.126,2.789245260590647,103.21075473940935
547,1287.613,0.7832524125525282,103.21674758744747
548,1290.100,0.7772944918370399,103.22270550816296
549,1292.585,0.0,103.22862853604312
550,1295.070,1.7654832936632232,103.23451670633678
551,1297.553,0.0,103.2403700550529
552,1300.036,0.7538113810405775,103.24618861895942
553,1302.517,0.0,103.25197243558189
554,1304.998,0.7422784567977914,103.25772154320221
555,1307.478,1.7365640191426337,103.26343598085737
556,1309.957,0.730884211661845,103.26911578833815
557,1312.435,1.7252389938121127,103.27476100618789
558,1314.912,1.7196283242989097,103.28037167570109
559,1317.388,1.7140521610777455,103.28594783892225
560,1319.863,2.708510461355459,103.29148953864454
561,1322.337,2.7030031815914697,103.29699681840853
562,1324.811,1.697530277499098,103.3024697225009
563,1327.283,1.6920917040468595,103.30790829595314
564,1329.755,0.0,103.31331258454033
565,1332.225,0.0,103.3186826347798
566,1334.695,1.67598150607013,103.32401849392987
567,1337.163,1.6706797900114196,103.32932020998858
568,1339.631,0.6654121683075971,103.3345878316924
569,1342.098,2.6601785914850495,103.33982140851495
570,1344.564,1.6549790093342835,103.34502099066572
571,1347.029,0.0,103.35018662908877
572,1349.493,0.6446816245385207,103.35531837546148
573,1351.956,2.6395837178067296,103.36041628219327
574,1354.418,0.6345195975757036,103.3654804024243
575,1356.880,1.6294892099758016,103.3705107900242
576,1359.340,0.0,103.37550749959075
577,1361.800,0.619529413551291,103.38047058644871
578,1364.258,1.6145998933516097,103.38540010664839
579,1366.716,0.6097038830355217,103.39029611696448
580,1369.172,0.6048413251052693,103.39515867489473
581,1371.628,0.6000121613413398,103.39998783865866
582,1374.083,0.5952163328036733,103.40478366719633
583,1376.537,0.5904537798330267,103.40954622016697
584,1378.990,2.5857244420522107,103.41427555794779
585,1381.442,0.5810282583673541,103.41897174163265
586,1383.893,0.5763651669692251,103.42363483303077
587,1386.344,2.571735105334483,103.42826489466552
588,1388.793,0.5671380102269694,103.43286198977303
589,1391.241,0.5625738176989898,103.43742618230101
590,1393.689,4.55804246309259,103.44195753690741
591,1396.135,0.0,103.44645611895916
592,1398.581,0.5490780054691129,103.45092199453089
593,1401.026,0.5446447695963457,103.45535523040365
594,1403.470,0.540244105936381,103.45975589406362
595,1405.913,0.5358759462991856,103.46412405370081
596,1408.355,0.5315402217921132,103.46845977820789
597,1410.796,2.527236862821283,103.47276313717872
598,1413.236,0.5229657990927876,103.47703420090721
599,1415.675,2.518726959613943,103.48127304038606
600,1418.114,2.514520272694668,103.48547972730533
601,1420.551,1.5103456659486767,103.48965433405132
602,1422.988,0.506203066294816,103.49379693370518
603,1425.423,0.0,103.49790760004171
604,1427.858,3.4980135924719775,103.50198640752802
605,1430.292,0.4939665686777488,103.50603343132225
606,1432.725,1.48995125272765,103.51004874727235
607,1435.157,1.485967568085286,103.51403243191471
608,1437.588,2.482015437527025,103.51798456247298
609,1440.018,1.4780947831433053,103.5219052168567
610,1442.447,1.4742055263399294,103.52579447366007
611,1444.876,0.0,103.52965241216067
612,1447.303,0.4665208876818667,103.53347911231813
613,1449.730,1.4627253452270708,103.53727465477293
614,1452.156,2.458960879154972,103.54103912084503
615,1454.580,0.4552274074673335,103.54477259253267
616,1457.004,0.4515248474889546,103.54847515251105
617,1459.427,0.0,103.552146884131
618,1461.849,1.4442121285821514,103.55578787141785
619,1464.270,0.44060180093002543,103.55939819906997
620,1466.690,0.43702204754239915,103.5629779524576
621,1469.110,1.433472782378459,103.56652721762154
622,1471.528,0.0,103.57004608127187
623,1473.946,1.4264653692133322,103.57353463078667
624,1476.362,1.423007045789248,103.57699295421075
625,1478.778,1.4195788597456698,103.58042114025433
626,1481.193,0.4161807217081872,103.58381927829181
627,1483.607,0.41281254163952497,103.58718745836048
628,1486.020,2.4094742288408213,103.59052577115918
629,1488.432,1.4061656919528787,103.59383430804712
630,1490.843,4.402886838957485,103.59711316104251
631,1493.253,0.0,103.60036242282135
632,1495.663,0.3964178132839322,103.60358218671607
633,1498.071,1.3932274532856894,103.60677254671431
634,1500.479,3.3900664025423453,103.60993359745765
635,1502.886,0.3869345657597165,103.61306543424028
636,1505.292,3.3838318469922513,103.61616815300775
637,1507.697,0.3807581496443504,103.61924185035565
638,1510.101,1.3777133764715757,103.62228662352842
639,1512.504,2.374697429582028,103.62530257041797
640,1514.906,1.3717102104375556,103.62828978956244
641,1517.307,3.368751619855061,103.63124838014494
642,1519.708,0.0,103.63417844199225
643,1522.107,1.3629199244265067,103.6370800755735
644,1524.506,1.3600466180010216,103.63995338199898
645,1526.904,1.3572015369812362,103.64279846301876
646,1529.301,0.3543845789784825,103.64561542102152
647,1531.697,1.3515956409668775,103.64840435903312
648,1534.092,0.3488346192845171,103.65116538071548
649,1536.486,3.3461014096348123,103.65389859036519
650,1538.879,1.3433959070877393,103.65660409291226
651,1541.272,1.3407180060811186,103.65928199391888
652,1543.663,1.3380676004219083,103.66193239957809
653,1546.054,3.33544458328754,103.66455541671246
654,1548.444,0.3328488472270692,103.66715115277293
655,1550.832,0.33028028416255495,103.66971971583745
656,1553.220,0.32773878539033774,103.67226121460966
657,1555.607,0.32522424158226215,103.67477575841774
658,1557.994,2.3227365427869984,103.677263457213
659,1560.379,0.0,103.67972442156865
660,1562.763,0.31784123732147407,103.68215876267853
661,1565.147,0.3154334076441785,103.68456659235582
662,1567.529,0.3130519769682394,103.68694802303176
663,1569.911,1.3106968322456538,103.68930316775435
664,1572.292,1.3083678598128898,103.69163214018711
665,1574.672,2.3060649453922366,103.69393505460776
666,1577.051,2.3037879740930265,103.69621202590697
667,1579.429,0.30153683041294244,103.69846316958706
668,1581.807,0.0,103.70068860176072
669,1584.183,1.2971115608502828,103.70288843914972
670,1586.559,1.294937200916337,103.70506279908366
671,1588.933,2.292788200501292,103.70721179949871
672,1591.307,0.0,103.7093355589362
673,1593.680,0.0,103.71143419654153
674,1596.052,1.2864921679372543,103.71350783206275
675,1598.423,0.28444341415072927,103.71555658584927
676,1600.794,0.282419421149271,103.71758057885073
677,1603.163,1.2804200673844548,103.71957993261555
678,1605.531,1.2784452307102754,103.72155476928972
679,1607.899,2.2764947883844115,103.72350521161559
680,1610.266,0.27456861706960467,103.7254313829304
681,1612.632,3.2726665928347813,103.72733340716522
682,1614.997,3.2707885911564745,103.72921140884353
683,1617.361,0.0,103.73106551307995
684,1619.724,0.2671041544209629,103.73289584557904
685,1622.086,2.265297467366082,103.73470253263392
686,1624.448,1.2635142988749521,103.73648570112505
687,1626.808,0.26175452148105194,103.73824547851895
688,1629.168,0.2600180071331408,103.73998199286686
689,1631.527,1.2583046271964378,103.74169537280356
690,1633.885,0.2566142524539998,103.743385747546
691,1636.242,1.2549467531079586,103.74505324689204
692,1638.598,4.253301998780785,103.74669800121922
693,1640.954,0.2516798585166242,103.74832014148338
694,1643.308,1.2500802007824774,103.74991979921752
695,1645.662,2.2485028934696345,103.75149710653037
696,1648.014,0.0,103.75305219610523
697,1650.366,1.2454147988014057,103.7545852011986
698,1652.717,1.2439037443610488,103.75609625563895
699,1655.067,3.242414506174569,103.75758549382543
700,1657.417,1.2409469492733933,103.7590530507266
701,1659.765,0.0,103.76049906187913
702,1662.112,2.238076336613503,103.7619236633865
703,1664.459,0.0,103.76332699191778
704,1666.805,2.235290815293709,103.76470918470629
705,1669.150,0.23392962045164722,103.76607037954835
706,1671.494,2.2325892851979887,103.76741071480201
707,1673.837,0.2312696706142674,103.76873032938573
708,1676.179,1.2299706372228627,103.77002936277714
709,1678.520,1.2286920449882643,103.77130795501174
710,1680.861,0.0,103.77256624668159
711,1683.201,2.226195621065898,103.7738043789341
712,1685.539,0.0,103.77502249347071
713,1687.877,0.2237792674544039,103.7762207325456
714,1690.214,2.222600761035622,103.77739923896438
715,1692.551,0.22144184391709132,103.77855815608291
716,1694.886,0.22030237219406956,103.77969762780593
717,1697.220,1.219182201414199,103.7808177985858
718,1699.554,2.2180811865787433,103.78191881342126
719,1701.887,1.2169991821439368,103.78300081785606
720,1704.219,0.21593604202220718,103.78406395797779
721,1706.550,4.214891619583483,103.78510838041652
722,1708.880,2.213865767656472,103.78613423234353
723,1711.209,1.2128583385299265,103.78714166147007
724,1713.537,2.2118691839539224,103.78813081604608
725,1715.865,1.2108981551411944,103.7891018448588
726,1718.192,2.2099451027683585,103.79005489723164
727,1720.518,2.209009876977177,103.79099012302282
728,1722.843,1.2080923273759225,103.79190767262408
729,1725.167,1.2071923030405571,103.79280769695944
730,1727.490,3.2063096525160972,103.7936903474839
731,1729.812,2.2054442238178353,103.79455577618216
732,1732.134,3.20459586443269,103.79540413556731
733,1734.455,0.0,103.79623557867963
734,1736.774,0.0,103.79705025908521
735,1739.093,3.2021516691252714,103.79784833087473
736,1741.411,2.201370051337804,103.7986299486622
737,1743.729,1.2006047324163944,103.7993952675836
738,1746.045,0.1998555567043212,103.80014444329568
739,1748.361,3.1991223680253853,103.80087763197461
740,1750.675,1.1984050096852172,103.80159499031478
741,1752.989,3.197703324472556,103.80229667552744
742,1755.302,1.1970171546605286,103.80298284533947
743,1757.614,1.196346342007942,103.80365365799206
744,1759.925,0.1956907277605211,103.80430927223948
745,1762.236,2.195050152652243,103.80494984734776
746,1764.545,3.194424456906603,103.8055755430934
747,1766.854,1.1938134802378357,103.80618651976216
748,1769.162,1.1932170618522946,103.8067829381477
749,1771.469,0.0,103.80736495955033
750,1773.775,1.192067254224284,103.80793274577572
751,1776.080,0.0,103.80848645913365
752,1778.385,3.1909737375633114,103.80902626243669
753,1780.688,3.1904476810010465,103.80955231899895
754,1782.991,0.18993520736522385,103.81006479263478
755,1785.293,2.189436152342509,103.81056384765749
756,1787.594,0.18895035112190328,103.8110496488781
757,1789.894,1.1884776383959945,103.811522361604
758,1792.193,1.1880178483622643,103.81198215163774
759,1794.492,2.1875708147243245,103.81242918527568
760,1796.789,1.1871363706932243,103.81286362930678
761,1799.086,3.186714348988744,103.81328565101126
762,1801.382,2.1863045818406732,103.81369541815933
763,1803.677,0.18590690099006224,103.81409309900994
764,1805.971,0.18552113769050038,103.8144788623095
765,1808.265,2.1851471227094663,103.81485287729053
766,1810.557,2.1847846863295075,103.81521531367049
767,1812.849,0.0,103.8155663416504
768,1815.140,0.18409386808642125,103.81590613191358
769,1817.430,3.183765144375556,103.81623485562444
770,1819.719,1.183447315572863,103.81655268442714
771,1822.007,0.18314020955571664,103.81685979044428
772,1824.295,0.0,103.81715634627568
773,1826.581,0.1825574750029091,103.81744252499709
774,1828.867,3.182281499841139,103.81771850015886
775,1831.152,2.182015554215269,103.81798444578473
776,1833.436,1.1817594636295183,103.81824053637048
777,1835.719,0.18151305311727128,103.81848694688273
778,1838.002,1.1812761472424143,103.81872385275759
779,1840.283,0.0,103.81895142989936
780,1842.564,1.180830145320627,103.81916985467937
781,1844.844,2.180620696065418,103.81937930393458
782,1847.123,2.1804200450336566,103.81957995496634
783,1849.401,0.1802280144608801,103.81977198553912
784,1851.678,2.180044426120787,103.81995557387921
785,1853.955,0.0,103.82013089867345
786,1856.231,1.1797018609320276,103.82029813906797
787,1858.506,4.179542525333133,103.82045747466687
788,1860.780,1.1793909144690389,103.82060908553096
789,1863.053,1.179246847823535,103.82075315217647
790,1865.325,0.179110144426204,103.8208898555738
791,1867.597,3.178980622853814,103.82101937714619
792,1869.867,1.1788581012315262,103.82114189876847
793,1872.137,2.1787423972342026,103.8212576027658
794,1874.406,1.1786333280876562,103.82136667191234
795,1876.674,0.17853071056998715,103.82146928943001
796,1878.941,1.1784343610128332,103.82156563898717
797,1881.208,0.1783440953026343,103.82165590469737
798,1883.473,3.178259728881912,103.82174027111809
799,1885.738,1.1781810767506045,103.8218189232494
800,1888.002,0.1781079534672756,103.82189204653272
801,1890.265,3.1780401731504497,103.82195982684955
802,1892.528,0.17797754947987698,103.82202245052012
803,1894.789,3.1779198956977694,103.82208010430223
804,1897.050,0.17786702461016546,103.82213297538983
805,1899.310,3.1778187485881375,103.82218125141186
806,1901.569,2.1777748795690997,103.8222251204309
807,1903.827,1.177735229058115,103.82226477094189
808,1906.084,1.1776996081291315,103.82230039187087
809,1908.340,0.1776678274262622,103.82233217257374
810,1910.596,2.1776396971651053,103.8223603028349
811,1912.851,2.1776150271340384,103.82238497286596
812,1915.105,1.1775936266953835,103.82240637330462
813,1917.358,1.177575304786842,103.82242469521316
814,1919.610,3.1775598699226606,103.82244013007734
815,1921.862,2.1775471301949665,103.82245286980503
816,1924.113,4.177536893275047,103.82246310672495
817,1926.362,0.17752896641457028,103.82247103358543
818,1928.611,1.177523156447009,103.82247684355299
819,1930.860,1.1775192697887036,103.8224807302113
820,1933.107,1.1775171124403698,103.82248288755963
821,1935.353,1.177516489988193,103.8224835100118
822,1937.599,2.1775172076052485,103.82248279239475
823,1939.844,0.1775190700526963,103.8224809299473
824,1942.088,2.1775218816810877,103.82247811831891
825,1944.331,2.177525446431659,103.82247455356834
826,1946.574,1.1775295678375954,103.8224704321624
827,1948.815,2.1775340490252972,103.8224659509747
828,1951.056,0.17753869271572853,103.82246130728427
829,1953.296,1.177543301225569,103.82245669877443
830,1955.535,2.1775476764686488,103.82245232353135
831,1957.773,3.1775516199571285,103.82244838004287
832,1960.011,1.177554932802778,103.82244506719722
833,1962.248,1.17755741571834,103.82244258428166
834,1964.483,0.17755886901869644,103.8224411309813
835,1966.718,0.0,103.82244090737774
836,1968.953,2.177557886052142,103.82244211394786
837,1971.186,1.1775550484375685,103.82244495156243
838,1973.418,0.0,103.82244962148498
839,1975.650,3.1775436746296037,103.8224563253704
840,1977.881,2.1775347347363123,103.82246526526369
841,1980.111,0.17752335640129502,103.8224766435987
842,1982.340,0.17750933680314063,103.82249066319686
843,1984.569,2.1774924727341727,103.82250752726583
844,1986.797,0.0,103.82252743939831
845,1989.023,1.17744939642931,103.82255060357069
846,1991.249,0.1774227758581759,103.82257722414182
847,1993.474,2.177392494148336,103.82260750585166
848,1995.699,1.1773583461798864,103.82264165382011
849,1997.922,0.17732012645437578,103.82267987354562
850,2000.145,1.1772776290960678,103.82272237090393
851,2002.367,1.177230647853122,103.82276935214688
852,2004.588,1.1771789760990004,103.822821023901
853,2006.808,3.1771224068336608,103.82287759316634
854,2009.028,0.1770607326849074,103.82293926731509
855,2011.246,0.17699374590958428,103.82300625409042
856,2013.464,0.17692123839493945,103.82307876160506
857,2015.681,3.1768430016598757,103.82315699834012
858,2017.898,2.176758826856215,103.82324117314378
859,2020.113,0.0,103.82333149523004
860,2022.328,1.176571825822677,103.82342817417732
861,2024.541,2.176468580072651,103.82353141992735
862,2026.754,1.1763585572162185,103.82364144278378
863,2028.966,2.1762415465890967,103.8237584534109
864,2031.178,0.0,103.82388266283246
865,2033.388,1.1759857175697874,103.82401428243021
866,2035.598,1.1758464760571883,103.82415352394281
867,2037.807,0.17569940053557787,103.82430059946442
868,2040.015,2.1755442785565293,103.82445572144347
869,2042.222,0.17538089731858975,103.82461910268141
870,2044.429,3.175209043668687,103.82479095633131
871,2046.634,2.1750285041032242,103.82497149589678
872,2048.839,3.1748390647695572,103.82516093523044
873,2051.043,2.174640511467132,103.82535948853287
874,2053.247,3.1744326296488197,103.82556737035118
875,2055.449,1.174215204422211,103.82578479557779
876,2057.651,2.173988020550823,103.82601197944918
877,2059.851,1.1737508624555204,103.82624913754448
878,2062.052,2.1735035142156534,103.82649648578435
879,2064.251,1.1732457595703778,103.82675424042962
880,2066.449,0.0,103.82702261807998
881,2068.647,1.1726981643272296,103.82730183567277
882,2070.844,3.1724078895183396,103.82759211048166
883,2073.040,0.17210633988464963,103.82789366011535
884,2075.235,3.171793297483646,103.82820670251635
885,2077.429,2.1714685440403656,103.82853145595963
886,2079.623,0.17113186094857724,103.82886813905142
887,2081.815,3.1707830292721724,103.82921697072783
888,2084.007,2.1704218297463598,103.82957817025364
889,2086.199,0.17004804277897279,103.82995195722103
890,2088.389,0.16966144845176245,103.83033855154824
891,2090.579,0.16926182652169075,103.83073817347831
892,2092.767,2.1688489564221385,103.83115104357786
893,2094.955,2.168422617264298,103.8315773827357
894,2097.143,1.1679825878383383,103.83201741216166
895,2099.329,0.16752864661478384,103.83247135338522
896,2101.514,0.1670605717457221,103.83293942825428
897,2103.699,2.1665781410661253,103.83342185893387
898,2105.883,2.1660811320951154,103.83391886790488
899,2108.066,1.1655693220372427,103.83443067796276
900,2110.249,0.16504248778377928,103.83495751221622
901,2112.430,1.164500405914012,103.83549959408599
902,2114.611,1.163942852696465,103.83605714730353
903,2116.791,1.163369604090235,103.83663039590976
904,2118.970,2.1627804357462708,103.83721956425373
905,2121.149,0.16217512300862325,103.83782487699138
906,2123.326,1.1615534409157249,103.83844655908428
907,2125.503,0.16091516420172525,103.83908483579827
908,2127.679,2.1602600672977132,103.83973993270229
909,2129.854,2.159587924332996,103.840412075667
910,2132.029,4.158898509136435,103.84110149086357
911,2134.202,2.158191595237682,103.84180840476232
912,2136.375,0.1574669558684434,103.84253304413156
913,2138.547,3.156724363963832,103.84327563603617
914,2140.718,3.1559635921635874,103.84403640783641
915,2142.889,0.0,103.84481558718666
916,2145.058,1.1543865979659813,103.84561340203402
917,2147.227,4.153569919382818,103.84643008061718
918,2149.395,1.1527341485349893,103.84726585146501
919,2151.563,2.1518790566046277,103.84812094339537
920,2153.729,3.1510044144862377,103.84899558551376
921,2155.895,1.1501099927878613,103.84989000721214
922,2158.060,3.1491955618325136,103.85080443816749
923,2160.224,0.14826089165930512,103.8517391083407
924,2162.387,2.147305752024849,103.85269424797515
925,2164.550,1.1463299124044397,103.85367008759556
926,2166.711,1.1453331419934045,103.8546668580066
927,2168.872,2.144315209708367,103.85568479029163
928,2171.033,0.14327588418848336,103.85672411581152
929,2173.192,1.1422149337968222,103.85778506620318
930,2175.351,2.1411321266215424,103.85886787337846
931,2177.508,3.140027230477216,103.85997276952278
932,2179.665,0.0,103.86109998709391
933,2181.822,4.137750241179447,103.86224975882055
934,2183.977,3.136577682298764,103.86342231770124
935,2186.132,0.13538210299707032,103.86461789700293
936,2188.285,2.1341632697402133,103.86583673025979
937,2190.439,1.1329209487281418,103.86707905127186
938,2192.591,1.1316549058961556,103.86834509410384
939,2194.742,0.1303649069162276,103.86963509308377
940,2196.893,2.1290507171982824,103.87094928280172
941,2199.043,1.127712101891433,103.87228789810857
942,2201.192,1.1263488258852874,103.87365117411471
943,2203.341,1.1249606538112857,103.87503934618871
944,2205.488,0.0,103.87645264995615
945,2207.635,2.122108678701821,103.87789132129818
946,2209.781,3.120644403649578,103.87935559635042
947,2211.926,1.1191542884984784,103.88084571150152
948,2214.071,1.1176380966080046,103.882361903392
949,2216.214,0.0,103.88390440891287
950,2218.357,0.11452653479555863,103.88547346520444
951,2220.499,0.0,103.88706930965499
952,2222.641,0.11130782010053508,103.88869217989946
953,2224.781,2.109657686181734,103.89034231381827
954,2226.921,1.107980050464107,103.8920199495359
955,2229.060,0.0,103.89372532541972
956,2231.198,1.1045413199212817,103.89545868007872
957,2233.336,1.1027797476378822,103.89722025236212
958,2235.472,2.1009897186418414,103.89901028135816
959,2237.608,2.0991709936071743,103.90082900639283
960,2239.743,1.0973233329714134,103.90267666702859
961,2241.878,0.09544649693697238,103.90455350306303
962,2244.011,2.09354024547234,103.90645975452766
963,2246.144,2.0916043383134024,103.9083956616866
964,2248.276,1.0896385349647346,103.91036146503527
965,2250.407,1.0876425947008102,103.91235740529919
966,2252.538,0.08561627656740711,103.91438372343259
967,2254.667,3.0835593393827594,103.91644066061724
968,2256.796,1.081471541738921,103.91852845826108
969,2258.924,2.079352642003002,103.920647357997
970,2261.052,2.0772023983184624,103.92279760168154
971,2263.178,2.075020568606419,103.92497943139358
972,2265.304,2.0728069105668965,103.9271930894331
973,2267.429,2.0705611816801053,103.9294388183199
974,2269.553,1.068283139207736,103.93171686079226
975,2271.677,2.065972540194224,103.93402745980578
976,2273.800,0.06362914146806986,103.93637085853193
977,2275.921,1.0612526996430631,103.93874730035694
978,2278.043,2.058842971119603,103.9411570288804
979,2280.163,2.0563997120859625,103.94360028791404
980,2282.283,1.0539226785195979,103.9460773214804
981,2284.401,2.0514116261883686,103.94858837381163
982,2286.520,1.04886631065186,103.95113368934814
983,2288.637,0.0,103.95371351273731
984,2290.753,2.043671911167735,103.95632808883227
985,2292.869,1.0410223373094283,103.95897766269057
986,2294.984,2.038337520427035,103.96166247957296
987,2297.098,0.0,103.96438278494202
988,2299.212,1.0328611755390966,103.9671388244609
989,2301.325,0.030069156007812126,103.96993084399219
990,2303.437,1.0272409104036484,103.97275908959635
991,2305.548,0.024376192469276248,103.97562380753072
992,2307.658,1.0214747557519246,103.97852524424808
993,2309.768,1.018536353604631,103.98146364639537
994,2311.877,1.0155607391875208,103.98443926081248
995,2313.985,1.0125476654691,103.9874523345309
996,2316.092,2.0094968852274633,103.99050311477254
997,2318.199,1.0064081510516871,103.99359184894831
998,2320.304,0.0032812153430796798,103.99671878465692
999,2322.409,0.00011583031637485419,103.99988416968363
1000,2324.514,0.9969117480011107,104.00308825199889
1001,2326.617,0.99366872024288,104.00633127975712
1002,2328.720,0.0,104.0096135012954
1003,2330.822,1.9870648348677804,104.01293516513222
1004,2332.923,0.0,104.01629651996615
1005,2335.024,2.9803021853254137,104.01969781467459
1006,2337.123,2.976860701687528,104.02313929831247
1007,2339.222,3.9733787798889466,104.02662122011105
1008,2341.320,1.9698561705234567,104.03014382947654
1009,2343.418,1.9662926240111887,104.03370737598881
1010,2345.514,2.9626878905997813,104.03731210940022
1011,2347.610,0.0,104.04095827963422
1012,2349.705,0.9553538632158052,104.0446461367842
1013,2351.800,2.9516240688879805,104.04837593111202
1014,2353.893,0.9478520869530485,104.05214791304695
1015,2355.986,0.0,104.05596233318423
1016,2358.078,0.9401805577161753,104.05981944228382
1017,2360.170,1.9362805087307748,104.06371949126923
1018,2362.260,0.9323372687739919,104.06766273122601
1019,2364.350,0.9283505865992794,104.07164941340072
1020,2366.439,0.9243202108004738,104.07567978919953
1021,2368.527,1.9202458898131454,104.07975411018685
1022,2370.615,1.9161273719156782,104.08387262808432
1023,2372.702,0.9119644052308047,104.0880355947692
