pixel_index,raman_shift_cm-1,intensity
0,200.000,0.005290092048958372
1,201.000,0.0028101616487525654
2,202.000,0.002913400956084164
3,203.000,-0.002250165529152461
4,204.000,0.00287123792037178
5,205.000,0.00071333420954301
6,206.000,0.003478150400306057
7,207.000,-0.0013531756130372523
8,208.000,-0.000809497124258821
9,209.000,-0.0022412045710605874
10,210.000,-0.0025342998554339323
11,211.000,0.0003369616514941959
12,212.000,0.0012420292666901881
13,213.000,-0.0034429846135650734
14,214.000,0.0037871945712202697
15,215.000,0.0001734354722562112
16,216.000,-0.0006454514219656394
17,217.000,-0.0009708833052568982
18,218.000,0.0020463433766596912
19,219.000,-0.002215296627413518
20,220.000,-0.0014593378616880844
21,221.000,-0.0014792860950435197
22,222.000,0.00042893940867589156
23,223.000,0.00015211728135388345
24,224.000,-0.0027680970871612905
25,225.000,0.002500589876243408
26,226.000,0.0010293699572416419
27,227.000,-0.0010198553874327066
28,228.000,0.0018823553659306127
29,229.000,0.0020560399134549887
30,230.000,0.0003677537071922899
31,231.000,0.00023301209743676948
32,232.000,0.0031032262116734493
33,233.000,0.0031493566402191406
34,234.000,0.0006939043417168104
35,235.000,0.0004165188581854444
36,236.000,0.0022360115065749855
37,237.000,-0.0029314660935175173
38,238.000,0.00092223145734311
39,239.000,-0.0005322869765767696
40,240.000,0.003547633725145477
41,241.000,0.006233141091150744
42,242.000,0.0020689603224151322
43,243.000,0.008857687547552966
44,244.000,0.0024327511694485376
45,245.000,0.006863707810273354
46,246.000,0.0010285135181391388
47,247.000,0.003909331932578092
48,248.000,0.004217120370494213
49,249.000,0.0007695899456031152
50,250.000,0.006316999076799635
51,251.000,0.006741324338606163
52,252.000,0.002119239717361063
53,253.000,0.007076749756560407
54,254.000,0.005310447969298827
55,255.000,0.00438834641883882
56,256.000,0.00817946305875304
57,257.000,0.008175969020353427
58,258.000,0.00967084195788787
59,259.000,0.005110452740175405
60,260.000,0.011780531141755434
61,261.000,0.0071159839848397
62,262.000,0.014322063887958517
63,263.000,0.0132706980115531
64,264.000,0.014323660187735131
65,265.000,0.013905542369532231
66,266.000,0.01808657919127605
67,267.000,0.019485607368682042
68,268.000,0.0194500238694053
69,269.000,0.025453972789687862
70,270.000,0.021311986834434346
71,271.000,0.032780885268193685
72,272.000,0.036462993280242786
73,273.000,0.04133132136422365
74,274.000,0.04934047719155533
75,275.000,0.062446239002465424
76,276.000,0.06763576953167705
77,277.000,0.07953351035632912
78,278.000,0.09022646055457854
79,279.000,0.10332201482003599
80,280.000,0.11771545496436837
81,281.000,0.12129091594889344
82,282.000,0.1250946621153018
83,283.000,0.12703554944733514
84,284.000,0.11585883964848709
85,285.000,0.10483790506877147
86,286.000,0.0944391883310229
87,287.000,0.0750871752580285
88,288.000,0.06814696009601148
89,289.000,0.05870265425582425
90,290.000,0.049946310947220005
91,291.000,0.04363312020271717
92,292.000,0.04012893440953997
93,293.000,0.02998540490098988
94,294.000,0.027125732279068355
95,295.000,0.02616431133664966
96,296.000,0.02121247322400376
97,297.000,0.021262163153998353
98,298.000,0.017159933475800172
99,299.000,0.012849914085948806
100,300.000,0.0176132529279619
101,301.000,0.009011879070771516
102,302.000,0.0066844114644261515
103,303.000,0.016300846404061205
104,304.000,0.01606744166120187
105,305.000,0.0058672036374355935
106,306.000,0.006363169858985589
107,307.000,0.010832186039234682
108,308.000,0.00489217136666663
109,309.000,0.006373270387119763
110,310.000,0.007240950089900264
111,311.000,0.00465646274964736
112,312.000,0.0037841366987950574
113,313.000,0.002033772845172502
114,314.000,0.004420153610449765
115,315.000,0.0059871748171715896
116,316.000,0.0036683859301870703
117,317.000,0.00557569934753384
118,318.000,0.008083008331550253
119,319.000,0.0017053899206432403
120,320.000,0.0054319767833416075
121,321.000,0.0015682184904743715
122,322.000,0.0034054028348313543
123,323.000,0.004148631143052258
124,324.000,0.0020137583142634643
125,325.000,0.003821127911627375
126,326.000,0.001669390350257817
127,327.000,0.0027489995216396015
128,328.000,0.00644810282089649
129,329.000,0.006545090485439804
130,330.000,0.0033022354154836836
131,331.000,0.0025389432379979353
132,332.000,0.004702433823211816
133,333.000,0.0059190942652849665
134,334.000,0.001747107862820771
135,335.000,0.0002586842633726274
136,336.000,0.0015871783366302797
137,337.000,0.0019007613548498849
138,338.000,0.005753827986954473
139,339.000,0.002817212401188453
140,340.000,-0.0020783570209848405
141,341.000,0.0017551776147988114
142,342.000,0.003386737572720382
143,343.000,0.002732206150096498
144,344.000,0.001498556424625759
145,345.000,0.0010044375879258677
146,346.000,-0.002847954699619396
147,347.000,0.0004927163334591128
148,348.000,0.006355714574879002
149,349.000,0.0044081300850149115
150,350.000,-0.0007280395603580626
151,351.000,-0.0020788389676896575
152,352.000,-0.0030874915238753393
153,353.000,0.002351715116864931
154,354.000,0.0016974357500056515
155,355.000,0.0027644029706708527
156,356.000,0.005678196137283274
157,357.000,0.0009710137184501273
158,358.000,0.00026893759601030097
159,359.000,0.000417537586074813
160,360.000,0.0002156013028461303
161,361.000,-8.250652480283141e-05
162,362.000,7.958040935206125e-05
163,363.000,0.001563659148308931
164,364.000,0.002588908761904886
165,365.000,0.005768728428587335
166,366.000,-0.0033269740543911304
167,367.000,0.000698275928456493
168,368.000,-0.00018351804768723757
169,369.000,0.004207518986157782
170,370.000,0.0005062512165125372
171,371.000,-0.00011313490284348172
172,372.000,0.00041815371185352073
173,373.000,0.0029344231652225954
174,374.000,0.004456945551603453
175,375.000,0.0019047171599174588
176,376.000,0.0022638518961225814
177,377.000,0.00019818934690447323
178,378.000,0.002888157846445383
179,379.000,0.0038580088929576774
180,380.000,0.0026509860672905856
181,381.000,0.0024063562828686123
182,382.000,0.0007217271576096126
183,383.000,0.0015387349246748637
184,384.000,-0.00048742811129259876
185,385.000,0.00010920862237662722
186,386.000,-0.0019365155129149193
187,387.000,0.0011919060352891513
188,388.000,-0.004801753989816275
189,389.000,0.003986573639953203
190,390.000,0.001454975993988608
191,391.000,0.002960835423808477
192,392.000,0.0031718300038974874
193,393.000,0.00017590462404773694
194,394.000,0.006347615283149551
195,395.000,0.003241382852932169
196,396.000,-0.0005580515505385958
197,397.000,0.0009098404585193881
198,398.000,-0.0014653243099799192
199,399.000,-0.0009879610169786556
200,400.000,0.0005597741609007805
201,401.000,-0.000490509917855138
202,402.000,2.3857102492515026e-05
203,403.000,-0.0010122225446225154
204,404.000,0.003032046927262454
205,405.000,0.005929536002419757
206,406.000,0.00012879240039686727
207,407.000,-0.001405289882389939
208,408.000,0.000972506883319061
209,409.000,0.0014975700515981749
210,410.000,0.0012395229911656453
211,411.000,-0.004343818158023057
212,412.000,0.0042387517846620565
213,413.000,0.002160797506263861
214,414.000,0.0005235453581776469
215,415.000,0.0031828286149902835
216,416.000,-0.0018120871785571504
217,417.000,0.004815086456621297
218,418.000,0.0015030617566472021
219,419.000,0.0014533654528906077
220,420.000,0.005237368222590494
221,421.000,0.004952788614173122
222,422.000,0.00614270879935394
223,423.000,0.002512669676429011
224,424.000,0.00424172833622651
225,425.000,0.002817580538091307
226,426.000,0.003340248561119004
227,427.000,-0.00045077787122458415
228,428.000,0.0022381291482054975
229,429.000,0.00280561678435299
230,430.000,0.0016848651375749157
231,431.000,0.004376148409498574
232,432.000,0.0015936444893331922
233,433.000,0.0024787561984826964
234,434.000,-0.0038644821264962824
235,435.000,-0.0016512700092239567
236,436.000,0.002317493253722739
237,437.000,-0.0009845448427152404
238,438.000,4.3712663367272494e-05
239,439.000,0.0017728596595483574
240,440.000,0.004100108798016427
241,441.000,-0.0014093948319614399
242,442.000,0.0006329499304744029
243,443.000,0.004921053941106845
244,444.000,-0.0007146069926306833
245,445.000,0.0035326413811754783
246,446.000,0.0014596824919914648
247,447.000,0.0012425199422619652
248,448.000,-0.0014062338545527866
249,449.000,0.0018662411524465884
250,450.000,0.0021949513378694057
251,451.000,0.0022082978554042606
252,452.000,-0.00121103474086613
253,453.000,0.001876283268215105
254,454.000,0.0014910545132767914
255,455.000,0.0026129977631259337
256,456.000,0.0019522969692330541
257,457.000,-0.0017243914031879273
258,458.000,-0.0007749604974032193
259,459.000,-0.0006719457697991903
260,460.000,0.003515443712576166
261,461.000,0.0029018881191064643
262,462.000,-0.0010395263674641097
263,463.000,-0.004124603899111443
264,464.000,0.00169936967214616
265,465.000,0.0005879136963867013
266,466.000,0.0036729891196019154
267,467.000,0.0011480208283547785
268,468.000,-0.0011004315982710356
269,469.000,0.0012139981578711124
270,470.000,0.00152149021198437
271,471.000,0.0030810260274040605
272,472.000,-0.0002203495619341304
273,473.000,0.0006077241707665769
274,474.000,0.002873421140261317
275,475.000,-0.001481786768473717
276,476.000,0.00274868000565775
277,477.000,0.005101510822119695
278,478.000,-0.0020042597321854325
279,479.000,0.0010811371573841253
280,480.000,-0.0003937195635982417
281,481.000,-1.0531469421205313e-05
282,482.000,0.004127243022293331
283,483.000,0.005966840084541753
284,484.000,0.0033636132365014526
285,485.000,0.0020003683055411646
286,486.000,0.0016262643544521964
287,487.000,-0.003061385637981886
288,488.000,0.00367455041676753
289,489.000,-0.004141242362609943
290,490.000,0.0009128315515819801
291,491.000,0.004374004423628041
292,492.000,0.004366967183399045
293,493.000,0.004167075760579872
294,494.000,-0.0003398284550874247
295,495.000,-0.0012660556769875319
296,496.000,-0.0025629613776968906
297,497.000,0.003942951912574544
298,498.000,0.003121462859639148
299,499.000,-0.000543778248224316
300,500.000,0.004543968975240766
301,501.000,-0.0007904025621271601
302,502.000,-0.002555929689924956
303,503.000,0.0007251285559579471
304,504.000,0.0027419945388349734
305,505.000,-0.00018055636416230682
306,506.000,0.002927255812507256
307,507.000,-0.0008904236967359193
308,508.000,-0.0040336562345765605
309,509.000,0.0006534719110019245
310,510.000,0.00037116069181000305
311,511.000,0.001241217540999759
312,512.000,0.0011112459706441914
313,513.000,0.003929477546098296
314,514.000,-0.0006514716637220149
315,515.000,-0.0022170229102026445
316,516.000,0.0010752086917232783
317,517.000,0.00096576788979961
318,518.000,0.0025369471544864713
319,519.000,0.004622138308030942
320,520.000,0.0014433114791671223
321,521.000,0.000671277960039247
322,522.000,0.0004606086723941934
323,523.000,0.004312837630720296
324,524.000,0.0014977768108163634
325,525.000,0.004947143080402859
326,526.000,-0.0020126401116549652
327,527.000,0.003323773607441407
328,528.000,0.0027721858910551692
329,529.000,-0.0007101431577599362
330,530.000,0.0010301791493915519
331,531.000,-0.0005727869875115424
332,532.000,0.00665829552366676
333,533.000,-0.002152490675137649
334,534.000,0.002999965394254588
335,535.000,0.0027802655139364998
336,536.000,0.0006956435472357341
337,537.000,0.0019060531939702832
338,538.000,0.003199704655630601
339,539.000,-0.004015487515870798
340,540.000,0.003141165964372832
341,541.000,-0.0034452416388761216
342,542.000,0.00033446418415242907
343,543.000,0.005064373866002762
344,544.000,-0.0018185447654907017
345,545.000,0.0006485943373633363
346,546.000,0.003060606797539405
347,547.000,-0.001667323621219573
348,548.000,0.002253730774688752
349,549.000,-0.000342309971371931
350,550.000,0.0008086094080254139
351,551.000,7.890718969021445e-05
352,552.000,0.0010989704065182408
353,553.000,0.0028804230030991663
354,554.000,0.005264863658548017
355,555.000,0.0002831041046529256
356,556.000,-0.0004932006870387073
357,557.000,-0.0017134630781579822
358,558.000,0.0019656529676708163
359,559.000,0.001673496836574402
360,560.000,0.0025570408482537637
361,561.000,-0.001085527853778736
362,562.000,-0.0008662244438794321
363,563.000,0.0035974006041557677
364,564.000,0.003992475012319352
365,565.000,0.003934248532743277
366,566.000,-0.0027640793727742364
367,567.000,0.0020147508550081962
368,568.000,0.002372879449557727
369,569.000,0.0022677167629812753
370,570.000,0.0010648625093595528
371,571.000,0.004168816209481043
372,572.000,-0.0017988203412637384
373,573.000,0.0004634021804296958
374,574.000,-0.0013780551999058254
375,575.000,0.0006971627484575732
376,576.000,0.003179706706985698
377,577.000,0.001642025008969545
378,578.000,-0.0010992681123354695
379,579.000,0.0028784172345900443
380,580.000,0.0013806475392775237
381,581.000,-0.0005687330714417579
382,582.000,0.008983954189932879
383,583.000,0.0029282941409722076
384,584.000,0.0009217607338476961
385,585.000,-0.0005413523566422082
386,586.000,0.0007324976654148944
387,587.000,0.0015206299709971472
388,588.000,0.00011399951505596057
389,589.000,-0.0016272377241096443
390,590.000,0.0026375206497397637
391,591.000,-0.001083445299166012
392,592.000,0.0039839599192465335
393,593.000,0.0007180489426594787
394,594.000,0.0007273219524500715
395,595.000,0.00012951961619223505
396,596.000,0.0005443667282005343
397,597.000,0.0013971912114972283
398,598.000,0.0019500070415629212
399,599.000,0.0027621160093353986
400,600.000,0.004183067345612574
401,601.000,0.0005155779992390649
402,602.000,-0.00023251985317365343
403,603.000,0.0007313151217148686
404,604.000,0.002512124091221863
405,605.000,0.0010169564387331196
406,606.000,-0.00350387829050755
407,607.000,-0.0010305640719186174
408,608.000,-0.00029164609940162523
409,609.000,0.0015956255842833602
410,610.000,-0.0008976146524591787
411,611.000,0.0012235356252301977
412,612.000,-0.0005337550197859233
413,613.000,0.00017915005602232273
414,614.000,0.0030442617428029315
415,615.000,0.003899787870467532
416,616.000,0.0009791627002285318
417,617.000,-0.0026805324677362146
418,618.000,-0.003270654703739633
419,619.000,0.0016431051088428913
420,620.000,0.0008283348527658301
421,621.000,-0.0015266771090478664
422,622.000,-0.00023506952903374408
423,623.000,0.0022258066107609257
424,624.000,0.001899739599380156
425,625.000,0.0013967898487034225
426,626.000,0.0006602981612281125
427,627.000,0.002989072551197064
428,628.000,0.00589919966266189
429,629.000,-0.0002669776494579977
430,630.000,0.0007654908787178835
431,631.000,0.0008194902322515108
432,632.000,0.0026968497436415787
433,633.000,0.002701234621765017
434,634.000,-0.0013351208140000715
435,635.000,0.0012433278015806881
436,636.000,0.0032592539209222865
437,637.000,0.0005312840519200864
438,638.000,0.0002926284451566341
439,639.000,0.00025591717724958245
440,640.000,0.0017517670755676357
441,641.000,0.0013327062962746787
442,642.000,0.0032049938509000732
443,643.000,0.002624957013754384
444,644.000,0.004121118905827349
445,645.000,-0.004093570415651708
446,646.000,-0.0004799481750406816
447,647.000,-0.0016270322036615909
448,648.000,-0.0008755712842888786
449,649.000,0.00235405578084699
450,650.000,0.0001157318136393278
451,651.000,0.00028343011140030596
452,652.000,0.002475841746718051
453,653.000,0.000742275670913711
454,654.000,-0.0006218074000145077
455,655.000,0.004680718843171353
456,656.000,0.00048386916326217824
457,657.000,-0.00023144843993669063
458,658.000,0.0011994370703314308
459,659.000,0.0025879620064542456
460,660.000,0.0003430878561464552
461,661.000,0.002725205057670752
462,662.000,-0.002178823410522893
463,663.000,0.0012059370108907618
464,664.000,0.002882816619168927
465,665.000,0.0013862050500882297
466,666.000,0.0047255306492000925
467,667.000,-0.0019277303293266821
468,668.000,0.0022170639484549873
469,669.000,-0.00026542947536293285
470,670.000,-0.0025046959915648007
471,671.000,-1.6293262475225292e-06
472,672.000,0.003982207405897186
473,673.000,-0.0008168817038290534
474,674.000,0.0007186222832580246
475,675.000,8.428465093054478e-05
476,676.000,0.0027986742029298003
477,677.000,-0.0004919516358370948
478,678.000,0.0009244118544606051
479,679.000,0.005818126140896204
480,680.000,0.0022046930256157857
481,681.000,0.0015877351151192649
482,682.000,-0.0015066518405136135
483,683.000,0.0028931175012373972
484,684.000,0.006023593839955995
485,685.000,0.0008443786701686116
486,686.000,0.0009825750659121252
487,687.000,0.0032385252419239335
488,688.000,0.0004176389224758994
489,689.000,0.0025740207077021926
490,690.000,0.0033812427590679682
491,691.000,0.005662228313204187
492,692.000,0.006090882897252121
493,693.000,0.004489077409235963
494,694.000,0.0013654856654279493
495,695.000,0.01017319565117441
496,696.000,0.0057635408113901
497,697.000,0.006215079403093426
498,698.000,0.0055720561357562644
499,699.000,0.011348074826680266
500,700.000,0.013277462356883518
501,701.000,0.012670646771734816
502,702.000,0.014200107853150542
503,703.000,0.017177714298268205
504,704.000,0.014074572034511153
505,705.000,0.02340315047172809
506,706.000,0.025497433321534257
507,707.000,0.03570685665954851
508,708.000,0.043529387430935124
509,709.000,0.050619936645710545
510,710.000,0.06771690574917345
511,711.000,0.07869576641773218
512,712.000,0.08204348343949303
513,713.000,0.0783391936753461
514,714.000,0.0657331974497485
515,715.000,0.05309000104796962
516,716.000,0.04170850364174372
517,717.000,0.03194825475614388
518,718.000,0.025411494095300087
519,719.000,0.02065147092445686
520,720.000,0.016930754060885046
521,721.000,0.010237684279153003
522,722.000,0.011588815412064678
523,723.000,0.01258176368596356
524,724.000,0.011171883447680652
525,725.000,0.005749799759861199
526,726.000,0.004743734444714792
527,727.000,0.006392492659182235
528,728.000,0.0065188298913698
529,729.000,0.00601945141852412
530,730.000,-0.00021267442498348123
531,731.000,0.00543002994514404
532,732.000,0.006539684481620343
533,733.000,0.007447345098991948
534,734.000,0.003266289478406091
535,735.000,0.004746338168548131
536,736.000,0.0019233569051003644
537,737.000,0.005100239087550588
538,738.000,-0.000610102296150977
539,739.000,0.0014018528105196979
540,740.000,-7.801528412549465e-05
541,741.000,0.0029984749281122196
542,742.000,0.0011096655346586849
543,743.000,0.0005014411569160771
544,744.000,0.004896458918248088
545,745.000,0.00013126397941424709
546,746.000,0.0039040507122418467
547,747.000,3.485613024377047e-05
548,748.000,-0.0009982552880038911
549,749.000,-0.0035016302446722394
550,750.000,0.001280351046895716
551,751.000,0.0023787952667525727
552,752.000,0.0005017229702262251
553,753.000,0.0037849165981593247
554,754.000,0.0023833691229208963
555,755.000,0.0016413111705349953
556,756.000,0.0024183030485571202
557,757.000,0.00264167519733602
558,758.000,0.006355431106543456
559,759.000,-0.000569054601310658
560,760.000,-0.0009290641172792674
561,761.000,0.0027792578834978992
562,762.000,0.001300519909517718
563,763.000,-0.0009102967365803729
564,764.000,0.001642264410376859
565,765.000,0.0003105412063807178
566,766.000,-0.001507221609188052
567,767.000,0.0026622844606645794
568,768.000,-0.000658068779682849
569,769.000,0.0023127320929357507
570,770.000,0.00013245840563991568
571,771.000,0.004404931765541429
572,772.000,0.0020502273902675066
573,773.000,0.0018818685167865353
574,774.000,0.0016248018298560412
575,775.000,0.003272543157152419
576,776.000,-0.003026020433306202
577,777.000,-0.002352735026506388
578,778.000,0.0033274132697364883
579,779.000,0.0020129060087220214
580,780.000,-0.0025622004552128905
581,781.000,-0.00014622460456570932
582,782.000,6.386196436810577e-05
583,783.000,0.005301146943219623
584,784.000,-0.0009017503700384632
585,785.000,0.003785204362358053
586,786.000,-0.0008790940763916597
587,787.000,1.3608954190252223e-05
588,788.000,0.00212021298000096
589,789.000,-0.0008146851329580423
590,790.000,0.0015561227867228677
591,791.000,0.0013336171971467972
592,792.000,0.002771819386380277
593,793.000,0.0003613429954283592
594,794.000,0.00035088494021319255
595,795.000,-0.0006715343745670734
596,796.000,-0.004608055480879286
597,797.000,-0.000875289886800225
598,798.000,0.00010898082229022174
599,799.000,0.0056378882225479555
600,800.000,-0.003352442781200107
601,801.000,-0.001776868185298809
602,802.000,0.0038401415869948304
603,803.000,-8.411342682917923e-05
604,804.000,0.005365518299229266
605,805.000,0.0018531445099508454
606,806.000,-0.0004839059339628791
607,807.000,0.000537405135746865
608,808.000,0.0018523415114365613
609,809.000,0.0019978702407901098
610,810.000,0.0018603237766024706
611,811.000,0.000384148800764852
612,812.000,0.004350039042890802
613,813.000,0.002622612473785456
614,814.000,-0.0001402331418961357
615,815.000,0.0004592920483250155
616,816.000,-0.0005092648041460961
617,817.000,0.0016851180904832
618,818.000,0.002881584579308109
619,819.000,0.0013406525120638138
620,820.000,0.00022952395720504098
621,821.000,-0.0013663924222452636
622,822.000,0.001253479424087503
623,823.000,-0.0003373880905123139
624,824.000,0.0014717102615192739
625,825.000,0.003127883212552087
626,826.000,0.0035711990292285217
627,827.000,0.006951212514190051
628,828.000,0.002858793967847102
629,829.000,-0.0030431435700002205
630,830.000,0.0029680475688650754
631,831.000,-0.0014664014400473284
632,832.000,-0.0008511670262423026
633,833.000,-0.00048681945443051995
634,834.000,-0.003810330667538717
635,835.000,0.0010412140385468436
636,836.000,1.8354117724851935e-05
637,837.000,0.0022544743724591805
638,838.000,0.003417436599432923
639,839.000,0.0023313695072804627
640,840.000,0.0001769897098245282
641,841.000,0.001955270717109241
642,842.000,0.0006267823913302464
643,843.000,-0.0012767921004326274
644,844.000,-0.0002419415703569215
645,845.000,-0.0011553536445450259
646,846.000,-0.0011164331582054672
647,847.000,-0.00018969994066537368
648,848.000,0.00345197624719506
649,849.000,0.0028514260925454056
650,850.000,0.005009062728232897
651,851.000,0.0025678876532630483
652,852.000,-0.0003301880023185457
653,853.000,-0.0032947021546009415
654,854.000,0.00421552841816834
655,855.000,0.00203005883798996
656,856.000,-0.0033567397520914088
657,857.000,0.004202895918926659
658,858.000,0.003824347043740872
659,859.000,-0.0014210698490157412
660,860.000,-0.0033831440484384805
661,861.000,0.0012962346722627614
662,862.000,-0.0007079916934849109
663,863.000,-0.0006401784505487504
664,864.000,-0.0006561732337315707
665,865.000,-0.0010746632270360267
666,866.000,0.000856869914973324
667,867.000,0.0035834015728661026
668,868.000,0.00041156580556472486
669,869.000,0.004064255239067597
670,870.000,-0.00199419238598383
671,871.000,0.0023901869556823517
672,872.000,0.00213325860380691
673,873.000,0.0003498912532125756
674,874.000,0.0031051311405295556
675,875.000,-0.002150164435068603
676,876.000,-2.0265654103047107e-05
677,877.000,0.0025312158000937008
678,878.000,0.004601035640894873
679,879.000,0.0018387333254036935
680,880.000,0.0015522230442260457
681,881.000,-0.0009728472088529521
682,882.000,0.001138354509879801
683,883.000,-0.0011240015156027724
684,884.000,-0.004187802702851623
685,885.000,0.0011326417940813684
686,886.000,-0.0014300836019479454
687,887.000,0.002279962204257247
688,888.000,-0.0006839205738324644
689,889.000,-0.0007363206685400059
690,890.000,0.0021940856460170464
691,891.000,-0.0015493444046011601
692,892.000,0.005192392182682773
693,893.000,0.0008942136604653681
694,894.000,-0.001625175288792644
695,895.000,0.0033289692320255942
696,896.000,-0.002154415897541815
697,897.000,0.0033861763789289237
698,898.000,0.0034912244162601342
699,899.000,0.0024093022214550955
700,900.000,-0.0015926404482431268
701,901.000,0.003080803308556446
702,902.000,0.0033178603491291407
703,903.000,0.0008132945368784345
704,904.000,0.0016387688841719551
705,905.000,-0.0029343638832151657
706,906.000,0.001969841913057173
707,907.000,-0.0005565496374796996
708,908.000,0.0019194207726367866
709,909.000,7.620333692239108e-05
710,910.000,0.002778090427080452
711,911.000,0.0006039755943466192
712,912.000,0.002567750399594464
713,913.000,-0.0004971656887439821
714,914.000,-0.00197129628596996
715,915.000,-0.001956962990141149
716,916.000,-0.00019566991579333753
717,917.000,0.0017459213670076648
718,918.000,-0.0012250591549145572
719,919.000,0.002795250232786882
720,920.000,-0.0021639660864593334
721,921.000,0.0013224494813448228
722,922.000,0.004413710923953179
723,923.000,0.0038645529275926024
724,924.000,0.0017593954459039344
725,925.000,-0.0015342215228646245
726,926.000,-0.0010235472570059288
727,927.000,-0.0008168145691293822
728,928.000,-0.0004277407073315709
729,929.000,-0.0017063802939864228
730,930.000,0.0025967313528117647
731,931.000,0.000965131077614524
732,932.000,-0.0018144537626823176
733,933.000,0.0004585984213618846
734,934.000,0.0034120031573547666
735,935.000,-0.0007346663196546779
736,936.000,0.0036837914023711265
737,937.000,-0.0011349521292140896
738,938.000,-0.002424068097329564
739,939.000,0.0013603640739016012
740,940.000,0.004655622123205988
741,941.000,0.00036994510909674563
742,942.000,-0.0030512256537230283
743,943.000,-0.0011535913801360698
744,944.000,0.001744603743526923
745,945.000,0.0017706163369945647
746,946.000,-0.00027955134690909797
747,947.000,0.0007951442288086711
748,948.000,0.000368363355426928
749,949.000,-0.0015279814281542632
750,950.000,7.555294070436609e-05
751,951.000,0.001310831042134972
752,952.000,0.001839949899450815
753,953.000,0.004275495749862461
754,954.000,0.0010864185460166059
755,955.000,-0.002758172458359641
756,956.000,-0.0026861238774240296
757,957.000,-0.0008098580077028264
758,958.000,0.00044099491524663656
759,959.000,-0.0012622644903266661
760,960.000,0.003707047915301551
761,961.000,-0.0026361589609591807
762,962.000,1.2315296559834617e-06
763,963.000,-0.002688754372179858
764,964.000,0.0007866925567565968
765,965.000,0.0025481829630597305
766,966.000,-0.0014329057327743082
767,967.000,-0.0004064576877944233
768,968.000,0.00010862887743779552
769,969.000,0.003409967938623995
770,970.000,-0.004018789648601194
771,971.000,-0.0005264488407167945
772,972.000,0.004035475011920213
773,973.000,0.0021006095767962156
774,974.000,-0.002273711650093776
775,975.000,0.0033226381267785704
776,976.000,0.0034515413656110825
777,977.000,0.0005662699354137514
778,978.000,0.002935338021735464
779,979.000,0.005173968662612985
780,980.000,0.002128212744228204
781,981.000,0.005218140248420639
782,982.000,0.0006396935439870459
783,983.000,0.003399550089615711
784,984.000,0.001101705323388322
785,985.000,-0.0023699984434234524
786,986.000,3.6836424814231255e-05
787,987.000,0.0008237103971879297
788,988.000,0.002648670486007667
789,989.000,0.002783059046684878
790,990.000,-0.0010366730792547565
791,991.000,0.0014295036580391264
792,992.000,0.001036696748296016
793,993.000,0.002612705729098544
794,994.000,0.0026107009313825293
795,995.000,-0.001957720909092621
796,996.000,0.000910015318407524
797,997.000,-0.0012807135951687055
798,998.000,0.00273685452841047
799,999.000,-0.004393146784896092
800,1000.000,-0.0006621319744105638
801,1001.000,-0.00013758139145988874
802,1002.000,0.0020558416402927135
803,1003.000,0.0003198040752568888
804,1004.000,0.00023225083816560808
805,1005.000,0.0029777000010963437
806,1006.000,0.00038444232001581417
807,1007.000,0.0034425619564135896
808,1008.000,0.0024193968835050875
809,1009.000,-0.0013875027199379616
810,1010.000,0.00039875377828627176
811,1011.000,0.0014644351919834999
812,1012.000,0.0030764756709450976
813,1013.000,0.00017780700268977292
814,1014.000,0.001031298663983585
815,1015.000,0.0024092262945661896
816,1016.000,0.004658536777039851
817,1017.000,0.00600957098869489
818,1018.000,0.0031288920860029126
819,1019.000,0.0038387178562827536
820,1020.000,0.007024999597303917
821,1021.000,-0.0009591630434907494
822,1022.000,0.001673743610523924
823,1023.000,0.0006089184826156359
824,1024.000,0.005286011802153385
825,1025.000,0.0010707128156701002
826,1026.000,0.0008292496618044584
827,1027.000,-0.0003758720231325759
828,1028.000,0.00017764969058803266
829,1029.000,0.0028956000706397266
830,1030.000,0.003660889856863552
831,1031.000,0.0013548533472052301
832,1032.000,0.0057048968460755856
833,1033.000,-0.0013932817283511603
834,1034.000,0.0020100155437545106
835,1035.000,0.004116471501453684
836,1036.000,0.0017513192302625715
837,1037.000,0.0038472671645718684
838,1038.000,0.0033636116191618666
839,1039.000,0.0056486596355613565
840,1040.000,0.0020279532733255144
841,1041.000,0.0023229214638842196
842,1042.000,0.004541379832834668
843,1043.000,0.004674359057305065
844,1044.000,0.004885674603507515
845,1045.000,0.0007811218526003806
846,1046.000,0.0041540580499623316
847,1047.000,0.004830335253519014
848,1048.000,0.002638201163532828
849,1049.000,0.005040005643803155
850,1050.000,0.009677435232810635
851,1051.000,0.003907365180211804
852,1052.000,0.006158994422846134
853,1053.000,0.0006663324983392382
854,1054.000,0.00712975045198258
855,1055.000,0.0032330126946272055
856,1056.000,0.009609040479968283
857,1057.000,0.004164477823488695
858,1058.000,0.0047267956115489
859,1059.000,0.004519990221177871
860,1060.000,0.00750055445933878
861,1061.000,0.009616686144086777
862,1062.000,0.010291419025921072
863,1063.000,0.008817091357711434
864,1064.000,0.013281746468968276
865,1065.000,0.011680092219909795
866,1066.000,0.013378799084929633
867,1067.000,0.015066773802361582
868,1068.000,0.01244890887120107
869,1069.000,0.014207481215972085
870,1070.000,0.01809077942133627
871,1071.000,0.018731055802208782
872,1072.000,0.021281118446793104
873,1073.000,0.02699310638675267
874,1074.000,0.029488591034243675
875,1075.000,0.03220332911025416
876,1076.000,0.039659018953486856
877,1077.000,0.04910744261638927
878,1078.000,0.06148385860063908
879,1079.000,0.07087382461313692
880,1080.000,0.09153740359831251
881,1081.000,0.12061696554147527
882,1082.000,0.16250792845271966
883,1083.000,0.21337116171568787
884,1084.000,0.28551135351007295
885,1085.000,0.3438808095380886
886,1086.000,0.37323617304791173
887,1087.000,0.3479197938181327
888,1088.000,0.2787855799055993
889,1089.000,0.21266669968558147
890,1090.000,0.1649193003909784
891,1091.000,0.12299995291499083
892,1092.000,0.09707258226322639
893,1093.000,0.07565465603898477
894,1094.000,0.05849897839360467
895,1095.000,0.049200675808817255
896,1096.000,0.04374233808159494
897,1097.000,0.03614962751334252
898,1098.000,0.029761033451069032
899,1099.000,0.02600137173740821
900,1100.000,0.02350750207671743
901,1101.000,0.02141356067083568
902,1102.000,0.015774830371312592
903,1103.000,0.014484428978278934
904,1104.000,0.011857434120032708
905,1105.000,0.013462777358681295
906,1106.000,0.01426126057658686
907,1107.000,0.011530199310617587
908,1108.000,0.009411069137884833
909,1109.000,0.00695628211437524
910,1110.000,0.0076344281878439535
911,1111.000,0.007724905975316248
912,1112.000,0.009690439149345451
913,1113.000,0.006612868096674637
914,1114.000,0.009530398113857657
915,1115.000,0.005144830860650908
916,1116.000,0.0085300932258839
917,1117.000,0.005276678535545002
918,1118.000,0.0014697517510794693
919,1119.000,0.003171382104912302
920,1120.000,0.004896644825376765
921,1121.000,0.00399115315688461
922,1122.000,0.004784322155261498
923,1123.000,0.0057270060600443755
924,1124.000,0.003278814516298243
925,1125.000,0.006092726153022099
926,1126.000,0.00041100108449833875
927,1127.000,0.003346218502917646
928,1128.000,0.005279873622196251
929,1129.000,0.001542932162497301
930,1130.000,0.002264097224401344
931,1131.000,0.0020304597091029388
932,1132.000,0.003927079940397002
933,1133.000,0.0031826080483973213
934,1134.000,0.0013472207573485254
935,1135.000,0.003894580145571543
936,1136.000,0.007432348250837446
937,1137.000,0.003810873293191332
938,1138.000,0.006100780840015693
939,1139.000,-0.0007464312244710843
940,1140.000,0.0032099947576361165
941,1141.000,-0.00013639955349779376
942,1142.000,-0.001061984371805902
943,1143.000,0.002679376199854434
944,1144.000,0.0033298505381752354
945,1145.000,0.006210789059331256
946,1146.000,-0.001140879066925085
947,1147.000,0.007721368845404282
948,1148.000,0.002070900164468541
949,1149.000,0.00022901173172616059
950,1150.000,0.002337724728202783
951,1151.000,0.004375391287785621
952,1152.000,0.002132402245058104
953,1153.000,-0.0026512055550355204
954,1154.000,0.0015984356015986986
955,1155.000,0.0003846905282959424
956,1156.000,0.0020898838947310166
957,1157.000,0.002684625097067391
958,1158.000,0.005202381663307741
959,1159.000,0.0057836577075991045
960,1160.000,0.0035635928093827197
961,1161.000,0.00014518191353309463
962,1162.000,0.006567009267092833
963,1163.000,0.005074261472024306
964,1164.000,-0.000179594796115097
965,1165.000,0.004150695693460088
966,1166.000,0.001137847748720774
967,1167.000,-0.001254927588833286
968,1168.000,0.002048011307793038
969,1169.000,0.0019245736871380539
970,1170.000,0.0030809858411006493
971,1171.000,0.0007356721111680817
972,1172.000,6.934410285230979e-05
973,1173.000,0.003022936364725068
974,1174.000,0.0014910939533710529
975,1175.000,0.003117479564079378
976,1176.000,0.0015023086842381207
977,1177.000,-0.00026418166349429314
978,1178.000,0.007273335551298404
979,1179.000,0.004707127106578468
980,1180.000,-0.00026584889920208736
981,1181.000,-4.6390358744440805e-05
982,1182.000,0.0035067991690344376
983,1183.000,0.0035758886035132643
984,1184.000,-0.001594483519556055
985,1185.000,0.001642435033349625
986,1186.000,0.0017249785772639047
987,1187.000,0.004018041588309717
988,1188.000,0.00276403032240476
989,1189.000,0.0024523279186791868
990,1190.000,0.0015530118883230685
991,1191.000,0.0006936868670512103
992,1192.000,7.07992877458673e-05
993,1193.000,0.0013781800730854792
994,1194.000,-0.0006314086410952187
995,1195.000,0.004792656327163876
996,1196.000,0.0012557851373423362
997,1197.000,0.003476620759153172
998,1198.000,0.0009766054918283556
999,1199.000,0.001037317085016675
1000,1200.000,0.0010748741036936673
1001,1201.000,0.0014870775586031707
1002,1202.000,0.0018452458952895215
1003,1203.000,0.0010922278548259983
1004,1204.000,-0.0009167891378097505
1005,1205.000,0.00374284372966101
1006,1206.000,0.0011149228340994659
1007,1207.000,6.392219933423894e-05
1008,1208.000,0.0010239143212829667
1009,1209.000,0.0024447238152479484
1010,1210.000,0.0037028130838702364
1011,1211.000,-0.0026487305395459246
1012,1212.000,0.0065929075998999095
1013,1213.000,0.0005600027625943908
1014,1214.000,0.0019924274403235625
1015,1215.000,0.0036322796490193786
1016,1216.000,0.002812745304500682
1017,1217.000,0.0021418522870404414
1018,1218.000,0.00026622320176977813
1019,1219.000,0.0006824770301099943
1020,1220.000,-0.000327137378469928
1021,1221.000,-0.0004777590355301525
1022,1222.000,0.004570661346578605
1023,1223.000,0.0012349584263788343
1024,1224.000,0.0020238878395546604
1025,1225.000,0.00040335747032704523
1026,1226.000,-0.0009493045583629115
1027,1227.000,0.004092576833254538
1028,1228.000,0.0022574112057819552
1029,1229.000,0.0033327816864936405
1030,1230.000,0.0030623077382554206
1031,1231.000,-0.0027057539997378866
1032,1232.000,0.004943232301337707
1033,1233.000,0.002863386239109141
1034,1234.000,0.0015961355210757195
1035,1235.000,0.0013029161033665188
1036,1236.000,0.004008359818610859
1037,1237.000,0.003423465794662239
1038,1238.000,-0.0019850489081977393
1039,1239.000,0.0008631513283553909
1040,1240.000,0.0045068575456816235
1041,1241.000,0.00042090058279536507
1042,1242.000,0.0011725300720527548
1043,1243.000,0.0006497243081968515
1044,1244.000,0.00411277922999619
1045,1245.000,0.0017155626490902255
1046,1246.000,0.0015938915218068855
1047,1247.000,0.00015302656441271563
1048,1248.000,0.0009859180785799983
1049,1249.000,-0.00042397389797029904
1050,1250.000,-0.0013970823052725445
1051,1251.000,0.0038727011880353547
1052,1252.000,0.0030926645400973438
1053,1253.000,0.002741038820072523
1054,1254.000,0.007275955003009006
1055,1255.000,0.002621308580274484
1056,1256.000,0.0006123640053661479
1057,1257.000,0.0011822207459295765
1058,1258.000,-0.00017350182859862342
1059,1259.000,0.0029327077945850203
1060,1260.000,0.0004371717918608752
1061,1261.000,0.0005410613245826458
1062,1262.000,0.0015938691410276463
1063,1263.000,-0.001872070555340547
1064,1264.000,0.0001600252173289977
1065,1265.000,-0.0025164651787291242
1066,1266.000,0.002647353484126524
1067,1267.000,-0.0025335331465803712
1068,1268.000,0.0013363733254649157
1069,1269.000,-0.0008525506603726488
1070,1270.000,-0.002270119304217937
1071,1271.000,0.0013377281916639432
1072,1272.000,-0.0015596525886151654
1073,1273.000,0.0033940192162641245
1074,1274.000,0.000991527548775823
1075,1275.000,0.002954306108630908
1076,1276.000,-0.0031744157635790735
1077,1277.000,0.002667011708070177
1078,1278.000,0.003134273239562442
1079,1279.000,0.0014584452597143811
1080,1280.000,-0.0008946294257519534
1081,1281.000,0.0005961819050359417
1082,1282.000,0.0007353482278332971
1083,1283.000,0.002558468100576875
1084,1284.000,0.0014623170461228443
1085,1285.000,-0.0011572612022345285
1086,1286.000,-0.002367596150989222
1087,1287.000,0.003073872437136478
1088,1288.000,0.0019235878144919123
1089,1289.000,0.004095923440411871
1090,1290.000,0.0014794521555910364
1091,1291.000,0.0012679397661898941
1092,1292.000,-0.00046276155583258884
1093,1293.000,-0.0012318814256069008
1094,1294.000,0.0005558101455134212
1095,1295.000,0.00040300360259337307
1096,1296.000,-0.001109278272795431
1097,1297.000,0.0018008999918267105
1098,1298.000,0.002480939661395048
1099,1299.000,0.0015097297863376617
1100,1300.000,-0.0023977314573380135
1101,1301.000,-0.0011054456178017922
1102,1302.000,-0.0011027998998909003
1103,1303.000,-0.0005149778117424629
1104,1304.000,0.0025207898779358406
1105,1305.000,0.0060474805694272086
1106,1306.000,0.0030546810728905556
1107,1307.000,-0.0006057229418033356
1108,1308.000,0.00019592700145541495
1109,1309.000,0.0024173383790541776
1110,1310.000,0.00205096972310259
1111,1311.000,0.0027600234350129774
1112,1312.000,-0.0002414401594263095
1113,1313.000,0.0031687788489775147
1114,1314.000,0.0014069210644489364
1115,1315.000,-0.001120575809361542
1116,1316.000,0.0010164547233889104
1117,1317.000,0.0014889718268320741
1118,1318.000,0.0014125171615162256
1119,1319.000,0.003244932080108085
1120,1320.000,0.0031619214671213527
1121,1321.000,0.0015443733358693568
1122,1322.000,0.0008740866229669734
1123,1323.000,0.0012542868007541237
1124,1324.000,-0.001958932392772409
1125,1325.000,0.005107520937159269
1126,1326.000,0.003179395465119607
1127,1327.000,0.00405542890138656
1128,1328.000,0.0008238193687991592
1129,1329.000,0.0036027613943823717
1130,1330.000,0.002972413200490078
1131,1331.000,0.0007442901828643227
1132,1332.000,-0.003176031316077359
1133,1333.000,0.002000980951176834
1134,1334.000,-0.0019399142345476884
1135,1335.000,0.001999410355426878
1136,1336.000,0.0003380538422059558
1137,1337.000,0.002152311052173119
1138,1338.000,0.0004777701984660055
1139,1339.000,0.0019247662649138663
1140,1340.000,-0.0006507467990354361
1141,1341.000,0.002316192083134932
1142,1342.000,0.00021153241063056433
1143,1343.000,0.002056543381980867
1144,1344.000,-0.0007925909556358938
1145,1345.000,-6.317646325021826e-05
1146,1346.000,0.003605585800747541
1147,1347.000,0.002887215291869321
1148,1348.000,-0.0019597018937528494
1149,1349.000,0.00038562427515600014
1150,1350.000,-0.0016640055648243473
1151,1351.000,0.001024338241993615
1152,1352.000,-0.0006167344677130723
1153,1353.000,-0.0003441869522449236
1154,1354.000,0.0012777272149162519
1155,1355.000,0.004478620802175588
1156,1356.000,-0.0004450094041278973
1157,1357.000,0.00048663159281564803
1158,1358.000,0.006169097243389871
1159,1359.000,0.00019180286845893197
1160,1360.000,0.0019184449057518202
1161,1361.000,-0.0008728327693330619
1162,1362.000,0.0024541963173020814
1163,1363.000,0.0008287450445511135
1164,1364.000,-0.003962978551645346
1165,1365.000,0.0003623159240467593
1166,1366.000,0.003058772464379383
1167,1367.000,0.006760780268770178
1168,1368.000,-0.0026459530416392974
1169,1369.000,-0.00044815949368670523
1170,1370.000,0.004177060362624029
1171,1371.000,-0.0031046341742441428
1172,1372.000,0.0014330919004696592
1173,1373.000,0.0008445698854473695
1174,1374.000,0.002495238134921412
1175,1375.000,0.000995550851298105
1176,1376.000,0.005035141998980841
1177,1377.000,0.0020216035546726263
1178,1378.000,0.00046417872475577285
1179,1379.000,0.0014047197718176036
1180,1380.000,-0.002071690131036956
1181,1381.000,0.00012429695717311155
1182,1382.000,0.004811258063961668
1183,1383.000,0.0016407215819860183
1184,1384.000,0.003337664567465855
1185,1385.000,0.00025384615158380606
1186,1386.000,-0.0017160391431141153
1187,1387.000,-0.0012104010479529737
1188,1388.000,-0.0008227520903404993
1189,1389.000,0.003122806294334613
1190,1390.000,0.0009217560435383968
1191,1391.000,-0.003033889439245232
1192,1392.000,0.0010269948362801409
1193,1393.000,0.000495145567705896
1194,1394.000,0.0021517701157257488
1195,1395.000,-0.005090278241190181
1196,1396.000,0.005574189745150783
1197,1397.000,0.002771177083264761
1198,1398.000,0.0024996423268987397
1199,1399.000,-0.0008056844377019967
1200,1400.000,0.0005959393874256551
1201,1401.000,0.0053732059913063415
1202,1402.000,0.005248678108491964
1203,1403.000,0.0017905775564552862
1204,1404.000,-0.0002822564514946548
1205,1405.000,-0.0017241770960765527
1206,1406.000,0.004356077768166633
1207,1407.000,0.0055814478910819485
1208,1408.000,0.001912939552560182
1209,1409.000,0.003982763028301863
1210,1410.000,0.005155542017446793
1211,1411.000,0.006606236717375236
1212,1412.000,0.008131095440159202
1213,1413.000,0.003063347587039852
1214,1414.000,0.006308466381159184
1215,1415.000,0.003925700787693545
1216,1416.000,0.005985477081865658
1217,1417.000,0.010609448035997154
1218,1418.000,0.008021559287147708
1219,1419.000,0.004606972723562316
1220,1420.000,0.009046338480248868
1221,1421.000,0.012183298119770213
1222,1422.000,0.013156192566745988
1223,1423.000,0.011695365500521014
1224,1424.000,0.011861186809372063
1225,1425.000,0.015315697086394037
1226,1426.000,0.014898676945663148
1227,1427.000,0.01631854134611112
1228,1428.000,0.017896543055779632
1229,1429.000,0.01882901484053803
1230,1430.000,0.024188182101778723
1231,1431.000,0.02651335444786146
1232,1432.000,0.024687762815941056
1233,1433.000,0.028201836538115647
1234,1434.000,0.027213053977860172
1235,1435.000,0.03133486887003341
1236,1436.000,0.034021925802861314
1237,1437.000,0.02863676812490846
1238,1438.000,0.027191374605031036
1239,1439.000,0.030606418897114126
1240,1440.000,0.030759936329310143
1241,1441.000,0.02534589802068305
1242,1442.000,0.023633620497924564
1243,1443.000,0.020337595875535085
1244,1444.000,0.017185922468453085
1245,1445.000,0.014014265391084201
1246,1446.000,0.015570988402141902
1247,1447.000,0.012634910690233073
1248,1448.000,0.01069107943145672
1249,1449.000,0.008050498700714833
1250,1450.000,0.009611920527281817
1251,1451.000,0.0047104196711393554
1252,1452.000,0.011210560140554295
1253,1453.000,0.005801194232203801
1254,1454.000,0.006650983327023501
1255,1455.000,0.007629138922081719
1256,1456.000,0.006214815746252448
1257,1457.000,0.004196809934707449
1258,1458.000,0.007526821909589354
1259,1459.000,0.006395364166124495
1260,1460.000,0.006582022030133006
1261,1461.000,0.006458135850125498
1262,1462.000,0.004181011355894752
1263,1463.000,0.004623697304680384
1264,1464.000,0.0035004338971481776
1265,1465.000,0.0010627133387263218
1266,1466.000,0.004300660304604307
1267,1467.000,0.004346566105497151
1268,1468.000,0.007085711202070317
1269,1469.000,0.002442061812755536
1270,1470.000,0.0013221434481917893
1271,1471.000,-0.0003062256226891137
1272,1472.000,0.0013712076171298914
1273,1473.000,0.002847945593325183
1274,1474.000,0.0035458331090384002
1275,1475.000,0.002630557533514843
1276,1476.000,0.00430748804535088
1277,1477.000,0.0032610494516578954
1278,1478.000,0.0055913409564186545
1279,1479.000,-0.0025046339391728853
1280,1480.000,0.0009941402563506117
1281,1481.000,0.00361689002648923
1282,1482.000,-0.0003758659447963363
1283,1483.000,-4.8818806931468956e-05
1284,1484.000,0.003134947837386136
1285,1485.000,7.54030139257239e-05
1286,1486.000,0.0018082800654929934
1287,1487.000,7.453406457211038e-05
1288,1488.000,0.0028193206577359986
1289,1489.000,0.0008550176737542815
1290,1490.000,-0.0014259664672526115
1291,1491.000,0.0019083432131947724
1292,1492.000,0.002949451989224746
1293,1493.000,0.002933967157825463
1294,1494.000,-0.0014199535809390979
1295,1495.000,-0.000859913924743051
1296,1496.000,0.0014323086486426099
1297,1497.000,-0.0013330930445755163
1298,1498.000,0.0018548307125451715
1299,1499.000,-0.0005237297184144293
1300,1500.000,-0.0019445664124597454
1301,1501.000,-0.001775262454951122
1302,1502.000,0.0028064663527138677
1303,1503.000,0.0007608570166785269
1304,1504.000,0.0018916446616636625
1305,1505.000,-6.411537697653052e-05
1306,1506.000,-0.002955938774131713
1307,1507.000,0.0009097459359096988
1308,1508.000,-0.0004149675857454328
1309,1509.000,0.0002892846966895904
1310,1510.000,0.0012595326404858892
1311,1511.000,0.003055695368475109
1312,1512.000,-0.0007154109148783303
1313,1513.000,0.0012801741726364481
1314,1514.000,-0.003760691444539037
1315,1515.000,0.0008892376473421616
1316,1516.000,0.0006668658061502804
1317,1517.000,-0.00030102763884633476
1318,1518.000,0.0004106649203146105
1319,1519.000,5.326073289294453e-05
1320,1520.000,0.0011213124559540126
1321,1521.000,0.0017294209843251168
1322,1522.000,0.005070747580630704
1323,1523.000,0.0010650609327850038
1324,1524.000,-0.0001397901923584255
1325,1525.000,-0.00029018915748601305
1326,1526.000,0.00260020116531334
1327,1527.000,-0.0006514448469577705
1328,1528.000,0.0029942928066789085
1329,1529.000,-0.0006546359698963258
1330,1530.000,0.0016604340947184305
1331,1531.000,-0.00344178026026855
1332,1532.000,0.003316553062505168
1333,1533.000,-0.0012556853569811303
1334,1534.000,-0.0007598994312609386
1335,1535.000,-0.0021524658843971077
1336,1536.000,-0.004478584478353162
1337,1537.000,0.001783275406438408
1338,1538.000,0.0006988787897530342
1339,1539.000,-0.00030184346406947473
1340,1540.000,-0.00046583098315177384
1341,1541.000,-0.0021500261088581167
1342,1542.000,-0.004234386549255683
1343,1543.000,-0.002064448927535099
1344,1544.000,0.0017329421876609318
1345,1545.000,0.002198394807500063
1346,1546.000,0.0012458509049330289
1347,1547.000,0.00037855030652239515
1348,1548.000,0.0029005898688194915
1349,1549.000,-0.0006034341765359167
1350,1550.000,-0.0017122107190168533
1351,1551.000,-0.0016753060133617651
1352,1552.000,-0.0018224603222476467
1353,1553.000,-0.002139794764995555
1354,1554.000,-0.001032732743368012
1355,1555.000,0.0020191030368343333
1356,1556.000,-0.0019180168363624012
1357,1557.000,-0.005448459320386848
1358,1558.000,0.0018941108153102306
1359,1559.000,-0.002045285940602611
1360,1560.000,-0.0013652466908167802
1361,1561.000,0.005144623323030284
1362,1562.000,0.0027106333163570114
1363,1563.000,-0.002427395005832731
1364,1564.000,-0.0007623628640388265
1365,1565.000,-0.0005551993031131624
1366,1566.000,-0.003107085938770781
1367,1567.000,0.0004276588864491167
1368,1568.000,0.0011338781260398145
1369,1569.000,0.0036554019186966534
1370,1570.000,-0.003662463270855134
1371,1571.000,0.0018236809426513748
1372,1572.000,0.000747616264721049
1373,1573.000,0.0012019500315740023
1374,1574.000,0.0013726804744169225
1375,1575.000,-0.0012863521720618105
1376,1576.000,0.0027217401243873154
1377,1577.000,0.0014062169884535478
1378,1578.000,0.008051667872793107
1379,1579.000,0.000796876040226789
1380,1580.000,0.0005508824547350983
1381,1581.000,-0.0006032381485281304
1382,1582.000,0.001344385144966978
1383,1583.000,0.00047253933011662464
1384,1584.000,0.001467001636475992
1385,1585.000,0.003922874512407135
1386,1586.000,0.00373441948373959
1387,1587.000,0.0024060595440863137
1388,1588.000,-3.066575340563681e-05
1389,1589.000,-0.0019198743365474527
1390,1590.000,0.0010615909292127812
1391,1591.000,0.0018876018538145003
1392,1592.000,-0.0008669053279106719
1393,1593.000,0.002126446428007551
1394,1594.000,0.0025852015898709963
1395,1595.000,0.0005325845711339738
1396,1596.000,-0.003705088365684088
1397,1597.000,-0.0034514781814456896
1398,1598.000,0.0012644407365377478
1399,1599.000,0.0011180637428797578
1400,1600.000,-0.0024512751126820323
1401,1601.000,-0.000403872759636948
1402,1602.000,-0.0030171001247978465
1403,1603.000,-0.00313086598150517
1404,1604.000,0.0008411516990135599
1405,1605.000,0.0030006988191361764
1406,1606.000,-0.003082687803381771
1407,1607.000,0.002119407009191206
1408,1608.000,0.002145703972345498
1409,1609.000,-0.0002712104306753622
1410,1610.000,0.00197278458293379
1411,1611.000,0.00030173200739667396
1412,1612.000,-0.002701751088365924
1413,1613.000,-0.0011704856179604178
1414,1614.000,-0.0006815178666582405
1415,1615.000,-7.455522937813994e-05
1416,1616.000,-0.0003942448846308845
1417,1617.000,-0.0020837197774678956
1418,1618.000,0.00047318973889735465
1419,1619.000,0.0008667599102448995
1420,1620.000,-0.0008406167129152985
1421,1621.000,0.00393628595845796
1422,1622.000,-0.0013941818723860718
1423,1623.000,0.0030104698251603276
1424,1624.000,0.0012837554948242388
1425,1625.000,0.002055501995828137
1426,1626.000,0.00039601451689663935
1427,1627.000,-0.0003560476260075677
1428,1628.000,-0.00018963637157264038
1429,1629.000,-0.004131063506259276
1430,1630.000,-0.002828466335319162
1431,1631.000,0.0018910956871075332
1432,1632.000,0.0021861797377745506
1433,1633.000,-0.000761217197664644
1434,1634.000,0.0017652842274263685
1435,1635.000,0.0047089087688542
1436,1636.000,0.003008351587253643
1437,1637.000,-0.0019161990159269513
1438,1638.000,-0.0004901313685673188
1439,1639.000,-9.594361592610713e-05
1440,1640.000,0.0010463648281512443
1441,1641.000,0.0011362540003313198
1442,1642.000,0.0009115176528746318
1443,1643.000,0.0010438871027116763
1444,1644.000,0.002181220431705052
1445,1645.000,0.0013736132380771848
1446,1646.000,0.00020525137864505546
1447,1647.000,-0.0006368183753167047
1448,1648.000,0.0021010916246811053
1449,1649.000,-0.00013370866243315655
1450,1650.000,0.005973747830545781
1451,1651.000,0.00011751776301409436
1452,1652.000,-0.001857760446971095
1453,1653.000,0.0006011690332838259
1454,1654.000,-0.0009575760737955913
1455,1655.000,-0.0003394666347239022
1456,1656.000,0.0018726039430804076
1457,1657.000,-0.000608231114292224
1458,1658.000,-0.0006704930585813413
1459,1659.000,-0.0016693161509865827
1460,1660.000,-0.0002805315582063356
1461,1661.000,-0.00029260260609999895
1462,1662.000,0.002986401928026265
1463,1663.000,-0.0033795287266438208
1464,1664.000,-4.2053643002247894e-05
1465,1665.000,0.00491259372714887
1466,1666.000,-0.006472458068556462
1467,1667.000,0.002178535486167371
1468,1668.000,-0.0014375316080831066
1469,1669.000,0.0010646694141970984
1470,1670.000,0.002240641668152973
1471,1671.000,-0.00019342706682497343
1472,1672.000,-4.40843257763798e-05
1473,1673.000,0.0005221931778701428
1474,1674.000,-0.004739089727449361
1475,1675.000,-0.0023971265389414608
1476,1676.000,0.0027708469675228374
1477,1677.000,-0.0009825786909210253
1478,1678.000,0.0053989508226247075
1479,1679.000,0.0008349855452354437
1480,1680.000,5.350194645873392e-05
1481,1681.000,0.0026904701081706477
1482,1682.000,-0.0030340003399583417
1483,1683.000,0.005328054578496622
1484,1684.000,0.0031384009616763557
1485,1685.000,-0.0005734211603362511
1486,1686.000,-0.003874415784711326
1487,1687.000,0.0016006614313375453
1488,1688.000,0.0004714151298923868
1489,1689.000,-0.0019157851249936718
1490,1690.000,0.0012217769483105366
1491,1691.000,0.0012764653707134004
1492,1692.000,0.0005642696190560625
1493,1693.000,-0.0024260241982319857
1494,1694.000,0.003025540016882834
1495,1695.000,0.004211714915588356
1496,1696.000,0.006120518479995924
1497,1697.000,0.0014763474893340134
1498,1698.000,0.0004943022973132684
1499,1699.000,-0.0008364711542481485
1500,1700.000,0.0017429107929700846
1501,1701.000,-0.0034403783354433593
1502,1702.000,0.003332112870778379
1503,1703.000,0.004454731012072146
1504,1704.000,-0.0008592023021465299
1505,1705.000,-0.0007028470400361149
1506,1706.000,-0.003569186667940969
1507,1707.000,0.0018016549841330179
1508,1708.000,0.0008883686407890718
1509,1709.000,0.001698290525301744
1510,1710.000,0.0007440819998109989
1511,1711.000,-0.00016043651680138082
1512,1712.000,0.0018700632505650513
1513,1713.000,0.0015864359106146234
1514,1714.000,0.002970858778440083
1515,1715.000,0.0028511618825685617
1516,1716.000,0.0036873684005655403
1517,1717.000,0.0028543014545687004
1518,1718.000,0.004136570630360645
1519,1719.000,0.0017557892087970057
1520,1720.000,0.0032480244170526094
1521,1721.000,0.0006718958970184549
1522,1722.000,9.431549808990117e-05
1523,1723.000,-0.001486515074743709
1524,1724.000,-0.0011279190477716165
1525,1725.000,0.00023064067175735937
1526,1726.000,0.006059240522149354
1527,1727.000,0.0034837803996847884
1528,1728.000,0.001515913502788673
1529,1729.000,-0.00100320045500974
1530,1730.000,0.0018134170802939454
1531,1731.000,0.0008573184513261733
1532,1732.000,0.0008765665525306412
1533,1733.000,0.003068093935777332
1534,1734.000,0.0033489267517727533
1535,1735.000,0.0031758788983223198
1536,1736.000,-0.00022024812625911453
1537,1737.000,0.0027261540671806115
1538,1738.000,0.0037750829327757303
1539,1739.000,-0.0017233644415217502
1540,1740.000,0.0001120840156984662
1541,1741.000,0.0052340083833199965
1542,1742.000,-0.000328392231878519
1543,1743.000,-0.0002879763470569053
1544,1744.000,0.0038628974049216393
1545,1745.000,0.0002530975702086977
1546,1746.000,0.0021045793667612833
1547,1747.000,-0.002906228830672087
1548,1748.000,-0.0014741748703437833
1549,1749.000,0.0011798446824470455
1550,1750.000,0.006266102182948072
1551,1751.000,-4.7247252243768885e-05
1552,1752.000,0.001710014927361876
1553,1753.000,0.0005351588543727867
1554,1754.000,0.0013729284690464688
1555,1755.000,-0.0004729655061844296
1556,1756.000,-0.004483738584577783
1557,1757.000,0.000643831607626978
1558,1758.000,-0.0024739402403857664
1559,1759.000,0.00014405931734355956
1560,1760.000,0.0019558640178220037
1561,1761.000,0.00455311259682627
1562,1762.000,0.004375696737359331
1563,1763.000,0.001991537593346153
1564,1764.000,-0.000540432945597184
1565,1765.000,0.00037697123382656356
1566,1766.000,0.004292659545359469
1567,1767.000,0.0023847734083428675
1568,1768.000,0.0015981506249388923
1569,1769.000,0.0038179175383618092
1570,1770.000,-0.0011163459750009243
1571,1771.000,0.006118869330134063
1572,1772.000,0.003516218802205786
1573,1773.000,-0.000775101763564137
1574,1774.000,0.00015577741537359593
1575,1775.000,0.003605798002761097
1576,1776.000,-3.790376298765442e-05
1577,1777.000,0.0015049743130416343
1578,1778.000,0.0062053793892138985
1579,1779.000,0.0008627825077082518
1580,1780.000,0.0016595740867886418
1581,1781.000,0.0038096697945739716
1582,1782.000,0.0039249594095712576
1583,1783.000,0.006133494353732393
1584,1784.000,-2.830735636363387e-05
1585,1785.000,0.0022340542612504207
1586,1786.000,0.0028926155811755208
1587,1787.000,0.0002753533777555676
1588,1788.000,0.0009948689603256858
1589,1789.000,0.0037138093531504865
1590,1790.000,0.0013584191573612354
1591,1791.000,0.0018083809833651235
1592,1792.000,0.0003811354461931192
1593,1793.000,-0.0003071002008036771
1594,1794.000,-0.0001402446231867312
1595,1795.000,0.00411256631706728
1596,1796.000,0.006355182729967391
1597,1797.000,0.0014412696140299033
1598,1798.000,0.006510090210312798
1599,1799.000,0.0002992300061102622
1600,1800.000,0.0009248722130276409
1601,1801.000,6.730468253799756e-05
1602,1802.000,0.0015922585020731717
1603,1803.000,0.0034787947911558105
1604,1804.000,0.002702801680199833
1605,1805.000,0.0013950471816552665
1606,1806.000,0.004679194114833149
1607,1807.000,0.0002939951798881392
1608,1808.000,0.0018970983267069777
1609,1809.000,-0.0010251364110168005
1610,1810.000,0.006248796686225106
1611,1811.000,0.000976714521604413
1612,1812.000,0.004261914896004408
1613,1813.000,-0.001318721709654112
1614,1814.000,0.0022191156193836327
1615,1815.000,0.004682738957647436
1616,1816.000,0.005044961450692999
1617,1817.000,0.0025906392340341302
1618,1818.000,0.0013542385377909795
1619,1819.000,0.0003832780976121111
1620,1820.000,0.002907836242636945
1621,1821.000,0.003697413309494575
1622,1822.000,0.004124574594386758
1623,1823.000,0.0006498306961759138
1624,1824.000,0.0021394065290045944
1625,1825.000,0.0003327876239940271
1626,1826.000,-0.0015180938902400296
1627,1827.000,0.0029322999924239266
1628,1828.000,6.259647899157423e-07
1629,1829.000,0.002890381200413529
1630,1830.000,0.0019701168530963584
1631,1831.000,0.0040785764746928375
1632,1832.000,0.0010996354748509238
1633,1833.000,0.00216976247512619
1634,1834.000,0.0032655667109190573
1635,1835.000,0.0020962643052835133
1636,1836.000,-0.00010659267285907752
1637,1837.000,0.00359676721603655
1638,1838.000,0.00578911669846833
1639,1839.000,0.0018027276234175566
1640,1840.000,0.0022637399049972215
1641,1841.000,0.0022038655131307048
1642,1842.000,-0.001382253673383561
1643,1843.000,0.0028869975727771383
1644,1844.000,0.004544598052460554
1645,1845.000,0.0001744034431218921
1646,1846.000,0.001164377907126923
1647,1847.000,0.004536278833523064
1648,1848.000,0.005613407259969997
1649,1849.000,-0.0022922771411073373
1650,1850.000,0.004087057848515171
1651,1851.000,-0.001254062550165648
1652,1852.000,0.0037409346920991983
1653,1853.000,0.002307174927703302
1654,1854.000,0.0049103935665714945
1655,1855.000,-0.0013040266532949084
1656,1856.000,-0.00015309093613953382
1657,1857.000,-0.0005900416677908425
1658,1858.000,0.004413505769475329
1659,1859.000,0.0056246091111729546
1660,1860.000,0.005035395776341182
1661,1861.000,-5.18345044626144e-05
1662,1862.000,0.0010649478584104396
1663,1863.000,-0.0002708445221939649
1664,1864.000,0.0006817877416200042
1665,1865.000,0.0026100705252146863
1666,1866.000,0.006085697383864788
1667,1867.000,0.0015559285639365837
1668,1868.000,-0.001032014219628727
1669,1869.000,0.0041078003081799494
1670,1870.000,0.004709321462404284
1671,1871.000,0.006055940033742384
1672,1872.000,0.005161463586385752
1673,1873.000,0.0028774402862090276
1674,1874.000,-0.003116062876967323
1675,1875.000,0.004340931930181682
1676,1876.000,0.00031668968563050055
1677,1877.000,0.0030799457375247684
1678,1878.000,-0.00016898879244246073
1679,1879.000,0.006379581409478254
1680,1880.000,0.0027259717921147247
1681,1881.000,0.0018839417537768095
1682,1882.000,0.0037555398097633345
1683,1883.000,-0.0006689385849343212
1684,1884.000,-0.0012760161039874758
1685,1885.000,0.0033526585303842596
1686,1886.000,0.005231710360495683
1687,1887.000,0.0020001511078279756
1688,1888.000,0.0024568155080202997
1689,1889.000,0.0010629372308699878
1690,1890.000,0.0033605864000662536
1691,1891.000,0.0006872289262686739
1692,1892.000,0.001429082286773721
1693,1893.000,-0.0008519418360493383
1694,1894.000,0.002552419063393073
1695,1895.000,0.004282388482161234
1696,1896.000,0.0026921833117175557
1697,1897.000,0.005531538486679584
1698,1898.000,0.0018634831830631686
1699,1899.000,0.0001614519623574002
1700,1900.000,0.0011996726784578712
1701,1901.000,0.0016288848862766139
1702,1902.000,0.002526531282983629
1703,1903.000,0.0051766581211263926
1704,1904.000,0.0025705805684967534
1705,1905.000,0.007171213340497451
1706,1906.000,-0.000784640377588273
1707,1907.000,0.006266186873837943
1708,1908.000,0.003980551446555093
1709,1909.000,0.0009481704572336254
1710,1910.000,0.004115972345915961
1711,1911.000,0.004598768062699934
1712,1912.000,0.00552520979701695
1713,1913.000,0.005217201701546394
1714,1914.000,0.0037916769187603416
1715,1915.000,0.0003610007575413973
1716,1916.000,0.0045466553764052075
1717,1917.000,0.004561110147333203
1718,1918.000,0.0038256201206934366
1719,1919.000,0.002687013046006243
1720,1920.000,0.0032156962769279936
1721,1921.000,0.0053771538405761425
1722,1922.000,0.0018140732204121749
1723,1923.000,0.006296060432302231
1724,1924.000,0.0007752398975348942
1725,1925.000,-0.001384262602314179
1726,1926.000,0.0018296820858509555
1727,1927.000,0.004011823978268347
1728,1928.000,0.0036370424004083966
1729,1929.000,0.0001313243902600416
1730,1930.000,0.003184214439202827
1731,1931.000,0.001128995473212955
1732,1932.000,0.005187425868036161
1733,1933.000,0.0030892474468392317
1734,1934.000,0.0037842337018616245
1735,1935.000,0.009482375695493065
1736,1936.000,0.0011247075312352517
1737,1937.000,0.002675061366016396
1738,1938.000,0.0030047822200632273
1739,1939.000,3.0979146035244054e-05
1740,1940.000,0.0019710151190201705
1741,1941.000,0.006555531340351739
1742,1942.000,0.0016370800943631713
1743,1943.000,-0.00088718982602053
1744,1944.000,0.0028177709810754403
1745,1945.000,0.002609710379114009
1746,1946.000,0.004337381570076851
1747,1947.000,0.007177385866242544
1748,1948.000,-0.00021426384719796588
1749,1949.000,-0.002656606983350048
1750,1950.000,-0.0010198342078982412
1751,1951.000,0.002140526629798008
1752,1952.000,0.0034660566528730836
1753,1953.000,0.003766061888425783
1754,1954.000,0.003927091256828465
1755,1955.000,0.0025292623208040665
1756,1956.000,0.004910087027700977
1757,1957.000,-0.0026835843922687628
1758,1958.000,0.0045136063405652295
1759,1959.000,0.001166775251926271
1760,1960.000,-0.0001627599458640779
1761,1961.000,0.0006576932854410959
1762,1962.000,0.0013661958800978112
1763,1963.000,9.113208474512095e-05
1764,1964.000,-0.0010452247929189
1765,1965.000,0.0010527674860982379
1766,1966.000,0.0020963628921011833
1767,1967.000,0.0017054904256061764
1768,1968.000,-0.0004046035779215731
1769,1969.000,0.0004135641465470989
1770,1970.000,0.0010291365719823679
1771,1971.000,0.0002809683847638715
1772,1972.000,0.00033875586976638743
1773,1973.000,-0.0005786907130280884
1774,1974.000,-0.0014239223996107728
1775,1975.000,0.0042417132344202925
1776,1976.000,0.0005168879824254069
1777,1977.000,0.0005284068409378642
1778,1978.000,-0.0025771760554844903
1779,1979.000,-0.0010283500111023642
1780,1980.000,-0.0013526111327298797
1781,1981.000,0.0023396290572280567
1782,1982.000,-0.001574928156594842
1783,1983.000,0.005487396439054815
1784,1984.000,-0.002648542725243349
1785,1985.000,0.0036285814555450805
1786,1986.000,0.0031921239403885993
1787,1987.000,0.0015673566776922933
1788,1988.000,0.001427873029595346
1789,1989.000,0.0026988402390835005
1790,1990.000,-0.003390399235277066
1791,1991.000,0.003664652766995151
1792,1992.000,-0.0028993810425440992
1793,1993.000,0.002714705334963422
1794,1994.000,-0.002583149311374037
1795,1995.000,-0.002872310060087195
1796,1996.000,0.00032482395383490734
1797,1997.000,-0.004859987972913468
1798,1998.000,-0.0004048066139673426
1799,1999.000,0.0007296596467810593
1800,2000.000,0.0005108427380854268
