pixel_index,raman_shift_cm-1,intensity
0,200.000,487.155164
1,201.000,481.697591
2,202.000,483.129198
3,203.000,470.519983
4,204.000,485.334888
5,205.000,480.743144
6,206.000,489.278422
7,207.000,477.562296
8,208.000,480.179103
9,209.000,477.53086
10,210.000,477.920271
11,211.000,486.748483
12,212.000,490.336163
13,213.000,479.02112
14,214.000,499.476814
15,215.000,491.02169
16,216.000,490.020244
17,217.000,490.336323
18,218.000,499.566622
19,219.000,489.391491
20,220.000,492.596397
21,221.000,493.734402
22,222.000,500.015267
23,223.000,500.472114
24,224.000,493.882884
25,225.000,509.129194
26,226.000,506.407096
27,227.000,502.145769
28,228.000,511.088095
29,229.000,512.757369
30,230.000,509.464048
31,231.000,510.314756
32,232.000,519.179322
33,233.000,520.516066
34,234.000,515.184859
35,235.000,515.662824
36,236.000,521.733494
37,237.000,509.177051
38,238.000,520.675232
39,239.000,518.022285
40,240.000,530.127453
41,241.000,538.516678
42,242.000,528.64483
43,243.000,547.978102
44,244.000,532.082349
45,245.000,545.133054
46,246.000,530.813547
47,247.000,539.735044
48,248.000,541.798125
49,249.000,533.850513
50,250.000,549.8876
51,251.000,552.267193
52,252.000,541.193726
53,253.000,555.663801
54,254.000,552.208445
55,255.000,551.00588
56,256.000,562.371881
57,257.000,563.622442
58,258.000,568.869972
59,259.000,557.974601
60,260.000,577.024426
61,261.000,565.855245
62,262.000,586.338089
63,263.000,584.806464
64,264.000,588.887462
65,265.000,589.048149
66,266.000,601.473296
67,267.000,606.48287
68,268.000,607.669371
69,269.000,624.960745
70,270.000,615.202474
71,271.000,647.068706
72,272.000,658.175367
73,273.000,672.446757
74,274.000,695.094352
75,275.000,731.332749
76,276.000,746.466458
77,277.000,779.487913
78,278.000,809.299068
79,279.000,845.518144
80,280.000,885.199686
81,281.000,896.039757
82,282.000,907.490472
83,283.000,913.976317
84,284.000,885.489335
85,285.000,857.41967
86,286.000,831.010976
87,287.000,780.732529
88,288.000,763.549035
89,289.000,739.690991
90,290.000,717.669213
91,291.000,702.163479
92,292.000,694.149244
93,293.000,668.434839
94,294.000,662.143013
95,295.000,660.914391
96,296.000,649.048304
97,297.000,650.519536
98,298.000,640.922698
99,299.000,630.773831
100,300.000,644.818806
101,301.000,623.232093
102,302.000,618.375181
103,303.000,645.365704
104,304.000,646.096074
105,305.000,620.254357
106,306.000,622.933399
107,307.000,636.207583
108,308.000,621.730671
109,309.000,627.042305
110,310.000,630.720403
111,311.000,625.196151
112,312.000,624.238945
113,313.000,620.942664
114,314.000,628.677977
115,315.000,634.230666
116,316.000,629.424804
117,317.000,635.888786
118,318.000,643.954501
119,319.000,628.332763
120,320.000,639.653367
121,321.000,630.738199
122,322.000,637.025169
123,323.000,640.397371
124,324.000,636.097826
125,325.000,642.311282
126,326.000,637.970757
127,327.000,642.247806
128,328.000,653.511076
129,329.000,655.172193
130,330.000,647.930442
131,331.000,647.301819
132,332.000,654.478724
133,333.000,659.133132
134,334.000,649.422044
135,335.000,646.867997
136,336.000,651.826548
137,337.000,654.081079
138,338.000,665.774749
139,339.000,659.367408
140,340.000,647.73899
141,341.000,659.38654
142,342.000,665.165057
143,343.000,664.850264
144,344.000,662.993379
145,345.000,663.110251
146,346.000,654.275104
147,347.000,664.62045
148,348.000,681.692933
149,349.000,677.94242
150,350.000,665.692316
151,351.000,663.536936
152,352.000,662.295781
153,353.000,678.248212
154,354.000,677.955853
155,355.000,682.254742
156,356.000,691.479704
157,357.000,680.387202
158,358.000,679.975288
159,359.000,681.833458
160,360.000,682.758977
161,361.000,683.430044
162,362.000,685.33007
163,363.000,690.756821
164,364.000,694.96218
165,365.000,704.914124
166,366.000,682.138403
167,367.000,694.348393
168,368.000,693.476928
169,369.000,706.666109
170,370.000,698.281127
171,371.000,698.115167
172,372.000,701.019145
173,373.000,709.217529
174,374.000,714.768281
175,375.000,709.45667
176,376.000,711.909428
177,377.000,707.89901
178,378.000,716.570239
179,379.000,720.657142
180,380.000,718.94189
181,381.000,719.794555
182,382.000,716.809754
183,383.000,720.496877
184,384.000,716.605323
185,385.000,719.70874
186,386.000,715.768886
187,387.000,725.626528
188,388.000,711.164333
189,389.000,736.116549
190,390.000,730.888921
191,391.000,736.428084
192,392.000,738.516727
193,393.000,732.056829
194,394.000,750.042061
195,395.000,743.291876
196,396.000,734.695347
197,397.000,740.144737
198,398.000,735.349475
199,399.000,738.161669
200,400.000,743.829641
201,401.000,742.572537
202,402.000,745.489079
203,403.000,744.273632
204,404.000,756.60556
205,405.000,765.88177
206,406.000,751.968192
207,407.000,749.432486
208,408.000,757.328711
209,409.000,760.28696
210,410.000,761.159115
211,411.000,747.834571
212,412.000,772.281772
213,413.000,768.307206
214,414.000,765.509527
215,415.000,774.169352
216,416.000,762.42302
217,417.000,781.665953
218,418.000,774.410342
219,419.000,775.854769
220,420.000,787.522649
221,421.000,788.344513
222,422.000,793.099607
223,423.000,785.00532
224,424.000,791.201571
225,425.000,788.992417
226,426.000,791.975795
227,427.000,783.45961
228,428.000,792.222381
229,429.000,795.330739
230,430.000,793.939648
231,431.000,802.714217
232,432.000,796.89611
233,433.000,800.858599
234,434.000,785.550301
235,435.000,793.057454
236,436.000,805.24715
237,437.000,798.052864
238,438.000,802.40603
239,439.000,808.629737
240,440.000,816.449925
241,441.000,803.37715
242,442.000,810.441283
243,443.000,823.494955
244,444.000,810.091156
245,445.000,823.039449
246,446.000,819.138254
247,447.000,820.186846
248,448.000,814.75397
249,449.000,825.110338
250,450.000,827.619648
251,451.000,829.289874
252,452.000,821.809467
253,453.000,831.679172
254,454.000,832.29194
255,455.000,836.924948
256,456.000,836.806717
257,457.000,828.64884
258,458.000,832.827089
259,459.000,834.750307
260,460.000,847.565217
261,461.000,847.581322
262,462.000,838.726236
263,463.000,832.156072
264,464.000,849.341384
265,465.000,848.036805
266,466.000,857.922934
267,467.000,852.852976
268,468.000,848.521973
269,469.000,856.35845
270,470.000,858.845614
271,471.000,864.672724
272,472.000,857.541103
273,473.000,861.421306
274,474.000,869.136245
275,475.000,859.199857
276,476.000,872.156697
277,477.000,880.108948
278,478.000,862.843849
279,479.000,872.752613
280,480.000,870.504244
281,481.000,873.211533
282,482.000,885.931132
283,483.000,892.524849
284,484.000,887.274514
285,485.000,885.33191
286,486.000,886.028228
287,487.000,875.225169
288,488.000,894.881874
289,489.000,875.741628
290,490.000,890.917285
291,491.000,901.847471
292,492.000,903.532137
293,493.000,904.7042
294,494.000,894.394276
295,495.000,893.632922
296,496.000,891.884828
297,497.000,910.942586
298,498.000,910.465223
299,499.000,902.407272
300,500.000,917.68855
301,501.000,905.183403
302,502.000,902.195247
303,503.000,912.664106
304,504.000,919.763858
305,505.000,913.695427
306,506.000,923.706996
307,507.000,915.254999
308,508.000,908.602776
309,509.000,922.829785
310,510.000,923.808541
311,511.000,927.861315
312,512.000,929.249273
313,513.000,938.499387
314,514.000,928.022929
315,515.000,925.587776
316,516.000,936.106184
317,517.000,937.556367
318,518.000,943.488988
319,519.000,950.793572
320,520.000,944.064436
321,521.000,943.753884
322,522.000,944.941534
323,523.000,956.96335
324,524.000,951.209952
325,525.000,962.160539
326,526.000,945.359165
327,527.000,961.343979
328,528.000,961.631338
329,529.000,954.106035
330,530.000,960.507057
331,531.000,957.995453
332,532.000,979.039056
333,533.000,957.31242
334,534.000,972.816699
335,535.000,973.998862
336,536.000,970.21007
337,537.000,975.20805
338,538.000,980.429359
339,539.000,962.965335
340,540.000,983.821635
341,541.000,968.036854
342,542.000,979.892099
343,543.000,994.282186
344,544.000,977.710912
345,545.000,986.070589
346,546.000,994.284629
347,547.000,983.463128
348,548.000,995.703326
349,549.000,990.568641
350,550.000,995.425616
351,551.000,995.2697
352,552.000,999.780411
353,553.000,1006.322485
354,554.000,1014.473579
355,555.000,1002.985831
356,556.000,1002.712173
357,557.000,1001.256099
358,558.000,1012.864279
359,559.000,1013.885326
360,560.000,1018.042355
361,561.000,1010.132896
362,562.000,1012.521417
363,563.000,1026.227619
364,564.000,1029.087292
365,565.000,1030.739594
366,566.000,1014.688956
367,567.000,1029.240535
368,568.000,1032.00664
369,569.000,1033.538715
370,570.000,1032.145284
371,571.000,1042.236094
372,572.000,1028.140971
373,573.000,1035.989917
374,574.000,1032.898615
375,575.000,1040.25134
376,576.000,1048.69128
377,577.000,1046.413465
378,578.000,1040.92769
379,579.000,1053.357563
380,580.000,1051.189657
381,581.000,1047.818796
382,582.000,1075.116483
383,583.000,1060.799539
384,584.000,1057.279719
385,585.000,1055.209924
386,586.000,1060.438684
387,587.000,1064.373517
388,588.000,1062.457674
389,589.000,1059.650792
390,590.000,1072.858503
391,591.000,1064.775363
392,592.000,1080.125316
393,593.000,1073.257639
394,594.000,1075.123502
395,595.000,1075.371821
396,596.000,1078.321183
397,597.000,1082.439362
398,598.000,1085.758696
399,599.000,1089.770418
400,600.000,1095.406508
401,601.000,1087.476573
402,602.000,1087.331498
403,603.000,1091.751889
404,604.000,1098.351555
405,605.000,1096.217656
406,606.000,1086.017574
407,607.000,1094.466648
408,608.000,1098.292379
409,609.000,1105.180896
410,610.000,1100.390849
411,611.000,1107.9049
412,612.000,1105.079022
413,613.000,1108.840268
414,614.000,1118.340793
415,615.000,1122.484208
416,616.000,1116.560399
417,617.000,1108.666981
418,618.000,1108.958746
419,619.000,1123.926167
420,620.000,1123.620807
421,621.000,1119.209688
422,622.000,1124.522278
423,623.000,1132.953331
424,624.000,1133.954587
425,625.000,1134.485116
426,626.000,1134.393844
427,627.000,1142.476215
428,628.000,1152.109486
429,629.000,1137.543912
430,630.000,1142.17259
431,631.000,1144.193272
432,632.000,1151.076332
433,633.000,1152.966407
434,634.000,1144.083683
435,635.000,1152.83851
436,636.000,1160.094327
437,637.000,1154.702536
438,638.000,1155.948685
439,639.000,1157.734065
440,640.000,1163.606428
441,641.000,1164.373942
442,642.000,1171.251543
443,643.000,1171.591402
444,644.000,1177.467692
445,645.000,1157.453172
446,646.000,1168.976651
447,647.000,1167.807636
448,648.000,1171.701356
449,649.000,1182.20322
450,650.000,1178.126878
451,651.000,1180.466313
452,652.000,1188.204853
453,653.000,1185.476455
454,654.000,1183.733889
455,655.000,1199.766868
456,656.000,1190.47281
457,657.000,1190.462068
458,658.000,1196.174313
459,659.000,1201.774278
460,660.000,1197.687346
461,661.000,1205.937785
462,662.000,1194.762174
463,663.000,1205.687192
464,664.000,1212.059201
465,665.000,1209.970509
466,666.000,1220.776256
467,667.000,1204.939868
468,668.000,1217.894409
469,669.000,1213.179533
470,670.000,1209.11375
471,671.000,1217.6928
472,672.000,1230.22053
473,673.000,1219.331343
474,674.000,1225.332333
475,675.000,1225.548535
476,676.000,1234.693832
477,677.000,1227.828791
478,678.000,1233.514299
479,679.000,1248.471824
480,680.000,1240.747678
481,681.000,1241.0134
482,682.000,1234.67418
483,683.000,1248.316761
484,684.000,1258.57558
485,685.000,1246.67916
486,686.000,1248.960772
487,687.000,1256.889318
488,688.000,1251.282207
489,689.000,1258.946199
490,690.000,1263.013442
491,691.000,1271.010551
492,692.000,1274.069316
493,693.000,1271.714793
494,694.000,1265.303227
495,695.000,1290.703921
496,696.000,1280.864209
497,697.000,1283.986059
498,698.000,1284.189925
499,699.000,1301.508954
500,700.000,1308.572277
501,701.000,1308.873817
502,702.000,1314.871571
503,703.000,1324.730801
504,704.000,1318.377578
505,705.000,1345.170786
506,706.000,1352.675881
507,707.000,1381.818306
508,708.000,1404.596997
509,709.000,1425.424355
510,710.000,1472.931647
511,711.000,1504.126825
512,712.000,1514.97575
513,713.000,1507.022539
514,714.000,1475.335421
515,715.000,1443.549388
516,716.000,1415.127624
517,717.000,1391.028771
518,718.000,1375.524795
519,719.000,1364.758288
520,720.000,1356.763066
521,721.000,1340.843031
522,722.000,1346.371074
523,723.000,1350.944323
524,724.000,1349.111232
525,725.000,1336.580796
526,726.000,1335.824763
527,727.000,1342.147338
528,728.000,1344.410931
529,729.000,1345.006376
530,730.000,1330.317037
531,731.000,1347.289129
532,732.000,1352.175117
533,733.000,1356.522676
534,734.000,1347.30257
535,735.000,1353.176512
536,736.000,1347.577611
537,737.000,1357.97596
538,738.000,1344.67884
539,739.000,1351.971394
540,740.000,1349.953956
541,741.000,1360.084991
542,742.000,1356.977361
543,743.000,1357.284155
544,744.000,1370.930904
545,745.000,1360.154274
546,746.000,1372.142087
547,747.000,1363.754492
548,748.000,1362.928632
549,749.000,1358.182698
550,750.000,1372.861363
551,751.000,1377.718796
552,752.000,1374.64275
553,753.000,1385.325256
554,754.000,1383.517046
555,755.000,1383.467173
556,756.000,1387.467433
557,757.000,1389.991561
558,758.000,1401.821878
559,759.000,1385.287914
560,760.000,1386.256426
561,761.000,1398.072058
562,762.000,1396.057605
563,763.000,1392.091158
564,764.000,1400.824976
565,765.000,1399.202213
566,766.000,1396.283435
567,767.000,1409.3281
568,768.000,1402.402793
569,769.000,1412.251148
570,770.000,1408.365303
571,771.000,1421.683952
572,772.000,1417.332724
573,773.000,1418.810677
574,774.000,1420.05194
575,775.000,1426.371719
576,776.000,1411.504466
577,777.000,1415.225717
578,778.000,1432.296318
579,779.000,1430.7172
580,780.000,1420.444287
581,781.000,1428.811128
582,782.000,1431.29628
583,783.000,1447.184963
584,784.000,1432.570998
585,785.000,1446.991855
586,786.000,1436.479658
587,787.000,1440.783549
588,788.000,1448.323724
589,789.000,1442.4217
590,790.000,1450.665724
591,791.000,1451.995019
592,792.000,1457.751866
593,793.000,1453.24685
594,794.000,1455.140558
595,795.000,1454.335788
596,796.000,1445.760948
597,797.000,1457.634001
598,798.000,1462.178518
599,799.000,1478.839811
600,800.000,1456.788795
601,801.000,1462.908754
602,802.000,1479.803804
603,803.000,1471.259049
604,804.000,1487.707024
605,805.000,1480.259629
606,806.000,1475.94552
607,807.000,1480.585217
608,808.000,1486.007356
609,809.000,1488.311116
610,810.000,1489.859674
611,811.000,1487.838652
612,812.000,1500.327074
613,813.000,1497.635208
614,814.000,1492.182171
615,815.000,1495.693567
616,816.000,1495.023563
617,817.000,1502.786243
618,818.000,1507.887712
619,819.000,1505.690066
620,820.000,1504.637853
621,821.000,1502.292535
622,822.000,1511.18702
623,823.000,1508.854062
624,824.000,1515.585704
625,825.000,1521.909038
626,826.000,1524.998012
627,827.000,1535.916373
628,828.000,1526.91076
629,829.000,1513.079913
630,830.000,1531.011848
631,831.000,1521.092466
632,832.000,1524.636182
633,833.000,1527.510337
634,834.000,1520.551093
635,835.000,1535.387951
636,836.000,1534.561514
637,837.000,1542.423671
638,838.000,1547.423846
639,839.000,1546.426863
640,840.000,1542.580801
641,841.000,1549.219503
642,842.000,1547.574073
643,843.000,1544.394606
644,844.000,1549.048997
645,845.000,1548.508102
646,846.000,1550.505628
647,847.000,1554.869541
648,848.000,1566.471421
649,849.000,1566.7617
650,850.000,1574.405229
651,851.000,1569.786395
652,852.000,1563.948565
653,853.000,1557.932801
654,854.000,1579.844536
655,855.000,1575.904292
656,856.000,1563.427685
657,857.000,1585.468698
658,858.000,1586.343686
659,859.000,1574.241542
660,860.000,1570.892766
661,861.000,1585.250915
662,862.000,1581.788031
663,863.000,1583.848853
664,864.000,1585.685342
665,865.000,1586.44779
666,866.000,1593.475094
667,867.000,1602.62116
668,868.000,1596.039786
669,869.000,1607.65339
670,870.000,1593.373737
671,871.000,1606.936347
672,872.000,1608.123122
673,873.000,1605.239076
674,874.000,1614.455137
675,875.000,1602.312132
676,876.000,1609.858934
677,877.000,1618.528798
678,878.000,1625.91344
679,879.000,1620.413432
680,880.000,1621.5135
681,881.000,1616.64399
682,882.000,1624.134922
683,883.000,1619.96382
684,884.000,1613.654825
685,885.000,1629.699287
686,886.000,1624.724184
687,887.000,1636.472801
688,888.000,1630.425978
689,889.000,1632.14082
690,890.000,1641.807486
691,891.000,1633.678934
692,892.000,1653.505366
693,893.000,1643.895502
694,894.000,1639.027219
695,895.000,1654.084126
696,896.000,1641.310824
697,897.000,1657.929071
698,898.000,1660.053642
699,899.000,1659.012294
700,900.000,1650.184272
701,901.000,1664.485834
702,902.000,1666.957693
703,903.000,1662.118507
704,904.000,1666.156846
705,905.000,1655.799937
706,906.000,1670.710778
707,907.000,1665.808559
708,908.000,1674.242663
709,909.000,1671.15949
710,910.000,1680.193461
711,911.000,1676.225533
712,912.000,1683.288996
713,913.000,1676.943437
714,914.000,1674.838034
715,915.000,1676.699964
716,916.000,1683.218434
717,917.000,1690.216323
718,918.000,1684.114753
719,919.000,1696.6524
720,920.000,1685.247052
721,921.000,1696.358546
722,922.000,1706.415119
723,923.000,1706.764071
724,924.000,1702.962981
725,925.000,1695.991795
726,926.000,1699.162432
727,927.000,1701.521304
728,928.000,1704.364955
729,929.000,1702.760667
730,930.000,1716.037325
731,931.000,1713.489139
732,932.000,1707.878718
733,933.000,1715.738468
734,934.000,1725.410773
735,935.000,1716.151054
736,936.000,1729.726663
737,937.000,1718.672115
738,938.000,1717.026973
739,939.000,1728.907709
740,940.000,1739.482701
741,941.000,1729.843526
742,942.000,1722.507843
743,943.000,1729.351923
744,944.000,1738.862235
745,945.000,1740.713065
746,946.000,1737.026747
747,947.000,1741.670561
748,948.000,1742.309516
749,949.000,1739.028691
750,950.000,1745.077861
751,951.000,1750.143598
752,952.000,1753.32496
753,953.000,1761.58775
754,954.000,1754.85229
755,955.000,1746.367465
756,956.000,1748.323776
757,957.000,1755.088967
758,958.000,1760.185026
759,959.000,1757.403048
760,960.000,1772.410182
761,961.000,1757.253652
762,962.000,1766.039994
763,963.000,1760.62055
764,964.000,1771.638027
765,965.000,1778.083987
766,966.000,1769.217103
767,967.000,1773.699875
768,968.000,1776.817527
769,969.000,1787.362318
770,970.000,1769.29626
771,971.000,1780.346867
772,972.000,1794.247518
773,973.000,1790.824357
774,974.000,1780.895246
775,975.000,1797.548691
776,976.000,1799.622787
777,977.000,1793.658565
778,978.000,1801.701952
779,979.000,1809.395773
780,980.000,1802.998298
781,981.000,1812.958293
782,982.000,1802.470667
783,983.000,1811.546982
784,984.000,1807.13637
785,985.000,1799.594122
786,986.000,1807.723693
787,987.000,1811.532193
788,988.000,1818.106635
789,989.000,1820.171725
790,990.000,1811.692265
791,991.000,1819.970737
792,992.000,1820.624554
793,993.000,1826.525834
794,994.000,1828.217831
795,995.000,1817.732704
796,996.000,1827.072324
797,997.000,1822.922881
798,998.000,1835.324384
799,999.000,1818.001728
800,1000.000,1829.63532
801,1001.000,1832.717718
802,1002.000,1840.247786
803,1003.000,1837.298955
804,1004.000,1838.743419
805,1005.000,1847.739393
806,1006.000,1842.499041
807,1007.000,1852.324679
808,1008.000,1851.266579
809,1009.000,1842.784328
810,1010.000,1849.212812
811,1011.000,1853.718031
812,1012.000,1859.677942
813,1013.000,1853.609124
814,1014.000,1857.542454
815,1015.000,1862.872001
816,1016.000,1870.522805
817,1017.000,1875.776503
818,1018.000,1869.745308
819,1019.000,1873.285209
820,1020.000,1883.425865
821,1021.000,1863.781206
822,1022.000,1872.442206
823,1023.000,1871.242004
824,1024.000,1885.34907
825,1025.000,1875.74465
826,1026.000,1876.733331
827,1027.000,1875.150506
828,1028.000,1878.254508
829,1029.000,1887.127255
830,1030.000,1890.791546
831,1031.000,1886.26473
832,1032.000,1899.482507
833,1033.000,1882.174255
834,1034.000,1892.863372
835,1035.000,1900.092575
836,1036.000,1895.397131
837,1037.000,1902.593876
838,1038.000,1902.910519
839,1039.000,1910.606982
840,1040.000,1902.554975
841,1041.000,1904.940886
842,1042.000,1912.453044
843,1043.000,1914.402523
844,1044.000,1916.558591
845,1045.000,1907.205188
846,1046.000,1917.786358
847,1047.000,1921.175261
848,1048.000,1916.913955
849,1049.000,1924.898931
850,1050.000,1938.842326
851,1051.000,1925.034388
852,1052.000,1932.611981
853,1053.000,1919.539009
854,1054.000,1938.3416
855,1055.000,1929.51906
856,1056.000,1948.08393
857,1057.000,1935.129769
858,1058.000,1938.189083
859,1059.000,1939.195338
860,1060.000,1948.69753
861,1061.000,1955.89253
862,1062.000,1959.241994
863,1063.000,1956.859111
864,1064.000,1970.308628
865,1065.000,1967.581415
866,1066.000,1973.65136
867,1067.000,1979.69025
868,1068.000,1974.246243
869,1069.000,1980.468462
870,1070.000,1992.353272
871,1071.000,1995.588903
872,1072.000,2003.914028
873,1073.000,2020.667157
874,1074.000,2028.841791
875,1075.000,2037.598513
876,1076.000,2058.993299
877,1077.000,2085.698703
878,1078.000,2120.208352
879,1079.000,2146.752851
880,1080.000,2203.353101
881,1081.000,2282.389936
882,1082.000,2395.582637
883,1083.000,2532.695111
884,1084.000,2726.534739
885,1085.000,2883.655562
886,1086.000,2963.414957
887,1087.000,2897.40318
888,1088.000,2714.559468
889,1089.000,2539.752799
890,1090.000,2413.92651
891,1091.000,2303.636663
892,1092.000,2235.982827
893,1093.000,2180.349681
894,1094.000,2136.078132
895,1095.000,2112.753683
896,1096.000,2099.664903
897,1097.000,2080.882701
898,1098.000,2065.308321
899,1099.000,2056.740673
900,1100.000,2051.545276
901,1101.000,2047.413513
902,1102.000,2033.827771
903,1103.000,2031.833077
904,1104.000,2026.271994
905,1105.000,2031.992685
906,1106.000,2035.559376
907,1107.000,2029.7127
908,1108.000,2025.494864
909,1109.000,2020.379354
910,1110.000,2023.614295
911,1111.000,2025.279623
912,1112.000,2031.941571
913,1113.000,2025.154582
914,1114.000,2034.349276
915,1115.000,2024.069311
916,1116.000,2034.505554
917,1117.000,2027.238636
918,1118.000,2018.493128
919,1119.000,2024.432022
920,1120.000,2030.431125
921,1121.000,2029.413169
922,1122.000,2032.921455
923,1123.000,2036.825565
924,1124.000,2031.685923
925,1125.000,2040.573536
926,1126.000,2026.806809
927,1127.000,2036.012168
928,1128.000,2042.544258
929,1129.000,2033.954255
930,1130.000,2037.247818
931,1131.000,2037.992766
932,1132.000,2044.414638
933,1133.000,2043.791811
934,1134.000,2040.257439
935,1135.000,2048.405673
936,1136.000,2059.191682
937,1137.000,2050.886442
938,1138.000,2058.339516
939,1139.000,2041.427813
940,1140.000,2053.318393
941,1141.000,2045.734886
942,1142.000,2044.602924
943,1143.000,2055.911263
944,1144.000,2058.97557
945,1145.000,2067.983895
946,1146.000,2049.706556
947,1147.000,2074.656616
948,1148.000,2060.909152
949,1149.000,2057.313335
950,1150.000,2064.247823
951,1151.000,2070.989887
952,1152.000,2066.315646
953,1153.000,2054.864469
954,1154.000,2067.495187
955,1155.000,2065.556125
956,1156.000,2071.396659
957,1157.000,2074.273416
958,1158.000,2082.274376
959,1159.000,2085.109148
960,1160.000,2080.471791
961,1161.000,2072.636286
962,1162.000,2091.034264
963,1163.000,2088.326929
964,1164.000,2075.58846
965,1165.000,2088.400652
966,1166.000,2081.631107
967,1167.000,2076.511739
968,1168.000,2086.575477
969,1169.000,2087.500531
970,1170.000,2091.834876
971,1171.000,2086.829625
972,1172.000,2086.29785
973,1173.000,2095.414564
974,1174.000,2092.56885
975,1175.000,2098.140626
976,1176.000,2095.066454
977,1177.000,2091.585676
978,1178.000,2112.908562
979,1179.000,2107.289217
980,1180.000,2095.249658
981,1181.000,2097.05126
982,1182.000,2107.738247
983,1183.000,2109.132564
984,1184.000,2096.553971
985,1185.000,2106.38813
986,1186.000,2107.808732
987,1187.000,2115.119927
988,1188.000,2112.970519
989,1189.000,2113.330325
990,1190.000,2112.120182
991,1191.000,2111.013436
992,1192.000,2110.533857
993,1193.000,2115.197618
994,1194.000,2111.01426
995,1195.000,2126.647638
996,1196.000,2118.385654
997,1197.000,2125.4719
998,1198.000,2119.967905
999,1199.000,2121.288178
1000,1200.000,2122.543437
1001,1201.000,2124.794314
1002,1202.000,2126.897831
1003,1203.000,2126.035352
1004,1204.000,2121.820765
1005,1205.000,2135.383168
1006,1206.000,2129.511813
1007,1207.000,2127.841608
1008,1208.000,2131.529894
1009,1209.000,2136.443509
1010,1210.000,2140.91994
1011,1211.000,2125.103843
1012,1212.000,2150.859742
1013,1213.000,2135.886528
1014,1214.000,2140.814405
1015,1215.000,2146.291979
1016,1216.000,2145.208849
1017,1217.000,2144.518667
1018,1218.000,2140.612984
1019,1219.000,2142.814659
1020,1220.000,2141.211229
1021,1221.000,2141.894702
1022,1222.000,2156.436734
1023,1223.000,2148.621191
1024,1224.000,2151.799551
1025,1225.000,2148.550279
1026,1226.000,2146.011799
1027,1227.000,2160.51936
1028,1228.000,2156.687565
1029,1229.000,2160.612563
1030,1230.000,2160.94577
1031,1231.000,2146.617591
1032,1232.000,2168.059189
1033,1233.000,2163.557831
1034,1234.000,2161.219605
1035,1235.000,2161.474935
1036,1236.000,2169.721993
1037,1237.000,2169.192719
1038,1238.000,2155.798991
1039,1239.000,2164.416263
1040,1240.000,2175.151074
1041,1241.000,2165.273178
1042,1242.000,2168.290013
1043,1243.000,2167.90539
1044,1244.000,2178.144574
1045,1245.000,2172.7553
1046,1246.000,2173.429694
1047,1247.000,2170.583274
1048,1248.000,2173.795743
1049,1249.000,2171.024867
1050,1250.000,2169.41504
1051,1251.000,2184.4468
1052,1252.000,2183.344686
1053,1253.000,2183.381284
1054,1254.000,2196.443086
1055,1255.000,2184.999659
1056,1256.000,2180.606785
1057,1257.000,2183.086086
1058,1258.000,2180.427748
1059,1259.000,2189.662476
1060,1260.000,2183.957974
1061,1261.000,2185.180619
1062,1262.000,2188.92974
1063,1263.000,2180.627163
1064,1264.000,2186.980142
1065,1265.000,2180.775257
1066,1266.000,2195.471009
1067,1267.000,2182.58158
1068,1268.000,2193.820234
1069,1269.000,2188.900917
1070,1270.000,2186.034615
1071,1271.000,2196.563718
1072,1272.000,2189.744629
1073,1273.000,2203.854793
1074,1274.000,2198.34795
1075,1275.000,2204.476381
1076,1276.000,2189.027204
1077,1277.000,2205.48981
1078,1278.000,2207.619896
1079,1279.000,2204.032319
1080,1280.000,2198.63538
1081,1281.000,2203.48355
1082,1282.000,2204.724235
1083,1283.000,2210.451099
1084,1284.000,2208.390786
1085,1285.000,2202.264962
1086,1286.000,2199.892859
1087,1287.000,2215.252455
1088,1288.000,2213.033099
1089,1289.000,2219.668996
1090,1290.000,2213.533041
1091,1291.000,2213.805616
1092,1292.000,2210.023954
1093,1293.000,2208.802408
1094,1294.000,2214.394258
1095,1295.000,2214.808544
1096,1296.000,2211.594415
1097,1297.000,2220.167959
1098,1298.000,2222.791674
1099,1299.000,2221.00902
1100,1300.000,2211.393856
1101,1301.000,2215.638793
1102,1302.000,2216.441492
1103,1303.000,2218.800681
1104,1304.000,2227.682967
1105,1305.000,2237.870433
1106,1306.000,2230.671554
1107,1307.000,2221.688923
1108,1308.000,2224.599494
1109,1309.000,2231.291748
1110,1310.000,2231.08057
1111,1311.000,2233.732974
1112,1312.000,2226.48844
1113,1313.000,2236.335291
1114,1314.000,2232.388313
1115,1315.000,2226.396172
1116,1316.000,2232.837052
1117,1317.000,2234.836138
1118,1318.000,2235.367741
1119,1319.000,2240.98508
1120,1320.000,2241.491621
1121,1321.000,2237.902904
1122,1322.000,2236.836025
1123,1323.000,2238.566206
1124,1324.000,2230.711624
1125,1325.000,2250.261422
1126,1326.000,2245.825604
1127,1327.000,2248.862564
1128,1328.000,2240.9437
1129,1329.000,2249.046656
1130,1330.000,2248.055766
1131,1331.000,2242.800982
1132,1332.000,2233.030544
1133,1333.000,2247.512051
1134,1334.000,2237.679094
1135,1335.000,2248.852945
1136,1336.000,2245.090135
1137,1337.000,2250.590342
1138,1338.000,2246.784693
1139,1339.000,2251.297998
1140,1340.000,2245.082434
1141,1341.000,2253.640586
1142,1342.000,2248.672728
1143,1343.000,2254.231826
1144,1344.000,2247.271294
1145,1345.000,2249.848209
1146,1346.000,2260.258298
1147,1347.000,2258.967322
1148,1348.000,2246.664734
1149,1349.000,2253.5346
1150,1350.000,2248.682535
1151,1351.000,2256.45922
1152,1352.000,2252.688714
1153,1353.000,2254.016518
1154,1354.000,2258.938188
1155,1355.000,2268.065927
1156,1356.000,2255.527757
1157,1357.000,2258.597319
1158,1358.000,2274.329879
1159,1359.000,2258.970696
1160,1360.000,2264.148244
1161,1361.000,2257.275984
1162,1362.000,2266.712764
1163,1363.000,2262.941084
1164,1364.000,2250.723421
1165,1365.000,2262.810109
1166,1366.000,2270.549996
1167,1367.000,2280.967023
1168,1368.000,2256.428941
1169,1369.000,2262.827525
1170,1370.000,2275.694319
1171,1371.000,2256.81037
1172,1372.000,2269.436042
1173,1373.000,2268.389926
1174,1374.000,2273.310128
1175,1375.000,2269.826764
1176,1376.000,2281.108578
1177,1377.000,2273.581047
1178,1378.000,2269.931948
1179,1379.000,2272.939119
1180,1380.000,2264.165654
1181,1381.000,2270.512286
1182,1382.000,2283.496541
1183,1383.000,2275.526794
1184,1384.000,2280.531027
1185,1385.000,2272.784606
1186,1386.000,2268.004265
1187,1387.000,2269.820344
1188,1388.000,2271.317886
1189,1389.000,2282.297758
1190,1390.000,2276.885277
1191,1391.000,2266.790652
1192,1392.000,2278.066154
1193,1393.000,2277.09232
1194,1394.000,2281.94955
1195,1395.000,2263.076726
1196,1396.000,2291.943211
1197,1397.000,2284.898051
1198,1398.000,2284.598485
1199,1399.000,2276.206105
1200,1400.000,2280.359673
1201,1401.000,2293.509587
1202,1402.000,2293.58612
1203,1403.000,2284.770544
1204,1404.000,2279.644468
1205,1405.000,2276.196596
1206,1406.000,2292.800762
1207,1407.000,2296.456615
1208,1408.000,2287.060187
1209,1409.000,2292.959619
1210,1410.000,2296.463331
1211,1411.000,2300.704061
1212,1412.000,2305.138555
1213,1413.000,2291.991528
1214,1414.000,2301.004713
1215,1415.000,2295.008567
1216,1416.000,2300.853374
1217,1417.000,2313.530988
1218,1418.000,2306.975993
1219,1419.000,2298.212833
1220,1420.000,2310.3863
1221,1421.000,2319.083243
1222,1422.000,2322.006262
1223,1423.000,2318.436385
1224,1424.000,2319.199577
1225,1425.000,2328.727255
1226,1426.000,2327.928476
1227,1427.000,2332.023307
1228,1428.000,2336.535786
1229,1429.000,2339.323134
1230,1430.000,2353.909177
1231,1431.000,2360.401841
1232,1432.000,2355.823539
1233,1433.000,2365.478138
1234,1434.000,2363.123004
1235,1435.000,2374.390018
1236,1436.000,2381.827619
1237,1437.000,2367.738681
1238,1438.000,2364.150155
1239,1439.000,2373.516788
1240,1440.000,2374.183383
1241,1441.000,2360.001488
1242,1442.000,2355.685428
1243,1443.000,2347.142712
1244,1444.000,2338.980884
1245,1445.000,2330.761786
1246,1446.000,2335.145748
1247,1447.000,2327.546787
1248,1448.000,2322.589416
1249,1449.000,2315.770348
1250,1450.000,2320.150886
1251,1451.000,2307.295662
1252,1452.000,2324.836089
1253,1453.000,2310.618795
1254,1454.000,2313.085993
1255,1455.000,2315.891462
1256,1456.000,2312.313996
1257,1457.000,2307.122975
1258,1458.000,2316.187127
1259,1459.000,2313.351896
1260,1460.000,2314.027108
1261,1461.000,2313.870348
1262,1462.000,2307.968531
1263,1463.000,2309.314429
1264,1464.000,2306.481131
1265,1465.000,2300.139179
1266,1466.000,2308.926001
1267,1467.000,2309.19806
1268,1468.000,2316.646992
1269,1469.000,2304.407562
1270,1470.000,2301.559306
1271,1471.000,2297.351416
1272,1472.000,2301.953649
1273,1473.000,2306.016803
1274,1474.000,2307.999372
1275,1475.000,2305.67687
1276,1476.000,2310.261868
1277,1477.000,2307.581709
1278,1478.000,2313.90079
1279,1479.000,2292.416858
1280,1480.000,2301.84347
1281,1481.000,2308.930414
1282,1482.000,2298.374793
1283,1483.000,2299.332887
1284,1484.000,2307.903749
1285,1485.000,2299.824413
1286,1486.000,2304.518916
1287,1487.000,2299.966572
1288,1488.000,2307.351162
1289,1489.000,2302.17618
1290,1490.000,2296.152891
1291,1491.000,2305.097431
1292,1492.000,2307.923769
1293,1493.000,2307.929012
1294,1494.000,2296.362946
1295,1495.000,2297.894784
1296,1496.000,2304.04111
1297,1497.000,2296.698595
1298,1498.000,2305.225197
1299,1499.000,2298.906213
1300,1500.000,2295.136821
1301,1501.000,2295.603205
1302,1502.000,2307.830285
1303,1503.000,2302.383283
1304,1504.000,2305.40142
1305,1505.000,2300.186115
1306,1506.000,2292.471101
1307,1507.000,2302.769373
1308,1508.000,2299.224815
1309,1509.000,2301.086066
1310,1510.000,2303.652607
1311,1511.000,2308.417325
1312,1512.000,2298.334389
1313,1513.000,2303.622985
1314,1514.000,2290.146724
1315,1515.000,2302.504644
1316,1516.000,2301.867878
1317,1517.000,2299.239458
1318,1518.000,2301.085332
1319,1519.000,2300.076824
1320,1520.000,2302.86504
1321,1521.000,2304.423035
1322,1522.000,2313.264581
1323,1523.000,2302.513253
1324,1524.000,2299.225766
1325,1525.000,2298.745826
1326,1526.000,2306.369509
1327,1527.000,2297.613099
1328,1528.000,2307.242966
1329,1529.000,2297.419544
1330,1530.000,2303.493766
1331,1531.000,2289.787774
1332,1532.000,2307.701111
1333,1533.000,2295.400433
1334,1534.000,2296.608517
1335,1535.000,2292.777919
1336,1536.000,2286.454379
1337,1537.000,2303.024691
1338,1538.000,2300.004187
1339,1539.000,2297.202931
1340,1540.000,2296.628774
1341,1541.000,2291.997519
1342,1542.000,2286.295483
1343,1543.000,2291.932637
1344,1544.000,2301.905157
1345,1545.000,2302.990062
1346,1546.000,2300.290405
1347,1547.000,2297.814204
1348,1548.000,2304.371014
1349,1549.000,2294.857008
1350,1550.000,2291.725519
1351,1551.000,2291.644893
1352,1552.000,2291.069712
1353,1553.000,2290.036984
1354,1554.000,2292.798254
1355,1555.000,2300.740982
1356,1556.000,2290.045606
1357,1557.000,2280.430744
1358,1558.000,2299.802277
1359,1559.000,2289.089471
1360,1560.000,2290.689462
1361,1561.000,2307.82947
1362,1562.000,2301.11913
1363,1563.000,2287.195377
1364,1564.000,2291.406527
1365,1565.000,2291.726873
1366,1566.000,2284.687142
1367,1567.000,2293.872146
1368,1568.000,2295.511842
1369,1569.000,2301.987851
1370,1570.000,2282.225838
1371,1571.000,2296.598792
1372,1572.000,2293.471517
1373,1573.000,2294.42094
1374,1574.000,2294.610481
1375,1575.000,2287.251443
1376,1576.000,2297.664918
1377,1577.000,2293.880586
1378,1578.000,2311.318502
1379,1579.000,2291.691178
1380,1580.000,2290.747371
1381,1581.000,2287.378575
1382,1582.000,2292.276117
1383,1583.000,2289.652561
1384,1584.000,2292.00137
1385,1585.000,2298.24299
1386,1586.000,2297.430496
1387,1587.000,2293.575062
1388,1588.000,2286.760785
1389,1589.000,2281.402667
1390,1590.000,2289.027335
1391,1591.000,2290.901372
1392,1592.000,2283.225205
1393,1593.000,2290.870634
1394,1594.000,2291.754558
1395,1595.000,2285.938904
1396,1596.000,2274.293718
1397,1597.000,2274.619801
1398,1598.000,2286.839905
1399,1599.000,2286.092298
1400,1600.000,2276.214611
1401,1601.000,2281.308967
1402,1602.000,2273.97332
1403,1603.000,2273.298276
1404,1604.000,2283.513373
1405,1605.000,2288.89239
1406,1606.000,2272.290103
1407,1607.000,2285.774175
1408,1608.000,2285.454708
1409,1609.000,2278.617469
1410,1610.000,2284.203833
1411,1611.000,2279.348151
1412,1612.000,2270.936334
1413,1613.000,2274.61176
1414,1614.000,2275.504629
1415,1615.000,2276.708578
1416,1616.000,2275.438321
1417,1617.000,2270.51236
1418,1618.000,2276.904819
1419,1619.000,2277.525771
1420,1620.000,2272.541576
1421,1621.000,2284.842608
1422,1622.000,2270.191369
1423,1623.000,2281.492925
1424,1624.000,2276.443248
1425,1625.000,2278.051629
1426,1626.000,2273.17427
1427,1627.000,2270.712881
1428,1628.000,2270.696925
1429,1629.000,2259.724999
1430,1630.000,2262.731523
1431,1631.000,2274.845104
1432,1632.000,2275.158493
1433,1633.000,2266.823197
1434,1634.000,2273.079278
1435,1635.000,2280.44411
1436,1636.000,2275.42299
1437,1637.000,2261.802503
1438,1638.000,2265.110974
1439,1639.000,2265.664816
1440,1640.000,2268.209964
1441,1641.000,2267.945733
1442,1642.000,2266.839273
1443,1643.000,2266.681595
1444,1644.000,2269.200058
1445,1645.000,2266.529483
1446,1646.000,2262.893714
1447,1647.000,2260.124597
1448,1648.000,2266.897287
1449,1649.000,2260.408172
1450,1650.000,2276.158304
1451,1651.000,2260.006947
1452,1652.000,2254.199892
1453,1653.000,2260.212265
1454,1654.000,2255.509233
1455,1655.000,2256.606973
1456,1656.000,2261.951352
1457,1657.000,2254.780012
1458,1658.000,2254.053948
1459,1659.000,2250.827537
1460,1660.000,2253.963855
1461,1661.000,2253.361915
1462,1662.000,2261.531591
1463,1663.000,2243.982238
1464,1664.000,2252.301398
1465,1665.000,2264.92915
1466,1666.000,2233.987974
1467,1667.000,2256.464745
1468,1668.000,2246.23128
1469,1669.000,2252.307489
1470,1670.000,2254.844482
1471,1671.000,2247.75305
1472,1672.000,2247.5465
1473,1673.000,2248.448469
1474,1674.000,2233.809573
1475,1675.000,2239.439722
1476,1676.000,2252.601614
1477,1677.000,2241.973714
1478,1678.000,2258.365055
1479,1679.000,2245.569873
1480,1680.000,2242.856659
1481,1681.000,2249.254826
1482,1682.000,2233.356237
1483,1683.000,2255.012808
1484,1684.000,2248.53283
1485,1685.000,2237.991332
1486,1686.000,2228.542175
1487,1687.000,2242.489209
1488,1688.000,2238.824447
1489,1689.000,2231.802661
1490,1690.000,2239.508284
1491,1691.000,2238.991206
1492,1692.000,2236.426445
1493,1693.000,2227.784734
1494,1694.000,2241.648176
1495,1695.000,2244.136068
1496,1696.000,2248.547727
1497,1697.000,2235.484577
1498,1698.000,2232.182649
1499,1699.000,2227.948008
1500,1700.000,2234.135916
1501,1701.000,2219.623696
1502,1702.000,2236.985699
1503,1703.000,2239.280842
1504,1704.000,2224.411652
1505,1705.000,2224.124763
1506,1706.000,2215.775758
1507,1707.000,2229.386303
1508,1708.000,2226.238951
1509,1709.000,2227.68328
1510,1710.000,2224.421179
1511,1711.000,2221.288758
1512,1712.000,2225.979036
1513,1713.000,2224.496483
1514,1714.000,2227.458593
1515,1715.000,2226.407574
1516,1716.000,2227.902475
1517,1717.000,2224.943925
1518,1718.000,2227.622653
1519,1719.000,2220.532039
1520,1720.000,2223.76514
1521,1721.000,2216.148252
1522,1722.000,2213.857295
1523,1723.000,2208.888731
1524,1724.000,2209.088485
1525,1725.000,2211.951723
1526,1726.000,2226.73055
1527,1727.000,2219.099393
1528,1728.000,2213.085592
1529,1729.000,2205.599398
1530,1730.000,2212.336984
1531,1731.000,2209.012952
1532,1732.000,2208.28684
1533,1733.000,2213.349981
1534,1734.000,2213.316152
1535,1735.000,2212.069595
1536,1736.000,2202.226942
1537,1737.000,2209.292517
1538,1738.000,2211.296415
1539,1739.000,2195.840838
1540,1740.000,2199.936753
1541,1741.000,2212.792733
1542,1742.000,2197.159126
1543,1743.000,2196.461551
1544,1744.000,2206.721016
1545,1745.000,2196.286115
1546,1746.000,2200.409911
1547,1747.000,2186.234679
1548,1748.000,2189.235306
1549,1749.000,2195.491582
1550,1750.000,2208.230408
1551,1751.000,2190.572624
1552,1752.000,2194.430732
1553,1753.000,2190.468703
1554,1754.000,2191.870477
1555,1755.000,2186.114579
1556,1756.000,2174.58423
1557,1757.000,2187.41667
1558,1758.000,2178.262641
1559,1759.000,2184.399313
1560,1760.000,2188.384173
1561,1761.000,2194.460941
1562,1762.000,2193.137486
1563,1763.000,2185.92804
1564,1764.000,2178.322244
1565,1765.000,2179.911111
1566,1766.000,2189.491932
1567,1767.000,2183.543429
1568,1768.000,2180.582295
1569,1769.000,2185.634762
1570,1770.000,2171.610611
1571,1771.000,2190.031181
1572,1772.000,2182.219378
1573,1773.000,2169.903016
1574,1774.000,2171.508221
1575,1775.000,2179.827973
1576,1776.000,2169.231976
1577,1777.000,2172.462611
1578,1778.000,2184.109926
1579,1779.000,2168.978009
1580,1780.000,2170.213188
1581,1781.000,2175.054573
1582,1782.000,2174.468624
1583,1783.000,2179.461775
1584,1784.000,2162.135502
1585,1785.000,2167.268171
1586,1786.000,2168.122726
1587,1787.000,2160.241146
1588,1788.000,2161.254299
1589,1789.000,2167.596479
1590,1790.000,2160.407291
1591,1791.000,2160.69596
1592,1792.000,2155.97762
1593,1793.000,2153.227776
1594,1794.000,2152.755943
1595,1795.000,2163.176429
1596,1796.000,2168.235381
1597,1797.000,2154.211391
1598,1798.000,2166.802051
1599,1799.000,2149.316439
1600,1800.000,2150.056861
1601,1801.000,2146.840889
1602,1802.000,2149.975546
1603,1803.000,2154.072515
1604,1804.000,2151.068768
1605,1805.000,2146.645481
1606,1806.000,2154.463639
1607,1807.000,2141.831692
1608,1808.000,2145.164372
1609,1809.000,2136.429689
1610,1810.000,2154.878887
1611,1811.000,2139.87561
1612,1812.000,2147.686562
1613,1813.000,2131.857346
1614,1814.000,2140.338664
1615,1815.000,2145.954265
1616,1816.000,2145.965425
1617,1817.000,2138.465405
1618,1818.000,2134.211119
1619,1819.000,2130.663027
1620,1820.000,2136.433343
1621,1821.000,2137.576256
1622,1822.000,2137.751384
1623,1823.000,2127.521574
1624,1824.000,2130.526422
1625,1825.000,2124.741337
1626,1826.000,2118.836801
1627,1827.000,2129.731626
1628,1828.000,2120.942598
1629,1829.000,2127.67357
1630,1830.000,2124.244696
1631,1831.000,2128.889798
1632,1832.000,2119.969265
1633,1833.000,2121.843231
1634,1834.000,2123.784341
1635,1835.000,2119.684805
1636,1836.000,2112.828265
1637,1837.000,2121.717909
1638,1838.000,2126.577562
1639,1839.000,2114.961904
1640,1840.000,2115.202907
1641,1841.000,2114.053883
1642,1842.000,2103.501808
1643,1843.000,2113.892941
1644,1844.000,2117.319591
1645,1845.000,2104.673475
1646,1846.000,2106.31778
1647,1847.000,2114.311779
1648,1848.000,2116.186234
1649,1849.000,2094.109166
1650,1850.000,2110.118473
1651,1851.000,2094.877046
1652,1852.000,2107.193262
1653,1853.000,2102.367772
1654,1854.000,2108.30487
1655,1855.000,2090.730935
1656,1856.000,2092.79391
1657,1857.000,2090.622219
1658,1858.000,2102.955316
1659,1859.000,2105.175875
1660,1860.000,2102.595424
1661,1861.000,2088.021233
1662,1862.000,2089.987616
1663,1863.000,2085.413954
1664,1864.000,2086.940958
1665,1865.000,2091.068459
1666,1866.000,2099.320752
1667,1867.000,2086.227851
1668,1868.000,2078.311563
1669,1869.000,2090.99865
1670,1870.000,2091.584758
1671,1871.000,2094.15675
1672,1872.000,2090.752704
1673,1873.000,2083.643078
1674,1874.000,2066.642365
1675,1875.000,2085.503391
1676,1876.000,2073.751908
1677,1877.000,2080.096968
1678,1878.000,2070.411404
1679,1879.000,2086.84785
1680,1880.000,2076.082143
1681,1881.000,2072.81225
1682,1882.000,2076.777025
1683,1883.000,2063.954351
1684,1884.000,2061.309315
1685,1885.000,2072.623615
1686,1886.000,2076.606254
1687,1887.000,2066.962262
1688,1888.000,2067.151559
1689,1889.000,2062.406421
1690,1890.000,2067.503416
1691,1891.000,2059.346071
1692,1892.000,2060.294165
1693,1893.000,2053.182156
1694,1894.000,2061.228476
1695,1895.000,2064.810131
1696,1896.000,2059.539068
1697,1897.000,2066.078044
1698,1898.000,2055.266367
1699,1899.000,2049.696359
1700,1900.000,2051.432324
1701,1901.000,2051.544311
1702,1902.000,2052.905071
1703,1903.000,2058.938212
1704,1904.000,2050.956839
1705,1905.000,2062.19023
1706,1906.000,2039.944759
1707,1907.000,2057.710769
1708,1908.000,2050.583346
1709,1909.000,2041.464851
1710,1910.000,2048.877558
1711,1911.000,2049.131341
1712,1912.000,2050.567991
1713,1913.000,2048.713302
1714,1914.000,2043.879066
1715,1915.000,2033.698645
1716,1916.000,2043.825345
1717,1917.000,2042.830669
1718,1918.000,2039.836561
1719,1919.000,2035.76777
1720,1920.000,2036.144541
1721,1921.000,2040.874865
1722,1922.000,2030.342319
1723,1923.000,2041.260149
1724,1924.000,2025.508207
1725,1925.000,2018.718627
1726,1926.000,2026.25627
1727,1927.000,2031.043151
1728,1928.000,2029.012935
1729,1929.000,2018.635179
1730,1930.000,2025.744661
1731,1931.000,2019.235004
1732,1932.000,2029.026253
1733,1933.000,2022.402839
1734,1934.000,2023.227125
1735,1935.000,2037.391522
1736,1936.000,2014.080062
1737,1937.000,2017.186358
1738,1938.000,2017.038642
1739,1939.000,2008.083424
1740,1940.000,2012.230277
1741,1941.000,2023.428541
1742,1942.000,2009.290091
1743,1943.000,2001.535733
1744,1944.000,2010.390692
1745,1945.000,2008.813198
1746,1946.000,2012.397516
1747,1947.000,2018.948279
1748,1948.000,1998.21959
1749,1949.000,1990.687722
1750,1950.000,1994.032549
1751,1951.000,2001.440413
1752,1952.000,2003.956947
1753,1953.000,2003.739985
1754,1954.000,2003.15331
1755,1955.000,1998.41118
1756,1956.000,2003.744763
1757,1957.000,1982.48473
1758,1958.000,2000.661765
1759,1959.000,1990.726728
1760,1960.000,1986.171267
1761,1961.000,1987.349195
1762,1962.000,1988.229636
1763,1963.000,1983.822414
1764,1964.000,1979.786064
1765,1965.000,1984.374367
1766,1966.000,1986.152471
1767,1967.000,1984.107033
1768,1968.000,1977.47885
1769,1969.000,1978.659301
1770,1970.000,1979.300757
1771,1971.000,1976.307335
1772,1972.000,1975.464012
1773,1973.000,1972.021711
1774,1974.000,1968.773216
1775,1975.000,1982.885613
1776,1976.000,1971.961991
1777,1977.000,1971.00173
1778,1978.000,1961.731845
1779,1979.000,1964.873157
1780,1980.000,1963.021745
1781,1981.000,1971.880753
1782,1982.000,1960.459571
1783,1983.000,1978.306976
1784,1984.000,1955.633481
1785,1985.000,1971.390341
1786,1986.000,1969.248639
1787,1987.000,1963.94016
1788,1988.000,1962.593398
1789,1989.000,1965.008853
1790,1990.000,1947.801773
1791,1991.000,1965.642321
1792,1992.000,1947.172637
1793,1993.000,1961.174572
1794,1994.000,1946.084249
1795,1995.000,1944.350101
1796,1996.000,1951.913053
1797,1997.000,1937.129419
1798,1998.000,1948.050237
1799,1999.000,1950.119028
1800,2000.000,1948.581483
