pixel_index,raman_shift_cm-1,intensity
0,200.000,-6.918120542911538
1,201.000,-13.425438055704376
2,202.000,-13.04585663402679
3,203.000,-26.709380612860173
4,204.000,-12.951070294511453
5,205.000,-18.601696948663346
6,206.000,-11.127591812424328
7,207.000,-23.907183090379306
8,208.000,-22.356135954639456
9,209.000,-26.072435544892073
10,210.000,-26.753379968451554
11,211.000,-18.997824300308764
12,212.000,-16.485103583181683
13,213.000,-28.877410827565484
14,214.000,-9.501288011782549
15,215.000,-19.03829208203291
16,216.000,-21.123928952444032
17,217.000,-21.894353505121444
18,218.000,-13.752872590198706
19,219.000,-25.019138025887287
20,220.000,-22.907684598527226
21,221.000,-22.86545206263719
22,222.000,-17.68268114096429
23,223.000,-18.32625152453471
24,224.000,-26.018223872703402
25,225.000,-11.876982813205018
26,226.000,-15.706477942203037
27,227.000,-21.077531824340895
28,228.000,-13.247263992791488
29,229.000,-12.692380949307903
30,230.000,-17.10242716427325
31,231.000,-17.370780076750407
32,232.000,-9.627612094533333
33,233.000,-9.414604594196021
34,234.000,-15.871887921143866
35,235.000,-16.522340389662418
36,236.000,-11.582430282968971
37,237.000,-25.271976853261663
38,238.000,-14.909244321770302
39,239.000,-18.699985878806388
40,240.000,-7.734959683813031
41,241.000,-0.4882248654153045
42,242.000,-11.504912521470487
43,243.000,6.681169280881818
44,244.000,-10.364125494830432
45,245.000,1.534685145537992
46,246.000,-13.939069773300275
47,247.000,-6.174175196115812
48,248.000,-5.270052037212281
49,249.000,-14.378978180476679
50,250.000,0.49443752057050006
51,251.000,1.708001242725004
52,252.000,-10.533853806951356
53,253.000,2.765473608819889
54,254.000,-1.8629902425180944
55,255.000,-4.241024063405575
56,256.000,5.947146473782141
57,257.000,6.017514726685135
58,258.000,10.08248908290875
59,259.000,-1.9978010400267294
60,260.000,15.864740805263523
61,261.000,3.5059120959792835
62,262.000,22.796743339084287
63,263.000,20.07074007125709
64,264.000,22.954993858839885
65,265.000,21.916570297788894
66,266.000,33.14024001362441
67,267.000,36.94596966137988
68,268.000,36.92625892555213
69,269.000,53.00905352005179
70,270.000,42.03983518815187
71,271.000,72.69275170243861
72,272.000,82.58372886476104
73,273.000,95.6370665061803
74,274.000,117.06424048692043
75,275.000,152.07984769631764
76,276.000,165.9883980527694
77,277.000,197.78232550368637
78,278.000,226.36358402543942
79,279.000,261.3503946233121
80,280.000,299.7973023314487
81,281.000,309.4003702128048
82,282.000,319.61171335909705
83,283.000,324.855817890753
84,284.000,295.1247269568605
85,285.000,265.80858473511853
86,286.000,238.15104543178563
87,287.000,186.62138528163086
88,288.000,168.18431054788334
89,289.000,143.07031852218176
90,290.000,119.79022552452466
91,291.000,103.0238099032199
92,292.000,93.74652703483434
93,293.000,66.7667083241447
94,294.000,59.20710320408591
95,295.000,56.708337135702095
96,296.000,43.56974160809557
97,297.000,43.766101138377735
98,298.000,32.892027271617394
99,299.000,21.463561580791975
100,300.000,34.226575666736835
101,301.000,11.355540158094868
102,302.000,5.21194471126671
103,303.000,30.913424010360245
104,304.000,30.352390767140378
105,305.000,3.216911720979624
106,306.000,4.5998336388067855
107,307.000,16.575540315057765
108,308.000,0.7977945716247632
109,309.000,4.806239257806737
110,310.000,7.178793250258195
111,311.000,0.34664345294027044
112,312.000,-1.9208132029305034
113,313.000,-6.529696758931436
114,314.000,-0.10933722948482227
115,315.000,4.126048398092507
116,316.000,-1.9994658364610132
117,317.000,3.1425161335980647
118,318.000,9.883884401968203
119,319.000,-7.064545910748279
120,320.000,2.9270213429063006
121,321.000,-7.319526662806538
122,322.000,-2.3662787268709735
123,323.000,-0.3301396215673549
124,324.000,-5.968087092522069
125,325.000,-1.0953718587580852
126,326.000,-6.7789746127448325
127,327.000,-3.8473390204486577
128,328.000,6.068183278617653
129,329.000,6.3792196713440035
130,330.000,-2.2149434290273575
131,331.000,-4.1983085829507445
132,332.000,1.6215256753711174
133,333.000,4.916535837938113
134,334.000,-6.156275577097745
135,335.000,-10.074370025482608
136,336.000,-6.482188936910916
137,337.000,-5.596348715075692
138,338.000,4.726311262281683
139,339.000,-3.0543573566791338
140,340.000,-16.05841889794749
141,341.000,-5.788826661711482
142,342.000,-1.3905799224090742
143,343.000,-3.087953928777438
144,344.000,-6.329728903903288
145,345.000,-7.600054045273396
146,346.000,-17.824703524823917
147,347.000,-8.871163488992352
148,348.000,6.807211941234755
149,349.000,1.6602916702692028
150,350.000,-11.98851737212658
151,351.000,-15.544898230892386
152,352.000,-18.18934792571804
153,353.000,-3.642503451095081
154,354.000,-5.342738776365991
155,355.000,-2.454013845775421
156,356.000,5.358498421480931
157,357.000,-7.148736868794913
158,358.000,-8.977665585852833
159,359.000,-8.538789574044927
160,360.000,-9.034841652875684
161,361.000,-9.787620617052426
162,362.000,-9.313713236534568
163,363.000,-5.315351256585245
164,364.000,-2.540649397819948
165,365.000,5.97837164374198
166,366.000,-18.23253580337189
167,367.000,-7.459993386137626
168,368.000,-9.771164727084965
169,369.000,1.9760535756520312
170,370.000,-7.853145051714591
171,371.000,-9.46557315867642
172,372.000,-8.010312270480881
173,373.000,-1.2628918881787285
174,374.000,2.834652511323725
175,375.000,-3.932407524784594
176,376.000,-2.937337425269675
177,377.000,-8.407679594903357
178,378.000,-1.1986084145122504
179,379.000,1.4239057589707045
180,380.000,-1.7579634075426611
181,381.000,-2.3741412233471237
182,382.000,-6.830007973993247
183,383.000,-4.616170921337925
184,384.000,-9.983228303594728
185,385.000,-8.357529335383788
186,386.000,-13.777313207782413
187,387.000,-5.4018100883743045
188,388.000,-21.348350121300996
189,389.000,2.1173175726888758
190,390.000,-4.599059103810873
191,391.000,-0.5508422249141631
192,392.000,0.044660158507213055
193,393.000,-7.910569981226558
194,394.000,8.577141351346313
195,395.000,0.32725017477946494
196,396.000,-9.771167469332454
197,397.000,-5.825845516403206
198,398.000,-12.127351878905301
199,399.000,-10.823575446420818
200,400.000,-6.666191085690798
201,401.000,-9.436049640665715
202,402.000,-8.034425932556019
203,403.000,-10.766951759881067
204,404.000,0.04574010147871377
205,405.000,7.800559898233473
206,406.000,-7.636559100366753
207,407.000,-11.697953602583198
208,408.000,-5.329561294236896
209,409.000,-3.901285838760373
210,410.000,-4.561241877246516
211,411.000,-19.42003102849992
212,412.000,3.4907941109140666
213,413.000,-2.022275033381902
214,414.000,-6.360581013626529
215,415.000,0.7564966400294679
216,416.000,-12.534699580526876
217,417.000,5.1612558385800185
218,418.000,-3.6434425668370523
219,419.000,-3.7502092390780035
220,420.000,6.364374401394571
221,421.000,5.630842955905791
222,422.000,8.828446047517104
223,423.000,-0.8254236790230607
224,424.000,3.8091564426703144
225,425.000,0.03624710056908498
226,426.000,1.4537890041805213
227,427.000,-8.630309115501063
228,428.000,-1.4375245060459747
229,429.000,0.09877760636118182
230,430.000,-2.8664349831281015
231,431.000,4.331950541922424
232,432.000,-3.0643979808152153
233,433.000,-0.6822046924842198
234,434.000,-17.572848713092753
235,435.000,-11.65008814156431
236,436.000,-1.046827055787844
237,437.000,-9.829586512667902
238,438.000,-7.066928548174815
239,439.000,-2.435760177394968
240,440.000,3.7898626054195574
241,441.000,-10.879500173200313
242,442.000,-5.413973465989784
243,443.000,6.039077794999571
244,444.000,-8.967352301651317
245,445.000,2.376303353222397
246,446.000,-3.1315311106825447
247,447.000,-3.691576543185988
248,448.000,-10.735083773675797
249,449.000,-1.991336611157294
250,450.000,-1.0966328443033717
251,451.000,-1.0429942415055393
252,452.000,-10.141965550923146
253,453.000,-1.8927975005339022
254,454.000,-2.9025347981840923
255,455.000,0.10600386836131293
256,456.000,-1.638656168631428
257,457.000,-11.424917556915716
258,458.000,-8.877003924313158
259,459.000,-8.586067878765562
260,460.000,2.5946179916159053
261,461.000,0.97456111850056
262,462.000,-9.518620046712385
263,463.000,-17.728808032943903
264,464.000,-2.185444349484783
265,465.000,-5.133891486046764
266,466.000,3.1064540871881263
267,467.000,-3.6111980804830637
268,468.000,-9.59180142033415
269,469.000,-3.4068263442600255
270,470.000,-2.5730612448268175
271,471.000,1.5987575046779057
272,472.000,-7.190042449805446
273,473.000,-4.968901443157733
274,474.000,1.0850972088678645
275,475.000,-10.514104790403621
276,476.000,0.7780522813800417
277,477.000,7.063756165548966
278,478.000,-11.869749377639437
279,479.000,-3.6312465690506315
280,480.000,-7.551726610723335
281,481.000,-6.518393685918795
282,482.000,4.52540904082764
283,483.000,9.441494423657673
284,484.000,2.511697335339022
285,485.000,-1.11219433278427
286,486.000,-2.098984670842242
287,487.000,-14.586967750489293
288,488.000,3.383002375045862
289,489.000,-17.44578432908986
290,490.000,-3.960468879424411
291,491.000,5.277579725789678
292,492.000,5.268317506524113
293,493.000,4.744666500926087
294,494.000,-7.2627522347331706
295,495.000,-9.723376626107438
296,496.000,-13.172511580826495
297,497.000,4.18244001145365
298,498.000,2.000510279001219
299,499.000,-7.763762632041676
300,500.000,5.8094434422903305
301,501.000,-8.40552031626396
302,502.000,-13.105232708242397
303,503.000,-4.349664516509847
304,504.000,1.0350674936919404
305,505.000,-6.750107425306737
306,506.000,1.5429989963477055
307,507.000,-8.629173954019052
308,508.000,-17.003280971659592
309,509.000,-4.499858734453483
310,510.000,-5.246386902959443
311,511.000,-2.920589120464115
312,512.000,-3.261294013032284
313,513.000,4.258475810441951
314,514.000,-7.950002241813877
315,515.000,-12.118845744501527
316,516.000,-3.33579325530161
317,517.000,-3.622625314924335
318,518.000,0.5713265528404463
319,519.000,6.1355928410733895
320,520.000,-2.33550394032477
321,521.000,-4.389654264683031
322,522.000,-4.947234588611309
323,523.000,5.3277246479506175
324,524.000,-2.1741509783174706
325,525.000,7.026343125833023
326,526.000,-11.526733429829847
327,527.000,2.704773980930554
328,528.000,1.2372280007703012
329,529.000,-8.044572711286719
330,530.000,-3.4016354798981183
331,531.000,-7.672905613452485
332,532.000,11.609455595878785
333,533.000,-11.879992127907371
334,534.000,1.8599109553036897
335,535.000,1.2761396016938988
336,536.000,-4.280139416537054
337,537.000,-1.0511933112227325
338,538.000,2.399540721720996
339,539.000,-16.836593497755416
340,540.000,2.2460668661153704
341,541.000,-15.31387733513293
342,542.000,-5.235313234249702
343,543.000,7.376581051680887
344,544.000,-10.974391578808309
345,545.000,-4.395913211619131
346,546.000,2.035434082862139
347,547.000,-10.570247750285034
348,548.000,-0.115712750565649
349,549.000,-7.037536942120141
350,550.000,-3.969171333773261
351,551.000,-5.915160919085906
352,552.000,-3.195981676403221
353,553.000,1.553108431093392
354,554.000,7.909772455336679
355,555.000,-5.373845536675731
356,556.000,-7.444807462932772
357,557.000,-10.699613226459746
358,558.000,-0.89158671536768
359,559.000,-1.6721088029051998
360,560.000,0.6819416524934923
361,561.000,-9.031899192843639
362,562.000,-8.449157167875228
363,563.000,3.449874913102576
364,564.000,4.5009932504067365
365,565.000,4.343362058915773
366,566.000,-13.518581431978873
367,567.000,-0.7796739784241709
368,568.000,0.17239967784576038
369,569.000,-0.11091019054333628
370,570.000,-3.3210732966520027
371,571.000,4.951663660719305
372,572.000,-10.962867003019028
373,573.000,-4.934656958294227
374,574.000,-9.84801686142373
375,575.000,-4.318665354663835
376,576.000,2.2965919337393643
377,577.000,-1.8072086104994014
378,578.000,-9.120265587755966
379,579.000,1.481035415454926
380,580.000,-2.516726173572806
381,581.000,-7.718719913784753
382,582.000,17.74656364958264
383,583.000,1.5959519849523076
384,584.000,-3.7587934256441713
385,585.000,-7.664765086615034
386,586.000,-4.273426488861105
387,587.000,-2.177253109823141
388,588.000,-5.932987413535102
389,589.000,-10.580985850671368
390,590.000,0.784390141401218
391,591.000,-9.142296861425848
392,592.000,4.362903729946538
393,593.000,-4.350724482225814
394,594.000,-4.332004882578076
395,595.000,-5.932014842689341
396,596.000,-4.832160721130776
397,597.000,-2.5646618635175855
398,598.000,-1.097173602557632
399,599.000,1.0615437418978217
400,600.000,4.843476862803527
401,601.000,-4.941760534129116
402,602.000,-6.943276730482921
403,603.000,-4.380458995184881
404,604.000,0.3605084154442011
405,605.000,-3.6332077423612645
406,606.000,-15.694218699862176
407,607.000,-9.107178675862997
408,608.000,-7.144579876763828
409,609.000,-2.1202864966098787
410,610.000,-8.77564171714198
411,611.000,-3.1279767078453915
412,612.000,-7.821311626002625
413,613.000,-5.928586616740631
414,614.000,1.7023601869170761
415,615.000,3.975146664000249
416,616.000,-3.820334294456643
417,617.000,-13.586460785465988
418,618.000,-15.168433894137479
419,619.000,-2.0757736937271147
420,620.000,-4.256910245688005
421,621.000,-10.544814599720667
422,622.000,-7.11001179382265
423,623.000,-0.5577408543392721
424,624.000,-1.4362547960138272
425,625.000,-2.786476622036389
426,626.000,-4.759473324097371
427,627.000,1.4402061175669587
428,628.000,9.189825734121086
429,629.000,-7.260352431920182
430,630.000,-4.517224326739097
431,631.000,-4.383030885267544
432,632.000,0.6126089687634249
433,633.000,0.6143393227725937
434,634.000,-10.157646724718006
435,635.000,-3.292992064139071
436,636.000,2.0717494250804975
437,637.000,-5.212013125538533
438,638.000,-5.858724573574591
439,639.000,-5.967086765757813
440,640.000,-1.9893405380184959
441,641.000,-3.1173107155366324
442,642.000,1.8639458872062278
443,643.000,0.3066074663774998
444,644.000,4.284854228743143
445,645.000,-17.62854760838104
446,646.000,-8.004781817181765
447,647.000,-11.07433415939704
448,648.000,-9.081968386367407
449,649.000,-0.48226823908385086
450,650.000,-6.461576448241658
451,651.000,-6.025902734286319
452,652.000,-0.19191180746770442
453,653.000,-4.825639367886879
454,654.000,-8.474308105548971
455,655.000,5.651802299588553
456,656.000,-5.54988282243562
457,657.000,-7.469003131635191
458,658.000,-3.66588027812827
459,659.000,0.024226097813198066
460,660.000,-5.97329363428571
461,661.000,0.36583590484519846
462,662.000,-12.721798895828215
463,663.000,-3.709511637693822
464,664.000,0.7490670874551597
465,665.000,-3.253747302628426
466,666.000,5.637192619302823
467,667.000,-12.11467971005959
468,668.000,-1.0762928446276874
469,669.000,-7.707985328970153
470,670.000,-13.691239698360732
471,671.000,-7.030308478829738
472,672.000,3.5786628127871154
473,673.000,-9.229915331201937
474,674.000,-5.148941409395093
475,675.000,-6.8533729113469235
476,676.000,0.3706806823806801
477,677.000,-8.416206099829878
478,678.000,-4.653138720704192
479,679.000,8.381358365875485
480,680.000,-1.2663952851805789
481,681.000,-2.9248531102193738
482,682.000,-11.188817536896295
483,683.000,0.5284620157763129
484,684.000,8.861430137377738
485,685.000,-4.9613825739713775
486,686.000,-4.60669751165824
487,687.000,1.3943949393710682
488,688.000,-6.1406885974374745
489,689.000,-0.40518049029788017
490,690.000,1.7330749008674502
491,691.000,7.800700224376669
492,692.000,8.929493136738529
493,693.000,4.644517302602253
494,694.000,-3.697974605292302
495,695.000,19.771328093833745
496,696.000,7.999767088750787
497,697.000,9.189318076167183
498,698.000,7.460442760682099
499,699.000,22.846295854733853
500,700.000,27.97601607854972
501,701.000,26.343534160095942
502,702.000,30.40685483502807
503,703.000,38.33124784664051
504,704.000,30.04279194581568
505,705.000,54.9003788909738
506,706.000,60.46947244802527
507,707.000,87.67552339031613
508,708.000,108.51747549858237
509,709.000,127.40773756089561
510,710.000,172.97758437261723
511,711.000,202.2349757363438
512,712.000,211.1457804618608
513,713.000,201.25412336608952
514,714.000,167.62824127303838
515,715.000,133.90313401375306
516,716.000,103.54199342626475
517,717.000,77.50346935554171
518,718.000,60.05953565343793
519,719.000,47.35279217864354
520,720.000,37.4170627966339
521,721.000,19.55625737962123
522,722.000,23.14327480650195
523,723.000,25.775250962808286
524,724.000,22.000647740657996
525,725.000,7.52846803870284
526,726.000,4.8304677620797065
527,727.000,9.21085982236059
528,728.000,9.532062137500816
529,729.000,8.184916631791793
530,730.000,-8.447204764193202
531,731.000,6.581920886354283
532,732.000,9.52476652642622
533,733.000,11.929015105148437
534,734.000,0.7654385777295829
535,735.000,4.695757905411483
536,736.000,-2.846909944580375
537,737.000,5.607536000911978
538,738.000,-9.633615279070455
539,739.000,-4.285212799655483
540,740.000,-8.24691457018639
541,741.000,-0.06024759427577919
542,742.000,-5.112341869853708
543,743.000,-6.750100389218687
544,744.000,4.952015860912752
545,745.000,-7.769319100645134
546,746.000,2.2737247504044262
547,747.000,-8.05869555621166
548,748.000,-10.829428985384766
549,749.000,-17.52027649667616
550,750.000,-4.7865570443659635
551,751.000,-1.874093577504027
552,752.000,-6.8951250399595665
553,753.000,1.8423876295278205
554,754.000,-1.9108155027015528
555,755.000,-3.9056733652769253
556,756.000,-1.8503818818487616
557,757.000,-1.271197971137326
558,758.000,8.614207453015524
559,759.000,-9.864627518401903
560,760.000,-10.84093778962324
561,761.000,-0.970071260152281
562,762.000,-4.929224824816174
563,763.000,-10.840299373812059
564,764.000,-4.051027792758987
565,765.000,-7.618247962748683
566,766.000,-12.481385760394687
567,767.000,-1.380975057882324
568,768.000,-10.250422723019483
569,769.000,-2.346086619287007
570,770.000,-8.17582060588893
571,771.000,3.1990774621988294
572,772.000,-3.0957552658244367
573,773.000,-3.5612526366303427
574,774.000,-4.26327749281586
575,775.000,0.11338432704837942
576,776.000,-16.696807011630654
577,777.000,-14.918307339521789
578,778.000,0.20973751658380024
579,779.000,-3.311733266280953
580,780.000,-15.526787507306608
581,781.000,-9.101868021959262
582,782.000,-8.558409622029103
583,783.000,5.3888158843185465
584,784.000,-11.166362307507598
585,785.000,1.313534001427115
586,786.000,-11.13936298646945
587,787.000,-8.775903065363991
588,788.000,-3.175882026050431
589,789.000,-11.017774655997755
590,790.000,-4.71332573940208
591,791.000,-5.323304057234054
592,792.000,-1.5054203872932703
593,793.000,-7.949081504254082
594,794.000,-7.993692179719346
595,795.000,-10.736446182267855
596,796.000,-21.248927277506482
597,797.000,-11.313164228118694
598,798.000,-8.705577793916063
599,799.000,6.019152268111839
600,800.000,-17.96805079625301
601,801.000,-13.783894738503932
602,802.000,1.175744692534181
603,803.000,-9.304020249340965
604,804.000,5.2093536922409385
605,805.000,-4.172225223831219
606,806.000,-10.420092736195102
607,807.000,-7.713720581067946
608,808.000,-4.224464492297102
609,809.000,-3.853137201409254
610,810.000,-4.236553437661087
611,811.000,-8.189082928087373
612,812.000,2.368306602445273
613,813.000,-2.2541085688092153
614,814.000,-9.63720316252693
615,815.000,-8.055364897365735
616,816.000,-10.654418490012858
617,817.000,-4.82027165523732
618,818.000,-1.6468111059377861
619,819.000,-5.7719325531959385
620,820.000,-8.75107970632439
621,821.000,-13.022782272915265
622,822.000,-6.054123958895389
623,823.000,-10.312342468572524
624,824.000,-5.505386504684793
625,825.000,-1.1061557684545278
626,826.000,0.05930604036393561
627,827.000,9.054754223433974
628,828.000,-1.8731639162135707
629,829.000,-17.62570007423119
630,830.000,-1.6148299450042032
631,831.000,-13.454644221701528
632,832.000,-11.83071959632548
633,833.000,-10.875706759761442
634,834.000,-19.753435401829393
635,835.000,-6.834396211332432
636,836.000,-9.577977876108434
637,837.000,-3.6322830830795283
638,838.000,-0.5478795183018974
639,839.000,-3.4599348670169547
640,840.000,-9.220361813699583
641,841.000,-4.495309042112012
642,842.000,-8.053664235349743
643,843.000,-13.14532407589354
644,844.000,-10.40238524566098
645,845.000,-12.853983426054356
646,846.000,-12.766403298011937
647,847.000,-10.311670542057982
648,848.000,-0.6181968383536969
649,849.000,-2.2355418667452795
650,850.000,3.501153693183369
651,851.000,-3.0237148379383143
652,852.000,-10.766772139316117
653,853.000,-18.686947890045303
654,854.000,1.3211992308438312
655,855.000,-4.521800455668881
656,856.000,-18.90032262863815
657,857.000,1.2396240327909709
658,858.000,0.21440284933692055
659,859.000,-13.787084858470052
660,860.000,-19.03433077033833
661,861.000,-6.573769566264673
662,862.000,-11.933350926584353
663,863.000,-11.768327532020976
664,864.000,-11.826730063737841
665,865.000,-12.958258203387004
666,866.000,-7.824006633160025
667,867.000,-0.5700610358369431
668,868.000,-9.042615094838538
669,869.000,0.6807575057250688
670,870.000,-15.488169918996846
671,871.000,-3.8138690546431917
672,872.000,-4.514429587696213
673,873.000,-9.284829205526194
674,874.000,-1.9541315964447676
675,875.000,-15.981501449754887
676,876.000,-10.318057455799362
677,877.000,-3.530536306014028
678,878.000,1.972786307025899
679,879.000,-5.407509310447267
680,880.000,-6.186688853443229
681,881.000,-12.934398018262073
682,882.000,-7.320608502548339
683,883.000,-13.367788005336479
684,884.000,-21.55178722710434
685,885.000,-7.381247869822346
686,886.000,-14.229183637002961
687,887.000,-4.352301233752314
688,888.000,-12.269752366819603
689,889.000,-12.424423744646901
690,890.000,-4.626148077418975
691,891.000,-14.621959077116117
692,892.000,3.3383535424397905
693,893.000,-8.136481934468748
694,894.000,-14.868580225501319
695,895.000,-1.6743240503144534
696,896.000,-16.30910413060724
697,897.000,-1.5511541901732926
698,898.000,-1.2856909549520878
699,899.000,-4.184949153077014
700,900.000,-14.869675514928076
701,901.000,-2.4236037731780016
702,902.000,-1.8060126628472517
703,903.000,-8.49823592135158
704,904.000,-6.311695288551846
705,905.000,-18.519155506804736
706,906.000,-5.4576103210140445
707,907.000,-12.207861478678751
708,908.000,-5.620517729945732
709,909.000,-10.54917082765769
710,910.000,-3.3593915274034316
711,911.000,-9.170214587569944
712,912.000,-3.948341769391618
713,913.000,-12.134177836998333
714,914.000,-16.078536557469533
715,915.000,-16.054232700881585
716,916.000,-11.372051040358656
717,917.000,-6.209104352122267
718,918.000,-14.144262415543608
719,919.000,-3.4388410131914497
720,920.000,-16.675043930882794
721,921.000,-7.393025957733698
722,922.000,0.8354581137903097
723,923.000,-0.6422835121743447
724,924.000,-6.268663634941049
725,925.000,-15.063728057322805
726,926.000,-13.715549585680947
727,927.000,-13.177708029978703
728,928.000,-12.153651203827394
729,929.000,-15.576088924538908
730,930.000,-4.116128013176194
731,931.000,-8.47955029460104
732,932.000,-15.90373859752799
733,933.000,-9.856278754570212
734,934.000,-1.994778602293536
735,935.000,-13.063808981264174
736,936.000,-1.2960097360987675
737,937.000,-14.156857715516935
738,938.000,-17.60678177238924
739,939.000,-7.529301763788226
740,940.000,1.243968448961823
741,941.000,-10.195385999766131
742,942.000,-19.329697979950424
743,943.000,-14.282688365972945
744,944.000,-6.567880036667248
745,945.000,-6.510978875370711
746,946.000,-11.98964276997367
747,947.000,-9.13658361296848
748,948.000,-10.286784301501712
749,949.000,-15.355157737423724
750,950.000,-11.0919208273383
751,951.000,-7.810493482652873
752,952.000,-6.411809619629821
753,953.000,0.06994184056679842
754,954.000,-8.444909028184838
755,955.000,-18.707469157009882
756,956.000,-18.52722948208634
757,957.000,-13.536437944699856
758,958.000,-10.213098491289202
759,959.000,-14.76610807350039
760,960.000,-1.5283096482316978
761,961.000,-18.45247117769054
762,962.000,-11.432048629437986
763,963.000,-18.615691976441212
764,964.000,-9.360686197124323
765,965.000,-4.675461275417547
766,966.000,-15.301336200805508
767,967.000,-12.575802968383186
768,968.000,-11.213629578898917
769,969.000,-2.4225490388103026
770,970.000,-22.2405413603301
771,971.000,-12.940084561480262
772,972.000,-0.7877916661398103
773,973.000,-5.9575107040941475
774,974.000,-17.631371711087468
775,975.000,-2.7208607288725943
776,976.000,-2.3878748052591163
777,977.000,-10.091374994166245
778,978.000,-3.785426355670097
779,979.000,2.172804043943188
780,980.000,-5.9584058678719884
781,981.000,2.2697178300315954
782,982.000,-9.947907947559088
783,983.000,-2.599713292266415
784,984.000,-8.73655830217217
785,985.000,-18.003144081867504
786,986.000,-11.596007742504298
787,987.000,-9.508031401843255
788,988.000,-4.652194184306609
789,989.000,-4.303782221026495
790,990.000,-14.4979856498951
791,991.000,-7.932314615616178
792,992.000,-8.989348269753918
793,993.000,-4.7969607707836985
794,994.000,-4.8118902841420095
795,995.000,-17.001969982276478
796,996.000,-9.365321044698021
797,997.000,-15.215745658027117
798,998.000,-4.51322701604704
799,999.000,-23.53286231975403
800,1000.000,-13.59423677740483
801,1001.000,-12.204784604570477
802,1002.000,-6.365634024184601
803,1003.000,-11.00334626659037
804,1004.000,-11.245719569598805
805,1005.000,-3.9345311785302783
806,1006.000,-10.857609346270692
807,1007.000,-2.7126303333182022
808,1008.000,-5.449314407835573
809,1009.000,-15.608066845698659
810,1010.000,-10.853993930547631
811,1011.000,-8.021087953836059
812,1012.000,-3.7313842148835192
813,1013.000,-11.468296020922935
814,1014.000,-9.200938687151393
815,1015.000,-5.535235536782466
816,1016.000,0.4538610989066001
817,1017.000,4.047995880522649
818,1018.000,-3.640610539493082
819,1019.000,-1.7559615169136578
820,1020.000,6.731609584220905
821,1021.000,-14.563959608443838
822,1022.000,-7.551687475631525
823,1023.000,-10.39842740647805
824,1024.000,2.0642982014112476
825,1025.000,-9.18225705808345
826,1026.000,-9.833498599650738
827,1027.000,-13.054025846594413
828,1028.000,-11.58549823088606
829,1029.000,-4.345990193214448
830,1030.000,-2.312695183035885
831,1031.000,-8.468256658624114
832,1032.000,3.1230329128786707
833,1033.000,-15.80944094458664
834,1034.000,-6.742272716047637
835,1035.000,-1.1327378955513723
836,1036.000,-7.445561986210805
837,1037.000,-1.8639015002595443
838,1038.000,-3.1600399591002315
839,1039.000,2.9259521066467187
840,1040.000,-6.73420784290829
841,1041.000,-5.9541243569758535
842,1042.000,-0.04546099413414595
843,1043.000,0.30286367761823385
844,1044.000,0.860125080812395
845,1045.000,-10.089729371538851
846,1046.000,-1.1026482759955343
847,1047.000,0.6945357612642056
848,1048.000,-5.156111875609895
849,1049.000,1.2419071878127852
850,1050.000,13.600737316190589
851,1051.000,-1.7893661356379198
852,1052.000,4.208468177293071
853,1053.000,-10.44184840997059
854,1054.000,6.7858194276443555
855,1055.000,-3.6092149948099177
856,1056.000,13.385596627646692
857,1057.000,-1.136179410127852
858,1058.000,0.3579701765518166
859,1059.000,-0.19848133785035316
860,1060.000,7.7434693108566535
861,1061.000,13.380700376540062
862,1062.000,15.174875102695296
863,1063.000,11.23918972239403
864,1064.000,23.138398458235088
865,1065.000,18.863378522293715
866,1066.000,23.38802511607105
867,1067.000,27.88413243044579
868,1068.000,20.89986564562105
869,1069.000,25.58435493107686
870,1070.000,35.93397244551829
871,1071.000,37.636955336826986
872,1072.000,44.43198374200824
873,1073.000,59.65757478714454
874,1074.000,66.30723658734155
875,1075.000,73.54155924668021
876,1076.000,93.41652585816792
877,1077.000,118.60469750368338
878,1078.000,151.59970825393293
879,1079.000,176.63217016839417
880,1080.000,231.72299129527073
881,1081.000,309.25301267143914
882,1082.000,420.9415223223996
883,1083.000,556.5524342622261
884,1084.000,748.8931364935156
885,1085.000,904.5176770073381
886,1086.000,982.7834397831866
887,1087.000,915.2806877889279
888,1088.000,730.9486649807495
889,1089.000,554.6563563031132
890,1090.000,427.3471056887015
891,1091.000,315.57698205837005
892,1092.000,246.44556132109528
893,1093.000,189.33752937392774
894,1094.000,143.5938001019358
895,1095.000,118.79988337816303
896,1096.000,104.24435506357213
897,1097.000,83.99813100699748
898,1098.000,66.96246204509362
899,1099.000,56.936265002286746
900,1100.000,50.285065690722604
901,1101.000,44.70025391021909
902,1102.000,29.664223448211715
903,1103.000,26.222008079708985
904,1104.000,19.216177567235945
905,1105.000,23.494901660789992
906,1106.000,25.62241309778733
907,1107.000,18.339351603013256
908,1108.000,12.687930888571145
909,1109.000,6.141643653835445
910,1110.000,7.948621585398769
911,1111.000,8.188807357021233
912,1112.000,13.428440629583065
913,1113.000,5.22197105103146
914,1114.000,13.000025256332265
915,1115.000,1.3062678674198196
916,1116.000,10.331572493145586
917,1117.000,1.6565767292281635
918,1118.000,-8.494141841794772
919,1119.000,-3.9575846506199923
920,1120.000,0.6420618587749232
921,1121.000,-1.772463770923423
922,1122.000,0.342145989590108
923,1123.000,2.855479656187981
924,1124.000,-3.6720322687442604
925,1125.000,3.830623703649735
926,1126.000,-11.318140951361102
927,1127.000,-3.4918937721402017
928,1128.000,1.6640166892639172
929,1129.000,-8.299227132930355
930,1130.000,-6.375959818292131
931,1131.000,-6.998355960222625
932,1132.000,-1.940870166007926
933,1133.000,-3.925119056872063
934,1134.000,-8.817942268020488
935,1135.000,-2.025182448697251
936,1136.000,7.408335737769448
937,1137.000,-2.2464053860844615
938,1138.000,3.8601634880901656
939,1139.000,-14.39504234559331
940,1140.000,-3.844956607306358
941,1141.000,-12.765943031559573
942,1142.000,-15.232363367248809
943,1143.000,-5.255455377706312
944,1144.000,-3.5195458407520164
945,1145.000,4.163421451255999
946,1146.000,-15.436229308625116
947,1147.000,8.19457105802303
948,1148.000,-6.869094285071242
949,1149.000,-11.778048188914454
950,1150.000,-6.15362651930127
951,1151.000,-0.7185521568662807
952,1152.000,-6.696699997131873
953,1153.000,-19.448694950557638
954,1154.000,-8.115699942593437
955,1155.000,-11.349383913727706
956,1156.000,-6.8003648195381174
957,1157.000,-5.212009630740795
958,1158.000,1.5036676667573374
959,1159.000,3.056282071811438
960,1160.000,-2.86010143201338
961,1161.000,-11.971495876493464
962,1162.000,5.153735691206293
963,1163.000,1.1768032084796687
964,1164.000,-12.828108402768976
965,1165.000,-1.2791982361759437
966,1166.000,-9.308858400969712
967,1167.000,-15.685169022018727
968,1168.000,-6.875195239882942
969,1169.000,-7.200721210862412
970,1170.000,-4.113766107050196
971,1171.000,-10.363211116380171
972,1172.000,-12.135978442678152
973,1173.000,-4.257049305711462
974,1174.000,-8.337334941241807
975,1175.000,-3.996911601071133
976,1176.000,-8.2992115530933
977,1177.000,-13.004887081346624
978,1178.000,7.096337513938579
979,1179.000,0.25857291628881285
980,1180.000,-12.996158207062308
981,1181.000,-12.406475205225888
982,1182.000,-2.9281484437046856
983,1183.000,-2.7392273044456488
984,1184.000,-16.519946185891058
985,1185.000,-7.88463750302526
986,1186.000,-7.659604687426963
987,1187.000,-1.540692187321838
988,1188.000,-4.879090467626611
989,1189.000,-5.704977010005678
990,1190.000,-8.097509312916372
991,1191.000,-10.383335891662682
992,1192.000,-12.038681278442255
993,1193.000,-8.547367022399158
994,1194.000,-13.899846689672813
995,1195.000,0.5677401365519472
996,1196.000,-8.856699144006143
997,1197.000,-2.929567148775277
998,1198.000,-9.589329512377844
999,1199.000,-9.421471886684685
1000,1200.000,-9.315270940861865
1001,1201.000,-8.210089361422433
1002,1202.000,-7.2488998522781
1003,1203.000,-9.25033313478525
1004,1204.000,-14.600495947799118
1005,1205.000,-2.1702850477227003
1006,1206.000,-9.170443208554389
1007,1207.000,-11.966057221943629
1008,1208.000,-9.399780897236269
1009,1209.000,-5.604771061524389
1010,1210.000,-2.24353555970265
1011,1211.000,-19.171413254511208
1012,1212.000,5.476124973411061
1013,1213.000,-10.60202477452458
1014,1214.000,-6.775653414906174
1015,1215.000,-2.3961498823696274
1016,1216.000,-4.573910129651722
1017,1217.000,-6.355277127638146
1018,1218.000,-11.348694865413563
1019,1219.000,-10.231299350312838
1020,1220.000,-12.915548607972596
1021,1221.000,-13.309429682376503
1022,1222.000,0.15871836408769013
1023,1223.000,-8.72723354941445
1024,1224.000,-6.615802522223021
1025,1225.000,-10.928518672224527
1026,1226.000,-14.526953135908116
1027,1227.000,-1.075852068414406
1028,1228.000,-5.960607643585263
1029,1229.000,-3.0850660540145327
1030,1230.000,-3.7978065110978605
1031,1231.000,-19.168419245081623
1032,1232.000,1.2342634948836348
1033,1233.000,-4.302486559302906
1034,1234.000,-7.6725766947461125
1035,1235.000,-8.44557821760236
1036,1236.000,-1.2233144531314792
1037,1237.000,-2.773840745745929
1038,1238.000,-17.185274459061475
1039,1239.000,-9.582156975947328
1040,1240.000,0.14205530142362477
1041,1241.000,-10.74287904847506
1042,1242.000,-8.729517466571906
1043,1243.000,-10.114044413252941
1044,1244.000,-0.8711903684056779
1045,1245.000,-7.253215831472971
1046,1246.000,-7.567990321501384
1047,1247.000,-11.399991377193146
1048,1248.000,-9.169511556955513
1049,1249.000,-12.918780438949852
1050,1250.000,-15.503399621143672
1051,1251.000,-1.442826721358415
1052,1252.000,-3.512518377323431
1053,1253.000,-4.439884246720794
1054,1254.000,7.661571992759036
1055,1255.000,-4.738578356629205
1056,1256.000,-10.084549012738535
1057,1257.000,-8.554713713575893
1058,1258.000,-12.158882217357132
1059,1259.000,-3.866345302553327
1060,1260.000,-10.509394767944286
1061,1261.000,-10.221649432663526
1062,1262.000,-7.403776136256511
1063,1263.000,-16.633944738720857
1064,1264.000,-11.204897120568148
1065,1265.000,-18.330049182860876
1066,1266.000,-4.55089584727466
1067,1267.000,-18.35325105614129
1068,1268.000,-8.023846772501201
1069,1269.000,-13.848732980151908
1070,1270.000,-17.616919683702235
1071,1271.000,-7.98601290861734
1072,1272.000,-15.699605701272503
1073,1273.000,-2.480249129002459
1074,1274.000,-8.874199280150606
1075,1275.000,-3.6291712641209415
1076,1276.000,-19.958043211425775
1077,1277.000,-4.371420273737385
1078,1278.000,-3.113601623938848
1079,1279.000,-7.569726456173612
1080,1280.000,-13.831489985892858
1081,1281.000,-9.84441744991409
1082,1282.000,-9.461099106458732
1083,1283.000,-4.587867235214162
1084,1284.000,-7.49807413737517
1085,1285.000,-14.470050135700603
1086,1286.000,-17.684559574559444
1087,1287.000,-3.163620819982043
1088,1288.000,-6.217881259710339
1089,1289.000,-0.4131323032502223
1090,1290.000,-7.376475381915952
1091,1291.000,-7.927524948889186
1092,1292.000,-12.529044479258118
1093,1293.000,-14.566677470077593
1094,1294.000,-9.787140440414532
1095,1295.000,-10.181389931397462
1096,1296.000,-14.200273506268786
1097,1297.000,-6.42769975043484
1098,1298.000,-4.601167271514896
1099,1299.000,-7.177212699391475
1100,1300.000,-17.58197368626179
1101,1301.000,-14.122835906686305
1102,1302.000,-14.10213505763977
1103,1303.000,-12.521139858561128
1104,1304.000,-4.413240051403591
1105,1305.000,5.003650599313914
1106,1306.000,-2.9619896935414545
1107,1307.000,-12.70756473976735
1108,1308.000,-10.556117371878372
1109,1309.000,-4.619163445152026
1110,1310.000,-5.5818148376824865
1111,1311.000,-3.677054450430205
1112,1312.000,-11.66539920726973
1113,1313.000,-2.558523055043679
1114,1314.000,-7.241636963609835
1115,1315.000,-13.966071925891356
1116,1316.000,-8.253640957931566
1117,1317.000,-6.9791560989356185
1118,1318.000,-7.1683034113293616
1119,1319.000,-2.2678609808035617
1120,1320.000,-2.4743599163671206
1121,1321.000,-6.772257350396558
1122,1322.000,-8.544454438683715
1123,1323.000,-7.515726360493318
1124,1324.000,-16.067893318602273
1125,1325.000,2.78819046064109
1126,1326.000,-2.3374682727289837
1127,1327.000,0.013527207652714424
1128,1328.000,-8.587422395565682
1129,1329.000,-1.1626704035056719
1130,1330.000,-2.8278801611077142
1131,1331.000,-8.75309703718176
1132,1332.000,-19.190078424456715
1133,1333.000,-5.371222739631776
1134,1334.000,-15.862936423424344
1135,1335.000,-5.3439449406218955
1136,1336.000,-9.757714780133483
1137,1337.000,-4.904565455035026
1138,1338.000,-9.353367502626043
1139,1339.000,-5.4793084844759505
1140,1340.000,-12.330208986472826
1141,1341.000,-4.4034816188782315
1142,1342.000,-9.99885001637358
1143,1343.000,-5.063345838109399
1144,1344.000,-12.643552767762685
1145,1345.000,-10.682391513576476
1146,1346.000,-0.8841328084181441
1147,1347.000,-2.783013409827163
1148,1348.000,-15.689578100064864
1149,1349.000,-9.419758686162822
1150,1350.000,-14.867937999979404
1151,1351.000,-7.683432898239516
1152,1352.000,-12.042182262597635
1153,1353.000,-11.298682999674838
1154,1354.000,-6.957377041118434
1155,1355.000,1.5939406563511511
1156,1356.000,-11.516705889110654
1157,1357.000,-9.015673684518333
1158,1358.000,6.15230523788432
1159,1359.000,-9.767508179416382
1160,1360.000,-5.146638019258262
1161,1361.000,-12.571621389856318
1162,1362.000,-3.683608424846625
1163,1363.000,-8.000097283341347
1164,1364.000,-20.758609149979293
1165,1365.000,-9.208808234970547
1166,1366.000,-2.0018447741540513
1167,1367.000,7.886223970959236
1168,1368.000,-17.176849286869583
1169,1369.000,-11.29928786065284
1170,1370.000,1.0504539107691926
1171,1371.000,-18.346575337318882
1172,1372.000,-6.230009995558248
1173,1373.000,-7.781257480567092
1174,1374.000,-3.362210234988652
1175,1375.000,-7.34275072754599
1176,1376.000,3.445866546914658
1177,1377.000,-4.570879932632579
1178,1378.000,-8.705211713439894
1179,1379.000,-6.179289369035814
1180,1380.000,-15.430017499277255
1181,1381.000,-9.55666173039981
1182,1382.000,2.958305284934795
1183,1383.000,-5.476740132415671
1184,1384.000,-0.9338146881186731
1185,1385.000,-9.137551114421967
1186,1386.000,-14.371214170202165
1187,1387.000,-13.004462641011742
1188,1388.000,-11.952252339136066
1189,1389.000,-1.413715103636605
1190,1390.000,-7.2635328004057556
1191,1391.000,-17.79149532221436
1192,1392.000,-6.945330588764136
1193,1393.000,-8.344500546735162
1194,1394.000,-3.908604169838327
1195,1395.000,-23.198758458863267
1196,1396.000,5.254400558268117
1197,1397.000,-2.200080173543938
1198,1398.000,-2.9049607366350756
1199,1399.000,-11.698648240613693
1200,1400.000,-7.942379822427029
1201,1401.000,4.814243353601341
1202,1402.000,4.5014950957152
1203,1403.000,-4.6993518153240075
1204,1404.000,-10.206687626284292
1205,1405.000,-14.031807611516797
1206,1406.000,2.1991229269929136
1207,1407.000,5.485753659582315
1208,1408.000,-4.275882771149099
1209,1409.000,1.2623552496211232
1210,1410.000,4.408888308877522
1211,1411.000,8.296454965724934
1212,1412.000,12.381801751336297
1213,1413.000,-1.1103558311019697
1214,1414.000,7.561715693565475
1215,1415.000,1.2284737724085062
1216,1416.000,6.740202824365497
1217,1417.000,19.088757240189352
1218,1418.000,12.20872138239929
1219,1419.000,3.12453958523065
1220,1420.000,14.981004154584753
1221,1421.000,23.364964367975972
1222,1422.000,25.979020474488152
1223,1423.000,22.104200694716383
1224,1424.000,22.56647022072275
1225,1425.000,31.797246215981886
1226,1426.000,30.705585815335326
1227,1427.000,34.51155612493858
1228,1428.000,38.73919522221058
1229,1429.000,41.245724155784956
1230,1430.000,55.55496894545877
1231,1431.000,61.77485558214221
1232,1432.000,56.92779702781172
1233,1433.000,66.31766021545263
1234,1434.000,63.70181104901758
1235,1435.000,74.71213040336988
1236,1436.000,81.89705712423665
1237,1437.000,67.55946502815777
1238,1438.000,63.726304902435004
1239,1439.000,72.8523235050834
1240,1440.000,73.28232356477884
1241,1441.000,58.86785278081061
1242,1442.000,54.32323582302661
1243,1443.000,45.55598133179274
1244,1444.000,37.1736329179289
1245,1445.000,28.73803216267197
1246,1446.000,32.909508617617576
1247,1447.000,25.102078804673056
1248,1448.000,19.94025521600406
1249,1449.000,12.920750313992357
1250,1450.000,17.10486653117232
1251,1451.000,4.057235270195633
1252,1452.000,21.409268903771135
1253,1453.000,7.007594774617701
1254,1454.000,9.294425195414533
1255,1455.000,11.923538448749696
1256,1456.000,8.173727787069765
1257,1457.000,2.814372432633263
1258,1458.000,11.714199577456384
1259,1459.000,8.718652383263361
1260,1460.000,9.237555981437708
1261,1461.000,8.928494472972034
1262,1462.000,2.878381928417639
1263,1463.000,4.0799893878329385
1264,1464.000,1.1064048607349832
1265,1465.000,-5.37183067395199
1266,1466.000,3.282709732055082
1267,1467.000,3.426487996346168
1268,1468.000,10.751139005767982
1269,1469.000,-1.608573383624389
1270,1470.000,-4.573114346620059
1271,1471.000,-8.893293088900009
1272,1472.000,-4.399353847087241
1273,1473.000,-0.4404998888044247
1274,1474.000,1.441761487290023
1275,1475.000,-0.9770570485629833
1276,1476.000,3.515614142739196
1277,1477.000,0.7471166691002509
1278,1478.000,6.981846107184083
1279,1479.000,-14.582451997644966
1280,1480.000,-5.232222131363869
1281,1481.000,1.7823221886569627
1282,1482.000,-8.84171758640332
1283,1483.000,-7.948063036855274
1284,1484.000,0.5623372254403876
1285,1485.000,-7.573484442969402
1286,1486.000,-2.9314927171835734
1287,1487.000,-7.5323753039983785
1288,1488.000,-0.19235294195505048
1289,1489.000,-5.407933401390437
1290,1490.000,-11.467853484491116
1291,1491.000,-2.5559790253360006
1292,1492.000,0.24165711004570767
1293,1493.000,0.22216002362984
1294,1494.000,-11.364686214655194
1295,1495.000,-9.849670566979057
1296,1496.000,-3.7162110276567546
1297,1497.000,-11.067638623202583
1298,1498.000,-2.545997412380075
1299,1499.000,-8.865992486246341
1300,1500.000,-12.632447968212546
1301,1501.000,-12.159182014084308
1302,1502.000,0.07872318788531629
1303,1503.000,-5.353512583058546
1304,1504.000,-2.3166705802177603
1305,1505.000,-7.509334089494132
1306,1506.000,-15.197772429435645
1307,1507.000,-4.86899295129524
1308,1508.000,-8.379114039070828
1309,1509.000,-6.479499109562312
1310,1510.000,-3.8706696124177142
1311,1511.000,0.9402589698138399
1312,1512.000,-9.092546878367102
1313,1513.000,-3.7499037054594737
1314,1514.000,-17.168203093011925
1315,1515.000,-4.748409655678188
1316,1516.000,-5.319393041258536
1317,1517.000,-7.8781239307550095
1318,1518.000,-5.958657038422189
1319,1519.000,-6.889671111815915
1320,1520.000,-4.020062931841949
1321,1521.000,-2.376780312810297
1322,1522.000,6.553945897520862
1323,1523.000,-4.104312182113063
1324,1524.000,-7.294842466525552
1325,1525.000,-7.673941904137337
1326,1526.000,0.05446252298588661
1327,1527.000,-8.593348200931814
1328,1528.000,1.1489928745845646
1329,1529.000,-8.558083333792183
1330,1530.000,-2.3636469432449303
1331,1531.000,-15.945559104858603
1332,1532.000,2.0957199963254425
1333,1533.000,-10.07315685873391
1334,1534.000,-8.729415923134638
1335,1535.000,-12.4205044840769
1336,1536.000,-18.600685862918453
1337,1537.000,-1.8831694152163436
1338,1538.000,-4.752626530786074
1339,1539.000,-7.398996633747629
1340,1540.000,-7.814432182575274
1341,1541.000,-12.283133670147436
1342,1542.000,-17.818787623802564
1343,1543.000,-12.011426605378347
1344,1544.000,-1.8648782112718436
1345,1545.000,-0.6021270724845635
1346,1546.000,-3.1201238546746026
1347,1547.000,-5.4108542582062
1348,1548.000,1.3352329817980717
1349,1549.000,-7.985692904587722
1350,1550.000,-10.920302722146516
1351,1551.000,-10.80025431057038
1352,1552.000,-11.170969544508353
1353,1553.000,-11.995444333615069
1354,1554.000,-9.022137622602258
1355,1555.000,-0.8635933912901237
1356,1556.000,-11.339377654655436
1357,1557.000,-20.730876462888318
1358,1558.000,-1.1322129014283746
1359,1559.000,-11.614125091030928
1360,1560.000,-9.779481187805231
1361,1561.000,7.598934616728911
1362,1562.000,1.1307530955937182
1363,1563.000,-12.547095013697799
1364,1564.000,-8.086298009191523
1365,1565.000,-7.512567224544455
1366,1566.000,-14.295180029069343
1367,1567.000,-4.84932882779367
1368,1568.000,-2.945061061501292
1369,1569.000,3.799239793214838
1370,1570.000,-15.690765776099852
1371,1571.000,-1.0420933178115774
1372,1572.000,-3.8899434162449325
1373,1573.000,-2.657393691735251
1374,1574.000,-2.1810288006818155
1375,1575.000,-9.249550435590663
1376,1576.000,1.4581286748680213
1377,1577.000,-2.02831623418615
1378,1578.000,15.711165036103921
1379,1579.000,-3.610920351713048
1380,1580.000,-4.245820271456068
1381,1581.000,-7.302045633348371
1382,1582.000,-2.088274384084798
1383,1583.000,-4.391947506863289
1384,1584.000,-1.7196070214527026
1385,1585.000,4.849188015771233
1386,1586.000,4.367507511767599
1387,1587.000,0.8465203367827598
1388,1588.000,-5.629681675698976
1389,1589.000,-10.646101729008024
1390,1590.000,-2.6761180633407093
1391,1591.000,-0.4531529558021248
1392,1592.000,-7.776784720464093
1393,1593.000,0.22478129158434967
1394,1594.000,1.4684386921971964
1395,1595.000,-3.9838909438913106
1396,1596.000,-15.262167079109986
1397,1597.000,-14.56559421310385
1398,1598.000,-1.9714258827793856
1399,1599.000,-2.3413996623635285
1400,1600.000,-11.837890163441898
1401,1601.000,-6.3587800350242105
1402,1602.000,-13.306120963577541
1403,1603.000,-13.589312673088898
1404,1604.000,-2.9788229251103076
1405,1605.000,2.799121481189559
1406,1606.000,-13.400709291022395
1407,1607.000,0.48934188369958065
1408,1608.000,0.5793710930402085
1409,1609.000,-5.844860613137826
1410,1610.000,0.1580157771645645
1411,1611.000,-4.277654761971917
1412,1612.000,-12.265967294432357
1413,1613.000,-8.163549922122002
1414,1614.000,-6.840208785010418
1415,1615.000,-5.202313061190125
1416,1616.000,-6.035154966918526
1417,1617.000,-10.520238756668732
1418,1618.000,-3.683446723187899
1419,1619.000,-2.614712197537756
1420,1620.000,-7.147681549150093
1421,1621.000,5.608012814123867
1422,1622.000,-8.585133554033291
1423,1623.000,3.1779388615395874
1424,1624.000,-1.4068044625687435
1425,1625.000,0.6699209116159182
1426,1626.000,-3.735689616604759
1427,1627.000,-5.72193268664887
1428,1628.000,-5.259351976702874
1429,1629.000,-15.749357203776071
1430,1630.000,-12.257535123746948
1431,1631.000,0.3447144685883359
1432,1632.000,1.1501357394554361
1433,1633.000,-6.689771183932407
1434,1634.000,0.06504878655869106
1435,1635.000,7.931962699946325
1436,1636.000,3.4162605660771987
1437,1637.000,-9.695479644425632
1438,1638.000,-5.874940000211609
1439,1639.000,-4.805714609249662
1440,1640.000,-1.7418756188822044
1441,1641.000,-1.4841152158764999
1442,1642.000,-2.065290626467686
1443,1643.000,-1.6943981164176876
1444,1644.000,1.355914008941454
1445,1645.000,-0.7795405953479531
1446,1646.000,-3.8769253139121247
1447,1647.000,-6.104401571105427
1448,1648.000,1.2131781689472518
1449,1649.000,-4.72780559770672
1450,1650.000,11.573691585111192
1451,1651.000,-4.023073866349023
1452,1652.000,-9.272318575808185
1453,1653.000,-2.698924207012624
1454,1654.000,-6.837731463784166
1455,1655.000,-5.172571090068686
1456,1656.000,0.7424161300145897
1457,1657.000,-5.855135627881282
1458,1658.000,-6.004239228378083
1459,1659.000,-8.65052557642366
1460,1660.000,-4.930926617338628
1461,1661.000,-4.946437336870531
1462,1662.000,3.8128082387556788
1463,1663.000,-13.143842957209927
1464,1664.000,-4.228857032093401
1465,1665.000,8.997836866153193
1466,1666.000,-21.34128945110251
1467,1667.000,1.7406307867868236
1468,1668.000,-7.884593690315796
1469,1669.000,-1.1970611933702457
1470,1670.000,1.954329925787988
1471,1671.000,-4.519637725608391
1472,1672.000,-4.105665581302219
1473,1673.000,-2.580125116061481
1474,1674.000,-16.59240884574001
1475,1675.000,-10.332615327310123
1476,1676.000,3.4619448410671794
1477,1677.000,-6.530271979987447
1478,1678.000,10.499758528861094
1479,1679.000,-1.6537363543775427
1480,1680.000,-3.722274393074713
1481,1681.000,3.3235486079711336
1482,1682.000,-11.924413197521062
1483,1683.000,10.385747302642358
1484,1684.000,4.562312179068613
1485,1685.000,-5.319698539257843
1486,1686.000,-14.106432865035458
1487,1687.000,0.5059501473056116
1488,1688.000,-2.490545598441713
1489,1689.000,-8.841157240319262
1490,1690.000,-0.4614609582445155
1491,1691.000,-0.3015759740737849
1492,1692.000,-2.1864935516341575
1493,1693.000,-10.145489996794367
1494,1694.000,4.40352834250325
1495,1695.000,7.579849076179016
1496,1696.000,12.682779771976584
1497,1697.000,0.3137349554053799
1498,1698.000,-2.2912638903080733
1499,1699.000,-5.826161324270743
1500,1700.000,1.06429505203414
1501,1701.000,-12.742581405318106
1502,1702.000,5.327550617269935
1503,1703.000,8.333598390863699
1504,1704.000,-5.821920856057659
1505,1705.000,-5.392382937644925
1506,1706.000,-13.022214710732442
1507,1707.000,1.310239925103815
1508,1708.000,-1.1124759724862088
1509,1709.000,1.0592056113123363
1510,1710.000,-1.4728363515778256
1511,1711.000,-3.8725019321595937
1512,1712.000,1.5532177555742237
1513,1713.000,0.8087825545994747
1514,1714.000,4.511676264805374
1515,1715.000,4.204096642948571
1516,1716.000,6.445082402594835
1517,1717.000,4.2352522140809015
1518,1718.000,7.66532470445145
1519,1719.000,1.328669457421256
1520,1720.000,5.318333013316533
1521,1721.000,-1.5393991309711055
1522,1722.000,-3.0686175220389487
1523,1723.000,-7.2728707500155
1524,1724.000,-6.306244448625421
1525,1725.000,-2.6735832952185774
1526,1726.000,12.877206989158367
1527,1727.000,6.0205426397265
1528,1728.000,0.7837528479203684
1529,1729.000,-5.922922238665706
1530,1730.000,1.5966794836772351
1531,1731.000,-0.9428509252802542
1532,1732.000,-0.8819864497545495
1533,1733.000,4.9705948819937475
1534,1734.000,5.728658997625189
1535,1735.000,5.276436780653512
1536,1736.000,-3.7694509295911303
1537,1737.000,4.095308661980198
1538,1738.000,6.9007993061691195
1539,1739.000,-7.750788290562014
1540,1740.000,-2.848498466140427
1541,1741.000,10.8162303970621
1542,1742.000,-4.006265127805818
1543,1743.000,-3.890377512145733
1544,1744.000,7.184889728057897
1545,1745.000,-2.4318809678229627
1546,1746.000,2.512361794895696
1547,1747.000,-10.840118633846487
1548,1748.000,-7.014446948894147
1549,1749.000,0.06915511005718145
1550,1750.000,13.637576758432715
1551,1751.000,-3.188353833294059
1552,1752.000,1.5038534603640983
1553,1753.000,-1.6218422801462111
1554,1754.000,0.618486980527905
1555,1755.000,-4.296645767402424
1556,1756.000,-14.984031578919257
1557,1757.000,-1.3064425542402205
1558,1758.000,-9.61314883888781
1559,1759.000,-2.6269926237155232
1560,1760.000,2.20950085502227
1561,1761.000,9.140039315633658
1562,1762.000,8.672479430931617
1563,1763.000,2.321040828186142
1564,1764.000,-4.424647910926524
1565,1765.000,-1.973586250373046
1566,1766.000,8.47150430018337
1567,1767.000,3.389333185340547
1568,1768.000,1.2965808038952673
1569,1769.000,7.219466508806363
1570,1770.000,-5.9322413928657625
1571,1771.000,13.362783359997138
1572,1772.000,6.427433982516959
1573,1773.000,-5.010488356225778
1574,1774.000,-2.52487053325558
1575,1775.000,6.6772545282701685
1576,1776.000,-3.034422141009145
1577,1777.000,1.0824674433006294
1578,1778.000,13.617958219299453
1579,1779.000,-0.6238749212593575
1580,1780.000,1.5032828669827722
1581,1781.000,7.238528382937147
1582,1782.000,7.54830837901909
1583,1783.000,13.439043561093058
1584,1784.000,-2.9878034115663468
1585,1785.000,3.0461200736599494
1586,1786.000,4.803744582700347
1587,1787.000,-2.1729643652656705
1588,1788.000,-0.253152297856559
1589,1789.000,6.997461210461097
1590,1790.000,0.7184675383255126
1591,1791.000,1.919078017418542
1592,1792.000,-1.8855870675629376
1593,1793.000,-3.7200364789855485
1594,1794.000,-3.2747690263045115
1595,1795.000,8.064509433874719
1596,1796.000,14.043931997746768
1597,1797.000,0.9420767142569275
1598,1798.000,14.456521585050268
1599,1799.000,-2.103669435574375
1600,1800.000,-0.4362044407234862
1601,1801.000,-2.7235255709460944
1602,1802.000,1.3413759856998695
1603,1803.000,6.370168993614698
1604,1804.000,4.2998111695947046
1605,1805.000,0.8114641827851301
1606,1806.000,9.566098654631787
1607,1807.000,-2.127849841168427
1608,1808.000,2.144336221273079
1609,1809.000,-5.649347679995117
1610,1810.000,13.742327885160194
1611,1811.000,-0.31700770106681375
1612,1812.000,8.439334895510001
1613,1813.000,-6.443056038972372
1614,1814.000,2.9865067335199456
1615,1815.000,9.551757402869498
1616,1816.000,10.513957110751562
1617,1817.000,3.966351950596618
1618,1818.000,0.6658409675251278
1619,1819.000,-1.927130841690996
1620,1820.000,4.799635471316378
1621,1821.000,6.900313806461327
1622,1822.000,8.034507015156123
1623,1823.000,-1.2349530997435068
1624,1824.000,2.7315142160214236
1625,1825.000,-2.0906973319574718
1626,1826.000,-7.031121086777603
1627,1827.000,4.829039559695957
1628,1828.000,-2.9934448331960084
1629,1829.000,4.705263245028618
1630,1830.000,2.2453022559466262
1631,1831.000,7.860478612180486
1632,1832.000,-0.08883432265020019
1633,1833.000,2.757481766012006
1634,1834.000,5.672056143630016
1635,1835.000,2.5470830264971482
1636,1836.000,-3.333811418287951
1637,1837.000,6.532544927114486
1638,1838.000,12.369961131235868
1639,1839.000,1.733101213252212
1640,1840.000,2.9539211429378156
1641,1841.000,2.785716840600344
1642,1842.000,-6.784551822947833
1643,1843.000,4.589357973535243
1644,1844.000,8.999739001694252
1645,1845.000,-2.6617080164824074
1646,1846.000,-0.03181240872163471
1647,1847.000,8.948682447497504
1648,1848.000,11.81052212488703
1649,1849.000,-9.278288853696267
1650,1850.000,7.720130984685966
1651,1851.000,-6.5313439369733715
1652,1852.000,6.775646754298123
1653,1853.000,2.941737381425355
1654,1854.000,9.871205217214538
1655,1855.000,-6.709587515678322
1656,1856.000,-3.6527146448161147
1657,1857.000,-4.829769048008075
1658,1858.000,8.498686346610612
1659,1859.000,11.715308560559151
1660,1860.000,10.131608564935505
1661,1861.000,-3.4451607196137957
1662,1862.000,-0.48070242295625576
1663,1863.000,-4.055652725518485
1664,1864.000,-1.5293178583392546
1665,1865.000,3.598115896884792
1666,1866.000,12.850926207739576
1667,1867.000,0.7591096910564374
1668,1868.000,-6.155544087145245
1669,1869.000,7.533709388285843
1670,1870.000,9.122498581596119
1671,1871.000,12.697668906069339
1672,1872.000,10.297280723974836
1673,1873.000,4.191774346523744
1674,1874.000,-11.804374966189243
1675,1875.000,8.061640994767458
1676,1876.000,-2.684443612883115
1677,1877.000,4.666405317314002
1678,1878.000,-4.012997159494262
1679,1879.000,13.42996496047408
1680,1880.000,3.6711106295856553
1681,1881.000,1.4083887487468019
1682,1882.000,6.380635167351102
1683,1883.000,-5.434285316780461
1684,1884.000,-7.071303957430246
1685,1885.000,5.251258939947547
1686,1886.000,10.24238801818774
1687,1887.000,1.6070948683600363
1688,1888.000,2.8052810297203905
1689,1889.000,-0.9307960103406003
1690,1890.000,5.175413183651472
1691,1891.000,-1.972583004792341
1692,1892.000,-0.015024244183223345
1693,1893.000,-6.117471255086002
1694,1894.000,2.9384891898071146
1695,1895.000,7.529844265644442
1696,1896.000,3.2685220953567296
1697,1897.000,10.817260749608977
1698,1898.000,1.0153492467488832
1699,1899.000,-3.5449094472401157
1700,1900.000,-0.7992304187996524
1701,1901.000,0.3224161931748313
1702,1902.000,2.692762197257707
1703,1903.000,9.735396349462917
1704,1904.000,2.7634043531879797
1705,1905.000,15.006044859158465
1706,1906.000,-6.230327534613934
1707,1907.000,12.544610717114665
1708,1908.000,6.42592610676229
1709,1909.000,-1.6840399261102448
1710,1910.000,6.736967005128008
1711,1911.000,7.998801234147322
1712,1912.000,10.443234041598771
1713,1913.000,9.596039655060395
1714,1914.000,5.768990248994214
1715,1915.000,-3.4045720553099272
1716,1916.000,7.728638810223629
1717,1917.000,7.7401058603927595
1718,1918.000,5.751753056682901
1719,1919.000,2.688309307201962
1720,1920.000,4.069999466643139
1721,1921.000,9.804794336229179
1722,1922.000,0.27625066366158535
1723,1923.000,12.197594143068045
1724,1924.000,-2.55134358503733
1725,1925.000,-8.338448933824793
1726,1926.000,0.20111862983117135
1727,1927.000,5.9893535852686455
1728,1928.000,4.959900358012646
1729,1929.000,-4.417704680282668
1730,1930.000,3.69129578811021
1731,1931.000,-1.8194959730492428
1732,1932.000,8.969944245977786
1733,1933.000,3.3440266008458366
1734,1934.000,5.165093193102621
1735,1935.000,20.32553407010846
1736,1936.000,-1.9906397749882672
1737,1937.000,2.110163596683833
1738,1938.000,2.956155069671695
1739,1939.000,-5.006176525850151
1740,1940.000,0.13272058586949242
1741,1941.000,12.32216512610944
1742,1942.000,-0.8259892383846363
1743,1943.000,-7.5909578954249355
1744,1944.000,2.2524627125326333
1745,1945.000,1.6624810883747614
1746,1946.000,6.23334068025315
1747,1947.000,13.769652881549746
1748,1948.000,-5.974500969183055
1749,1949.000,-12.522869588259937
1750,1950.000,-8.19560074693527
1751,1951.000,0.19362572857812665
1752,1952.000,3.69042095702639
1753,1953.000,4.452597002088396
1754,1954.000,4.843914872315736
1755,1955.000,1.0786105210845562
1756,1956.000,7.387829846539489
1757,1957.000,-12.897778308444913
1758,1958.000,6.252447843677373
1759,1959.000,-2.7106539649307706
1760,1960.000,-6.295458057524002
1761,1961.000,-4.1481738128434245
1762,1962.000,-2.299699665150456
1763,1963.000,-5.740234104287765
1764,1964.000,-8.811264675723578
1765,1965.000,-3.259032980605298
1766,1966.000,-0.5184136758073237
1767,1967.000,-1.602772473989944
1768,1968.000,-7.271335143626402
1769,1969.000,-5.132745509087044
1770,1970.000,-3.5346554506581924
1771,1971.000,-5.57297090460861
1772,1972.000,-5.462737863235816
1773,1973.000,-7.953056374918788
1774,1974.000,-10.251165544160358
1775,1975.000,4.809997468345955
1776,1976.000,-5.166501554310571
1777,1977.000,-5.181305885332222
1778,1978.000,-13.507423854244507
1779,1979.000,-9.424057846953474
1780,1980.000,-10.335152305797692
1781,1981.000,-0.5375867295933858
1782,1982.000,-11.021994673694508
1783,1983.000,7.760377249976273
1784,1984.000,-13.979981627153165
1785,1985.000,2.7081599696809917
1786,1986.000,1.495861258498735
1787,1987.000,-2.8851165994528856
1788,1988.000,-3.306303499765363
1789,1989.000,0.0327766050934315
1790,1990.000,-16.252652294280097
1791,1991.000,2.5075487357314614
1792,1992.000,-15.04450442829716
1793,1993.000,-0.12698496685970895
1794,1994.000,-14.303794117596226
1795,1995.000,-15.126523175319562
1796,1996.000,-6.654271492082216
1797,1997.000,-20.530749477216204
1798,1998.000,-8.704943597390866
1799,1999.000,-5.733357376651384
1800,2000.000,-6.370324396492379
