pixel_index,raman_shift_cm-1,intensity
0,200.000,0.009950899829396646
1,201.000,0.010249399022582642
2,202.000,0.010324897825806112
3,203.000,0.010216062593202084
4,204.000,0.009961559678905574
5,205.000,0.009600055437051625
6,206.000,0.01029296306932181
7,207.000,0.007482913729103128
8,208.000,0.009161818181212929
9,209.000,0.008301649118761217
10,210.000,0.008696121662972985
11,211.000,0.011054406890440075
12,212.000,0.010734298083265856
13,213.000,0.008597155197259005
14,214.000,0.006737315374694984
15,215.000,0.005614903120630041
16,216.000,0.0034270512555534204
17,217.000,0.00177588681943784
18,218.000,0.00451132940604603
19,219.000,0.004433227018454499
20,220.000,0.0033162465156259904
21,221.000,0.0057534449185513
22,222.000,0.0075013611197257395
23,223.000,0.009445587451897572
24,224.000,0.010776448404553624
25,225.000,0.01163968906338368
26,226.000,0.010121244716977234
27,227.000,0.008680688050604337
28,228.000,0.008966064934963252
29,229.000,0.007024562874912436
30,230.000,0.004939302047975464
31,231.000,0.006389613515451233
32,232.000,0.006653197497487286
33,233.000,0.00780547910742348
34,234.000,0.008002386487410338
35,235.000,0.007094011278804466
36,236.000,0.005337757187866119
37,237.000,0.0038542354324509523
38,238.000,0.0036686033481968484
39,239.000,0.0023071424372967143
40,240.000,0.00231257933112943
41,241.000,0.003299368557975491
42,242.000,0.0028374959160716983
43,243.000,0.002812266727042911
44,244.000,0.003165813948242398
45,245.000,0.0036270591949829605
46,246.000,0.005453976540785422
47,247.000,0.006713410377680985
48,248.000,0.007579735386619028
49,249.000,0.009072078949568041
50,250.000,0.010635163104336183
51,251.000,0.0111571811173394
52,252.000,0.011747044938443255
53,253.000,0.011235189804640645
54,254.000,0.012193698341107357
55,255.000,0.011924439523497227
56,256.000,0.011536521904503527
57,257.000,0.009950550813441839
58,258.000,0.007682347723090708
59,259.000,0.004867253193926006
60,260.000,0.0032058246083093264
61,261.000,0.0025379726323184184
62,262.000,0.0036898708780991087
63,263.000,0.004575831799004861
64,264.000,0.00962689122986197
65,265.000,0.01142311091839193
66,266.000,0.012093727662741933
67,267.000,0.012985846003637226
68,268.000,0.010908462487015309
69,269.000,0.009770851737729902
70,270.000,0.007786800915327591
71,271.000,0.006971712567781184
72,272.000,0.007320391911299317
73,273.000,0.007356161517865084
74,274.000,0.008599288454023957
75,275.000,0.007709218392384847
76,276.000,0.0062761721670599934
77,277.000,0.004717235810696441
78,278.000,0.003810782901642129
79,279.000,0.004095225731662394
80,280.000,0.003872563597746534
81,281.000,0.00575084532075732
82,282.000,0.00800892152395157
83,283.000,0.009087635047631845
84,284.000,0.009675235964409884
85,285.000,0.009474652511697405
86,286.000,0.00916711229209254
87,287.000,0.010452339468977017
88,288.000,0.01085264218509555
89,289.000,0.011223145008730515
90,290.000,0.010793117204295386
91,291.000,0.009858633250605122
92,292.000,0.010122885790314548
93,293.000,0.01083754388383695
94,294.000,0.01041546255285774
95,295.000,0.009240239578704715
96,296.000,0.011564972163190804
97,297.000,0.012775279982350637
98,298.000,0.011382969951296847
99,299.000,0.011582361795146743
100,300.000,0.010659496926758149
101,301.000,0.0102177211020198
102,302.000,0.01029768180153907
103,303.000,0.00899618368992688
104,304.000,0.006881144147859473
105,305.000,0.005814168645604848
106,306.000,0.007819022047174906
107,307.000,0.008601341233559196
108,308.000,0.007876233638880781
109,309.000,0.00895542776972137
110,310.000,0.01157621162229904
111,311.000,0.01130082517998376
112,312.000,0.01199176500716404
113,313.000,0.010953431475506306
114,314.000,0.01076784343688208
115,315.000,0.012435337101683888
116,316.000,0.013558465952833295
117,317.000,0.013514920067631565
118,318.000,0.010637184587671194
119,319.000,0.009429952298218481
120,320.000,0.009536121071342723
121,321.000,0.007312696960823077
122,322.000,0.006261923268499055
123,323.000,0.004141128111637568
124,324.000,0.005170471900696662
125,325.000,0.0071686066053169096
126,326.000,0.009016911645831157
127,327.000,0.009957284120802235
128,328.000,0.00868623035657206
129,329.000,0.009694124476927147
130,330.000,0.009124945774230259
131,331.000,0.008047408756177463
132,332.000,0.008118311556016182
133,333.000,0.006180920296472044
134,334.000,0.008197189094786405
135,335.000,0.010218758485301856
136,336.000,0.012852475328345592
137,337.000,0.01377591020036396
138,338.000,0.01263049541425196
139,339.000,0.014420807755295416
140,340.000,0.012209276969456303
141,341.000,0.013760773479418547
142,342.000,0.015572457332781665
143,343.000,0.014408062390489595
144,344.000,0.01427633779839382
145,345.000,0.014165852102420948
146,346.000,0.013029193090411006
147,347.000,0.012111589989358082
148,348.000,0.011289419621191385
149,349.000,0.009500877356796703
150,350.000,0.008337061719150931
151,351.000,0.010482710322342489
152,352.000,0.01089975655485152
153,353.000,0.010024913396783436
154,354.000,0.007990710153183814
155,355.000,0.0056269184720550165
156,356.000,0.0039800901464531165
157,357.000,0.0049517542330890976
158,358.000,0.005155259130576126
159,359.000,0.0027909202348479272
160,360.000,0.006664474420982777
161,361.000,0.01222863929613708
162,362.000,0.01434016517547103
163,363.000,0.014502306630486971
164,364.000,0.016337918409740554
165,365.000,0.016560900077795322
166,366.000,0.017259152420254848
167,367.000,0.01621068966356054
168,368.000,0.013846020196117999
169,369.000,0.009416782163638919
170,370.000,0.008664814450782836
171,371.000,0.010213992541821352
172,372.000,0.008215443202244776
173,373.000,0.005823474194675876
174,374.000,0.007418430100266247
175,375.000,0.00845185816277985
176,376.000,0.009985040461950236
177,377.000,0.009068477215009566
178,378.000,0.01013837487601768
179,379.000,0.006076498680169478
180,380.000,0.0077361538724148755
181,381.000,0.0106404273344869
182,382.000,0.010472771398382355
183,383.000,0.010464560120280842
184,384.000,0.009817251969645424
185,385.000,0.010726317527920118
186,386.000,0.010370734159902195
187,387.000,0.009368008083794283
188,388.000,0.007082684408089885
189,389.000,0.002573915598599294
190,390.000,0.006201260238438957
191,391.000,0.007266709756913749
192,392.000,0.007461244643347267
193,393.000,0.007756352709363276
194,394.000,0.007672862953795323
195,395.000,0.007926965852342312
196,396.000,0.008559892948138125
197,397.000,0.009140940774223161
198,398.000,0.00856540234419866
199,399.000,0.007622291330687925
200,400.000,0.009874414824972469
201,401.000,0.010596292006934079
202,402.000,0.010312120841273417
203,403.000,0.00820352263208722
204,404.000,0.007489912209484362
205,405.000,0.0053326512619474775
206,406.000,0.006328322355941813
207,407.000,0.007924754323389597
208,408.000,0.007692859347530986
209,409.000,0.008780883775008573
210,410.000,0.010808771234310205
211,411.000,0.014797005572344882
212,412.000,0.017641242935979833
213,413.000,0.01693935562044161
214,414.000,0.01648146222104649
215,415.000,0.012557622548951758
216,416.000,0.011400907089833351
217,417.000,0.011629475527558285
218,418.000,0.009440585146429238
219,419.000,0.009565984289560046
220,420.000,0.008600591122120709
221,421.000,0.009011045971571196
222,422.000,0.008340359520256059
223,423.000,0.005545178898313424
224,424.000,0.003678449031811021
225,425.000,0.001155256880546252
226,426.000,0.002467014390001151
227,427.000,0.00429705846114779
228,428.000,0.004400053610765891
229,429.000,0.006519188262050893
230,430.000,0.006428580653621431
231,431.000,0.006721800213657183
232,432.000,0.006940187353653124
233,433.000,0.007067664244913106
234,434.000,0.00794286335924696
235,435.000,0.007591922599219339
236,436.000,0.007642349897513201
237,437.000,0.007665308867644426
238,438.000,0.005431655765293925
239,439.000,0.006194707133398748
240,440.000,0.0054850827103691425
241,441.000,0.005357668488163286
242,442.000,0.004101856254332426
243,443.000,0.005546324999848302
244,444.000,0.006918838857612741
245,445.000,0.007828177227231854
246,446.000,0.010654290030196908
247,447.000,0.011484599079694733
248,448.000,0.011221804967382261
249,449.000,0.011157382575409281
250,450.000,0.011418175324214633
251,451.000,0.00844612405344921
252,452.000,0.0065639986919912565
253,453.000,0.006495736213650254
254,454.000,0.0055099360665350205
255,455.000,0.006130687310547817
256,456.000,0.006695712789598739
257,457.000,0.003923266112900352
258,458.000,0.005134475825118601
259,459.000,0.0060551274168395225
260,460.000,0.00625901102689924
261,461.000,0.006318873005858667
262,462.000,0.007764352359275049
263,463.000,0.007267587617459106
264,464.000,0.009044139313523047
265,465.000,0.010459416542302463
266,466.000,0.009305544283245058
267,467.000,0.007947997236533522
268,468.000,0.009977239662957712
269,469.000,0.011207977039221837
270,470.000,0.009625884168295393
271,471.000,0.009095981496965617
272,472.000,0.007313618652071321
273,473.000,0.00753935985218165
274,474.000,0.007820555773870261
275,475.000,0.0055133451635743305
276,476.000,0.0059869347798147485
277,477.000,0.008698264180065375
278,478.000,0.011483398374016214
279,479.000,0.015503011699366987
280,480.000,0.01681752619893031
281,481.000,0.0170252439699172
282,482.000,0.01438709969879236
283,483.000,0.012834637071298659
284,484.000,0.009535441839771484
285,485.000,0.007360768762378838
286,486.000,0.009429204258432706
287,487.000,0.010488006175042522
288,488.000,0.00974431267306049
289,489.000,0.013412646777983657
290,490.000,0.014857928646625457
291,491.000,0.014623409536196733
292,492.000,0.013261642908662042
293,493.000,0.01169733228979017
294,494.000,0.009912700079308239
295,495.000,0.009620914527562459
296,496.000,0.008368052558463943
297,497.000,0.006822222463752111
298,498.000,0.0057522337747897955
299,499.000,0.008287351053001579
300,500.000,0.008680268405433945
301,501.000,0.01009138021404707
302,502.000,0.010009234701477627
303,503.000,0.010713508393618967
304,504.000,0.010252798536233915
305,505.000,0.00982858065942581
306,506.000,0.007718037030766256
307,507.000,0.0065007683121914885
308,508.000,0.004721635913775262
309,509.000,0.0032755381275042673
310,510.000,0.003520843840253581
311,511.000,0.005940068288616453
312,512.000,0.005833440703871832
313,513.000,0.009182629318911428
314,514.000,0.008452839535402455
315,515.000,0.00935534637458095
316,516.000,0.009409740193306839
317,517.000,0.00762766712227686
318,518.000,0.006899631568932016
319,519.000,0.006155249706909636
320,520.000,0.006677220583275303
321,521.000,0.007653242413158595
322,522.000,0.007656764916418429
323,523.000,0.008740576305334966
324,524.000,0.008915669644057616
325,525.000,0.012060615660423124
326,526.000,0.013180304192814468
327,527.000,0.01147826760362827
328,528.000,0.012586826067182954
329,529.000,0.010289611230092989
330,530.000,0.00843493417549234
331,531.000,0.00804657493234299
332,532.000,0.00885823841459544
333,533.000,0.008970653993229627
334,534.000,0.008131647437819018
335,535.000,0.00911520858439881
336,536.000,0.008588860262001818
337,537.000,0.007987344858808297
338,538.000,0.008368130559557697
339,539.000,0.006438675613963357
340,540.000,0.007732325457453386
341,541.000,0.008596813053005272
342,542.000,0.0098920503250864
343,543.000,0.010153097876879123
344,544.000,0.009105775926249298
345,545.000,0.011063417137227844
346,546.000,0.011446495504101735
347,547.000,0.011403333542168933
348,548.000,0.009169257298865764
349,549.000,0.007071717702931882
350,550.000,0.007510851271210717
351,551.000,0.0064560151212520985
352,552.000,0.0060576064905751535
353,553.000,0.005355214936367781
354,554.000,0.004108530410376617
355,555.000,0.004634961337463228
356,556.000,0.004585134101702805
357,557.000,0.005605223108334374
358,558.000,0.004967789526586287
359,559.000,0.006081842434146904
360,560.000,0.007742911998176744
361,561.000,0.008590246464747056
362,562.000,0.008503878629233144
363,563.000,0.007570380646147794
364,564.000,0.005929987876096609
365,565.000,0.005632250499336068
366,566.000,0.003540348158685248
367,567.000,0.0059619374856637085
368,568.000,0.006255799005138854
369,569.000,0.007755726983807277
370,570.000,0.009645066733072968
371,571.000,0.011063267922385565
372,572.000,0.01143418568433739
373,573.000,0.01050646189809689
374,574.000,0.008699868580977902
375,575.000,0.006004267194296743
376,576.000,0.002853568015132562
377,577.000,0.0030763419171201036
378,578.000,0.0005169985606347916
379,579.000,0.0018529221619427068
380,580.000,0.003176162577236212
381,581.000,0.005242199882249782
382,582.000,0.005068346633024903
383,583.000,0.0045287763754897
384,584.000,0.007900637597134833
385,585.000,0.010229560582079864
386,586.000,0.012899213350010976
387,587.000,0.012264532616856774
388,588.000,0.010962255520158419
389,589.000,0.01281151124083614
390,590.000,0.010393355393770088
391,591.000,0.00979662968377789
392,592.000,0.00550705827521475
393,593.000,0.004397226473124422
394,594.000,0.007248494843766925
395,595.000,0.008944517374381476
396,596.000,0.011916454152810035
397,597.000,0.013183501057925599
398,598.000,0.015240306691053251
399,599.000,0.017310378730129715
400,600.000,0.019233720659575657
401,601.000,0.022423353521993608
402,602.000,0.022642915136263594
403,603.000,0.02465873961896981
404,604.000,0.02514511348898215
405,605.000,0.026487735031673936
406,606.000,0.027118895789487913
407,607.000,0.02773510411060686
408,608.000,0.02635716266744825
409,609.000,0.027721013592938108
410,610.000,0.034774400365883855
411,611.000,0.04212985929648876
412,612.000,0.05112507576112521
413,613.000,0.06361935850544036
414,614.000,0.08088038569521959
415,615.000,0.10169185514751546
416,616.000,0.1263860210499045
417,617.000,0.15507630258491945
418,618.000,0.17701803608552738
419,619.000,0.195071437141954
420,620.000,0.20247287862006522
421,621.000,0.19500506147164792
422,622.000,0.1783681726996225
423,623.000,0.15536848931218167
424,624.000,0.12912579717947115
425,625.000,0.10222281944516501
426,626.000,0.08196895658029979
427,627.000,0.0675888111155816
428,628.000,0.056052233538969626
429,629.000,0.0491698065282206
430,630.000,0.040187932771754135
431,631.000,0.03345655507271698
432,632.000,0.03000015698688552
433,633.000,0.028214603931439063
434,634.000,0.02699818884913657
435,635.000,0.023422090291385155
436,636.000,0.02052910378354384
437,637.000,0.01838242905056588
438,638.000,0.015438778978056674
439,639.000,0.014189925273669237
440,640.000,0.011244727090390122
441,641.000,0.009184082560899793
442,642.000,0.009591293755955873
443,643.000,0.010127021994705986
444,644.000,0.009399664575131401
445,645.000,0.007230693163946643
446,646.000,0.006944492101034263
447,647.000,0.007488124741644073
448,648.000,0.006888393381046918
449,649.000,0.006896194642237634
450,650.000,0.006735091717459986
451,651.000,0.00791973347144103
452,652.000,0.0106040710178489
453,653.000,0.010850598671285102
454,654.000,0.010551476591239624
455,655.000,0.011138881312234606
456,656.000,0.011829530506084379
457,657.000,0.011025633290236984
458,658.000,0.009193029965862482
459,659.000,0.005184037232128194
460,660.000,0.00362473612563135
461,661.000,0.005623008744824899
462,662.000,0.0070587571617430804
463,663.000,0.009020329731423353
464,664.000,0.01028604539564899
465,665.000,0.010207563293230094
466,666.000,0.01038224277508737
467,667.000,0.009371997068550974
468,668.000,0.00781914784120568
469,669.000,0.00557603694035823
470,670.000,0.0038682915281064933
471,671.000,0.003987732964589161
472,672.000,0.0036236024467077776
473,673.000,0.005453948303406994
474,674.000,0.006990777965161397
475,675.000,0.006932521491380914
476,676.000,0.008833653636490791
477,677.000,0.008605200180298016
478,678.000,0.009610225457917423
479,679.000,0.00963953798732068
480,680.000,0.006936886597216734
481,681.000,0.00598547358964504
482,682.000,0.005292569121398208
483,683.000,0.004924883847082593
484,684.000,0.005887719069093559
485,685.000,0.004958737128275004
486,686.000,0.004135825387091859
487,687.000,0.0036991498901456136
488,688.000,0.005630780049534519
489,689.000,0.004861137970882421
490,690.000,0.004571736234240018
491,691.000,0.005338614121251652
492,692.000,0.005026865007779913
493,693.000,0.0026537775107838696
494,694.000,0.0036787304943631718
495,695.000,0.004119613654609911
496,696.000,0.004774407701733921
497,697.000,0.006812472571069138
498,698.000,0.007408065225802155
499,699.000,0.006482310221201828
500,700.000,0.006829795768077965
501,701.000,0.004648514223908411
502,702.000,0.003900658680901715
503,703.000,0.0019314438435747627
504,704.000,0.0019122930812446415
505,705.000,0.003816819930873386
506,706.000,0.004865883873119274
507,707.000,0.006125636062401484
508,708.000,0.007398119036182239
509,709.000,0.006522826168814635
510,710.000,0.006512608178071667
511,711.000,0.00606066669724771
512,712.000,0.007807553759311202
513,713.000,0.008790945456597315
514,714.000,0.008635994585794535
515,715.000,0.008980592267566463
516,716.000,0.008303343898859625
517,717.000,0.008437337380566705
518,718.000,0.007843628182618462
519,719.000,0.00623405740728252
520,720.000,0.005363795100567689
521,721.000,0.0048322040247103445
522,722.000,0.004876154272551043
523,723.000,0.004682621875270309
524,724.000,0.003946780083368111
525,725.000,0.002189297585521077
526,726.000,0.00329505891640935
527,727.000,0.00326883167117302
528,728.000,0.0038429470682165867
529,729.000,0.004878978543097665
530,730.000,0.004170199412807875
531,731.000,0.00492505216288842
532,732.000,0.004429114773447409
533,733.000,0.004438254838871728
534,734.000,0.004760844186432967
535,735.000,0.0037646105463615856
536,736.000,0.004455900449549089
537,737.000,0.0034308786174386628
538,738.000,0.00306836573191297
539,739.000,0.0024385007025852644
540,740.000,0.0009318622729938967
541,741.000,0.0012559119769838347
542,742.000,0.0005563991861036433
543,743.000,0.0012609285341119826
544,744.000,0.0009962799637522315
545,745.000,0.001031000917995505
546,746.000,0.0016545455259916794
547,747.000,0.00083985516740825
548,748.000,0.0012841633745553909
549,749.000,0.0041496899785132485
550,750.000,0.005017688664094762
551,751.000,0.0077614384884507285
552,752.000,0.0086579000627972
553,753.000,0.009117419307996012
554,754.000,0.00893612396904844
555,755.000,0.008243164205146569
556,756.000,0.006630351098601862
557,757.000,0.0030438778488813974
558,758.000,0.0012810354522467466
559,759.000,0.0032575661400408265
560,760.000,0.0039936569808174385
561,761.000,0.006964284737681813
562,762.000,0.007708467857239035
563,763.000,0.007559349656362166
564,764.000,0.0080504576549753
565,765.000,0.008237640502347302
566,766.000,0.006208708401409923
567,767.000,0.005760244892059155
568,768.000,0.004978575514431077
569,769.000,0.005885231712257966
570,770.000,0.00639997019599274
571,771.000,0.00911292018096182
572,772.000,0.008737049049757915
573,773.000,0.00856572870339813
574,774.000,0.00936383833861155
575,775.000,0.012341051734437251
576,776.000,0.01332133216747739
577,777.000,0.016282085216364713
578,778.000,0.016182800265987535
579,779.000,0.01903699610064129
580,780.000,0.019976505859535004
581,781.000,0.02333222013485098
582,782.000,0.023865189672652762
583,783.000,0.026284661271767616
584,784.000,0.02883597116830379
585,785.000,0.03423401345613384
586,786.000,0.03729829337472615
587,787.000,0.04245754527952224
588,788.000,0.05085113257968714
589,789.000,0.060321432895933176
590,790.000,0.07137962675453319
591,791.000,0.08593050076717364
592,792.000,0.09770702426471346
593,793.000,0.10962077000569308
594,794.000,0.11563984704174274
595,795.000,0.11793528891326491
596,796.000,0.11341541886724683
597,797.000,0.1073982085634421
598,798.000,0.0983686993919291
599,799.000,0.08639565284920386
600,800.000,0.07563068673179482
601,801.000,0.06661198946334
602,802.000,0.057061569160093084
603,803.000,0.04899094285043096
604,804.000,0.040259585607386385
605,805.000,0.03383009476279474
606,806.000,0.028161942273987172
607,807.000,0.023588089416032933
608,808.000,0.020382390908878383
609,809.000,0.016616766646600303
610,810.000,0.013844766653697304
611,811.000,0.014841090122633929
612,812.000,0.014076579969262057
613,813.000,0.010972329603582923
614,814.000,0.010266199736749308
615,815.000,0.009647869363029707
616,816.000,0.00904699031496214
617,817.000,0.007678674611182376
618,818.000,0.006620680740744747
619,819.000,0.005164932601839307
620,820.000,0.006062267880550183
621,821.000,0.006429487481876902
622,822.000,0.004598107447885332
623,823.000,0.0044488128593419725
624,824.000,0.005211556233245804
625,825.000,0.004817344109066345
626,826.000,0.005654136456661592
627,827.000,0.006576552664858428
628,828.000,0.005213867862408353
629,829.000,0.006913289534703902
630,830.000,0.006141385074935328
631,831.000,0.00631590409231921
632,832.000,0.005550884057174796
633,833.000,0.006836054297525984
634,834.000,0.005836163795165733
635,835.000,0.005861339426904145
636,836.000,0.006254850504402035
637,837.000,0.006250655426075774
638,838.000,0.004581355995823841
639,839.000,0.004428524806747487
640,840.000,0.0037329572164185197
641,841.000,0.005274965162892638
642,842.000,0.004904258618256194
643,843.000,0.005506436953473925
644,844.000,0.005860524086606267
645,845.000,0.006595347477451151
646,846.000,0.005933355693242724
647,847.000,0.005453450125144508
648,848.000,0.003753077244749774
649,849.000,0.0019039215367065475
650,850.000,0.0012738012874663497
651,851.000,0.00047933636725302933
652,852.000,0.0006240951899832091
653,853.000,0.0007422761729683461
654,854.000,0.001364977481350187
655,855.000,0.003028309061385542
656,856.000,0.004379467741770809
657,857.000,0.004436711305513017
658,858.000,0.00424863251664475
659,859.000,0.0049907844765195745
660,860.000,0.006268230049679116
661,861.000,0.006331191187088121
662,862.000,0.007774479182647795
663,863.000,0.00613236820695273
664,864.000,0.007149536657629277
665,865.000,0.00878740038512191
666,866.000,0.007745185026939922
667,867.000,0.0061659320680287665
668,868.000,0.005800721860681743
669,869.000,0.0060957492273185625
670,870.000,0.006149079288764388
671,871.000,0.004575575502008189
672,872.000,0.0038454456681272513
673,873.000,0.002223434732294649
674,874.000,0.002732917307426304
675,875.000,0.0035313041184512643
676,876.000,0.002590469537242322
677,877.000,0.0034062868362701774
678,878.000,0.005860094089284321
679,879.000,0.006426736572412576
680,880.000,0.006497316409253563
681,881.000,0.006632105336277154
682,882.000,0.005992026377014138
683,883.000,0.0057514874112844
684,884.000,0.005928396037490124
685,885.000,0.006068321729009303
686,886.000,0.004784769648432828
687,887.000,0.004256571975052413
688,888.000,0.004479894642643618
689,889.000,0.0032374919623403414
690,890.000,0.0024137060151896888
691,891.000,0.0018963669605171407
692,892.000,0.0004732110193653472
693,893.000,0.0
694,894.000,0.000942430897192058
695,895.000,0.0015756504739993628
696,896.000,0.0019613842894619844
697,897.000,0.0018796519671602939
698,898.000,0.0019207063942229935
699,899.000,0.0017734145218471194
700,900.000,0.0027889360889981926
701,901.000,0.00405013054194259
702,902.000,0.005303598792320597
703,903.000,0.0057717976864616995
704,904.000,0.007647974741974881
705,905.000,0.009549215715040216
706,906.000,0.009880094925669797
707,907.000,0.008538022334832541
708,908.000,0.006503916737556546
709,909.000,0.005394098001767057
710,910.000,0.004855573613665832
711,911.000,0.00399803115414183
712,912.000,0.003045207224175385
713,913.000,0.001978067139065289
714,914.000,0.001874678500660457
715,915.000,0.0020810556556902942
716,916.000,0.0011912240877769837
717,917.000,4.149662772556185e-05
718,918.000,0.0006864844677752759
719,919.000,0.0018442074921940679
720,920.000,0.0018732065138436058
721,921.000,0.0026856760909252323
722,922.000,0.003720559693382116
723,923.000,0.004270762938967612
724,924.000,0.004013518377069776
725,925.000,0.003616990392281554
726,926.000,0.002574314626747513
727,927.000,0.0026133058052767904
728,928.000,0.004074763804291681
729,929.000,0.004203739313733568
730,930.000,0.0032734454640948535
731,931.000,0.004165705416403827
732,932.000,0.0036382463537611843
733,933.000,0.003514237278473244
734,934.000,0.005391398960488986
735,935.000,0.006647411929583468
736,936.000,0.005838320685454027
737,937.000,0.007960164175833681
738,938.000,0.008253633243544339
739,939.000,0.008362252294102557
740,940.000,0.00808554507096563
741,941.000,0.007653210506127144
742,942.000,0.0055255556348593905
743,943.000,0.004044255891757558
744,944.000,0.003843353243955017
745,945.000,0.004868937188322627
746,946.000,0.004206620907686674
747,947.000,0.006504386325756216
748,948.000,0.006926662475797363
749,949.000,0.009256651989151649
750,950.000,0.010767691232416249
751,951.000,0.010378486233489501
752,952.000,0.01109011427510319
753,953.000,0.011326671035171279
754,954.000,0.011352806468677127
755,955.000,0.013331211394285624
756,956.000,0.01156797020258704
757,957.000,0.01219914969332418
758,958.000,0.010108848194313617
759,959.000,0.0085869178344933
760,960.000,0.008750073168513362
761,961.000,0.007791982173385653
762,962.000,0.009903445366385577
763,963.000,0.011586545431526351
764,964.000,0.00998997859117837
765,965.000,0.009781397098501076
766,966.000,0.009754150161642395
767,967.000,0.010605846945665248
768,968.000,0.007342295196966925
769,969.000,0.008516185133693057
770,970.000,0.008418566837221962
771,971.000,0.008971061086458376
772,972.000,0.010565045795703323
773,973.000,0.014996226154666295
774,974.000,0.017977267119097782
775,975.000,0.023034683551261596
776,976.000,0.028709784241727453
777,977.000,0.029746973606195024
778,978.000,0.027676859139954255
779,979.000,0.027006053581357516
780,980.000,0.022907598712204227
781,981.000,0.021780007882480433
782,982.000,0.02423573289707007
783,983.000,0.029879816874504736
784,984.000,0.035462711221435114
785,985.000,0.042821836587060146
786,986.000,0.05086856603446321
787,987.000,0.05785110185650288
788,988.000,0.0642139476651505
789,989.000,0.07233456055377759
790,990.000,0.08251702565955667
791,991.000,0.09713644653625118
792,992.000,0.11932056257958627
793,993.000,0.1429576192531457
794,994.000,0.17855110675873975
795,995.000,0.2360496317392029
796,996.000,0.3366981631908479
797,997.000,0.48948687290784415
798,998.000,0.6728044000358421
799,999.000,0.8413289356612225
800,1000.000,0.9574857143714842
801,1001.000,1.0
802,1002.000,0.9588779913194213
803,1003.000,0.8430131443184542
804,1004.000,0.6756207596643784
805,1005.000,0.4936273852963198
806,1006.000,0.34330982264270354
807,1007.000,0.24381520989278557
808,1008.000,0.18796814413288845
809,1009.000,0.15364115577668652
810,1010.000,0.13112303963672817
811,1011.000,0.11179003246553994
812,1012.000,0.09654685175835229
813,1013.000,0.08581913350365335
814,1014.000,0.07793487121374784
815,1015.000,0.07259698018953559
816,1016.000,0.0684130093948944
817,1017.000,0.06673783826853825
818,1018.000,0.06862797095829298
819,1019.000,0.07113387320702971
820,1020.000,0.07605790815372525
821,1021.000,0.07920922877360383
822,1022.000,0.08528892629979375
823,1023.000,0.0942998214334148
824,1024.000,0.11454736995439313
825,1025.000,0.14248171037134447
826,1026.000,0.18678215169289608
827,1027.000,0.24972100331181782
828,1028.000,0.32170369551776157
829,1029.000,0.38689859924571685
830,1030.000,0.4334806440232475
831,1031.000,0.44958836699029175
832,1032.000,0.43208002008801233
833,1033.000,0.3843325067477953
834,1034.000,0.3213315896499255
835,1035.000,0.24936522819316637
836,1036.000,0.18280850841068627
837,1037.000,0.13398651769730685
838,1038.000,0.10203200069723498
839,1039.000,0.0829999636271168
840,1040.000,0.0680626932598429
841,1041.000,0.058129385734892666
842,1042.000,0.04916083005759277
843,1043.000,0.04186391260133816
844,1044.000,0.03984618421994584
845,1045.000,0.03636864481787703
846,1046.000,0.030128005709403785
847,1047.000,0.027487750294503028
848,1048.000,0.025338866477390008
849,1049.000,0.023756822234901383
850,1050.000,0.019525990773970905
851,1051.000,0.01844541091633181
852,1052.000,0.01732988306466851
853,1053.000,0.018771662801264584
854,1054.000,0.018337303735960778
855,1055.000,0.017134221037416145
856,1056.000,0.01731672648747154
857,1057.000,0.01735940527863745
858,1058.000,0.016015718962269585
859,1059.000,0.015144392524839638
860,1060.000,0.012422883447607783
861,1061.000,0.011198287490297578
862,1062.000,0.010724665426732305
863,1063.000,0.012784815380529255
864,1064.000,0.011179180891504013
865,1065.000,0.010088240424707469
866,1066.000,0.009944907773010957
867,1067.000,0.010329666180868158
868,1068.000,0.009632571012684832
869,1069.000,0.011022531356285219
870,1070.000,0.011339285577407042
871,1071.000,0.011177532090593731
872,1072.000,0.012402084849830292
873,1073.000,0.012635309012496803
874,1074.000,0.012109435956602051
875,1075.000,0.010024845489646092
876,1076.000,0.008095991140545758
877,1077.000,0.007962983337297065
878,1078.000,0.0070558712220425415
879,1079.000,0.006106685109381214
880,1080.000,0.007082821923108449
881,1081.000,0.006548371912578257
882,1082.000,0.007296743562660222
883,1083.000,0.005898080492224071
884,1084.000,0.005623478675923829
885,1085.000,0.004816288644707906
886,1086.000,0.00328462698128287
887,1087.000,0.004255522742854231
888,1088.000,0.0045213637085410536
889,1089.000,0.003962222546639577
890,1090.000,0.0031068021689170723
891,1091.000,0.002901365226091803
892,1092.000,0.0045702783601357065
893,1093.000,0.005320224094614559
894,1094.000,0.006595749237906111
895,1095.000,0.00837228435456635
896,1096.000,0.007729364539152231
897,1097.000,0.008712067660060415
898,1098.000,0.009356526807390284
899,1099.000,0.007099166758549388
900,1100.000,0.005833999708495116
901,1101.000,0.007020161752351032
902,1102.000,0.007054095495567199
903,1103.000,0.00734929808706246
904,1104.000,0.008589608068353186
905,1105.000,0.007530658266235879
906,1106.000,0.0066494498971708255
907,1107.000,0.00590718411052741
908,1108.000,0.006870748385069419
909,1109.000,0.007669802613683587
910,1110.000,0.010648733846765634
911,1111.000,0.011494336195600445
912,1112.000,0.011104163635305352
913,1113.000,0.010007492817066614
914,1114.000,0.009371290273289085
915,1115.000,0.00950345527420646
916,1116.000,0.010751111963959774
917,1117.000,0.010764049051112435
918,1118.000,0.01162632573380288
919,1119.000,0.012552115343408377
920,1120.000,0.011294822459370444
921,1121.000,0.011758015314884896
922,1122.000,0.011678152671040498
923,1123.000,0.010723473729615678
924,1124.000,0.011825352076411055
925,1125.000,0.01560564780244788
926,1126.000,0.016114847355613336
927,1127.000,0.015337555209269587
928,1128.000,0.012342193840608022
929,1129.000,0.00851404739977645
930,1130.000,0.005238102350338798
931,1131.000,0.00866393812125766
932,1132.000,0.007562488635417463
933,1133.000,0.008671781322419282
934,1134.000,0.01182729730996047
935,1135.000,0.016691312627313805
936,1136.000,0.016334283177810074
937,1137.000,0.018009436653022633
938,1138.000,0.01636155452132499
939,1139.000,0.015370268183879824
940,1140.000,0.018027749115843924
941,1141.000,0.02307076253774813
942,1142.000,0.024158925816863196
943,1143.000,0.029385139325752433
944,1144.000,0.03236666344808613
945,1145.000,0.03426690942749017
946,1146.000,0.038420945499990464
947,1147.000,0.046572406837637435
948,1148.000,0.05544873534884854
949,1149.000,0.06907204122603482
950,1150.000,0.08799334961100434
951,1151.000,0.10695204570338604
952,1152.000,0.12722429992487144
953,1153.000,0.1461300076845475
954,1154.000,0.15690155620876647
955,1155.000,0.1603541693239272
956,1156.000,0.15996892318678457
957,1157.000,0.1482177889607938
958,1158.000,0.13270908744304388
959,1159.000,0.11077651908581615
960,1160.000,0.09144880399035253
961,1161.000,0.07309610681626896
962,1162.000,0.059143188849784215
963,1163.000,0.05227440706102245
964,1164.000,0.04990058806593912
965,1165.000,0.04687265283428284
966,1166.000,0.046103344880810734
967,1167.000,0.044087665215799286
968,1168.000,0.04189748897288737
969,1169.000,0.03950441444740373
970,1170.000,0.03931376994101206
971,1171.000,0.03620541640928793
972,1172.000,0.03628979125572642
973,1173.000,0.03862321170431352
974,1174.000,0.042797406649878154
975,1175.000,0.047773965024923266
976,1176.000,0.05520714577868553
977,1177.000,0.06490763749280912
978,1178.000,0.07764119296675379
979,1179.000,0.0970245267248111
980,1180.000,0.11246301109761139
981,1181.000,0.1254343705615988
982,1182.000,0.13510391460981788
983,1183.000,0.13609316135203464
984,1184.000,0.13192544758107103
985,1185.000,0.12340092835657626
986,1186.000,0.10824458354463486
987,1187.000,0.09175009465271977
988,1188.000,0.07472736061504565
989,1189.000,0.06085426145965587
990,1190.000,0.049198686133189506
991,1191.000,0.04037102984886031
992,1192.000,0.033861535461594414
993,1193.000,0.02789240493049682
994,1194.000,0.023703820500875387
995,1195.000,0.020680347683489125
996,1196.000,0.017841919867809645
997,1197.000,0.014919454159608336
998,1198.000,0.012344926504101121
999,1199.000,0.010790321163843083
1000,1200.000,0.012274805800443486
1001,1201.000,0.010439167375188003
1002,1202.000,0.01187223010446569
1003,1203.000,0.01096041237312892
1004,1204.000,0.010660640147198423
1005,1205.000,0.010489377170179332
1006,1206.000,0.009043551520734112
1007,1207.000,0.008516840400542295
1008,1208.000,0.009547928086133795
1009,1209.000,0.009557286871817488
1010,1210.000,0.009779014936538268
1011,1211.000,0.007650778910859912
1012,1212.000,0.007593098436334127
1013,1213.000,0.004406492449226636
1014,1214.000,0.0060842851622322554
1015,1215.000,0.0067363956821763354
1016,1216.000,0.005322957184894993
1017,1217.000,0.006842818223384112
1018,1218.000,0.007436565166020945
1019,1219.000,0.006897697299892931
1020,1220.000,0.00816974148094741
1021,1221.000,0.006664739326495907
1022,1222.000,0.0066141706458617685
1023,1223.000,0.005067368020187003
1024,1224.000,0.007822519767805384
1025,1225.000,0.006710738889108165
1026,1226.000,0.006405718910811768
1027,1227.000,0.007278125153743753
1028,1228.000,0.00544043591127576
1029,1229.000,0.005176113244328727
1030,1230.000,0.006983438334750189
1031,1231.000,0.006143560667785441
1032,1232.000,0.007142078056630936
1033,1233.000,0.006526638408284442
1034,1234.000,0.006290353001200878
1035,1235.000,0.004000216896135814
1036,1236.000,0.0032720949425693036
1037,1237.000,0.002279174462301248
1038,1238.000,0.0016230254130939826
1039,1239.000,0.0034652428695704056
1040,1240.000,0.004815627507558989
1041,1241.000,0.004180156411889339
1042,1242.000,0.0051496256113398265
1043,1243.000,0.00567516873369234
1044,1244.000,0.004493772482852685
1045,1245.000,0.004981032938126738
1046,1246.000,0.005539525897665193
1047,1247.000,0.0049237694978822855
1048,1248.000,0.00525998584745519
1049,1249.000,0.005232917635970641
1050,1250.000,0.004619249195109478
1051,1251.000,0.0034796201919123923
1052,1252.000,0.004247858113814598
1053,1253.000,0.00467994417243551
1054,1254.000,0.0045189508725151815
1055,1255.000,0.005669179554761818
1056,1256.000,0.0057229843977620026
1057,1257.000,0.005243052748014559
1058,1258.000,0.005134746259688929
1059,1259.000,0.005036890684293957
1060,1260.000,0.004414697960087257
1061,1261.000,0.0038700370833489512
1062,1262.000,0.0031160682392648376
1063,1263.000,0.002784958014223992
1064,1264.000,0.0029321514492334885
1065,1265.000,0.002720802767821684
1066,1266.000,0.0038560342893866123
1067,1267.000,0.004082264727669007
1068,1268.000,0.004961720890732057
1069,1269.000,0.00457654742468401
1070,1270.000,0.005561708945661178
1071,1271.000,0.005485459374014993
1072,1272.000,0.004270365942056959
1073,1273.000,0.00401465045978074
1074,1274.000,0.003523867145126623
1075,1275.000,0.004163570100258686
1076,1276.000,0.005507396566384488
1077,1277.000,0.004129822218971456
1078,1278.000,0.005711837139127406
1079,1279.000,0.005034865540987831
1080,1280.000,0.00731842207872259
1081,1281.000,0.007442789543698916
1082,1282.000,0.006502706982414961
1083,1283.000,0.005338666345661039
1084,1284.000,0.003944481186837801
1085,1285.000,0.004537877141666553
1086,1286.000,0.00479147511051972
1087,1287.000,0.003010485003226266
1088,1288.000,0.00497058448672637
1089,1289.000,0.004772616945261131
1090,1290.000,0.004433907983433423
1091,1291.000,0.004752001464243621
1092,1292.000,0.004657334211925173
1093,1293.000,0.003726020545498726
1094,1294.000,0.004415160256598358
1095,1295.000,0.003465612042644846
1096,1296.000,0.004947105532653918
1097,1297.000,0.005062218319819937
1098,1298.000,0.0058251363068506255
1099,1299.000,0.004871445133541828
1100,1300.000,0.003706501344624932
1101,1301.000,0.004152278222509644
1102,1302.000,0.003461220561663575
1103,1303.000,0.0021316719832263254
1104,1304.000,0.0007836702701557958
1105,1305.000,0.00016315054816534757
1106,1306.000,0.0030638681277259487
1107,1307.000,0.0039482398944580286
1108,1308.000,0.00351285953421217
1109,1309.000,0.005454220904509298
1110,1310.000,0.007539661263514187
1111,1311.000,0.00901648563524624
1112,1312.000,0.008497199481523455
1113,1313.000,0.008577846285466048
1114,1314.000,0.00700848686612474
1115,1315.000,0.007406333793915696
1116,1316.000,0.007037639284412008
1117,1317.000,0.00553339673749861
1118,1318.000,0.0036545121827535726
1119,1319.000,0.00392204470548201
1120,1320.000,0.003658854056940958
1121,1321.000,0.0031625539548616943
1122,1322.000,0.0012385307845493036
1123,1323.000,0.0023418809145885613
1124,1324.000,0.0014407060144454998
1125,1325.000,0.0032266511529760507
1126,1326.000,0.0040473389397862785
1127,1327.000,0.004058910227906294
1128,1328.000,0.004671533822203557
1129,1329.000,0.005067906295873477
1130,1330.000,0.005335032929380549
1131,1331.000,0.004570137719594416
1132,1332.000,0.0024028255982211266
1133,1333.000,0.00307069224904008
1134,1334.000,0.0030197306161742887
1135,1335.000,0.003663492830704841
1136,1336.000,0.0041079326157426824
1137,1337.000,0.0036013144380229074
1138,1338.000,0.004099314668223082
1139,1339.000,0.004521465639488504
1140,1340.000,0.004452880828736376
1141,1341.000,0.003883214333600837
1142,1342.000,0.004203384762160194
1143,1343.000,0.006776154519835032
1144,1344.000,0.008272904779400396
1145,1345.000,0.008170574612521816
1146,1346.000,0.008349233712972574
1147,1347.000,0.0066614094454987205
1148,1348.000,0.005048008156916229
1149,1349.000,0.002906938314645747
1150,1350.000,0.0007042372903020148
1151,1351.000,0.0006943734905384147
1152,1352.000,0.0036822953491602323
1153,1353.000,0.004841145138125445
1154,1354.000,0.007528515560315163
1155,1355.000,0.008288697730349813
1156,1356.000,0.009416221229524725
1157,1357.000,0.00917165632726111
1158,1358.000,0.008282260764787854
1159,1359.000,0.005837472035157015
1160,1360.000,0.0036408381819531196
1161,1361.000,0.002883332116457662
1162,1362.000,0.002038424365517175
1163,1363.000,0.0002932140589685514
1164,1364.000,0.00015690419191160987
1165,1365.000,0.0006351931121690088
1166,1366.000,0.0022902742167611456
1167,1367.000,0.0029653081232123226
1168,1368.000,0.0025612510897696948
1169,1369.000,0.0028218218201387845
1170,1370.000,0.004207909731230739
1171,1371.000,0.0048615657010597346
1172,1372.000,0.004505834714690964
1173,1373.000,0.0042432516588874255
1174,1374.000,0.0037523780547561785
1175,1375.000,0.004718478206816011
1176,1376.000,0.004289960134837723
1177,1377.000,0.0023908995232100917
1178,1378.000,0.0007055004824218633
1179,1379.000,0.002055821584686746
1180,1380.000,0.004897355293980707
1181,1381.000,0.004671048013726106
1182,1382.000,0.007136386202524479
1183,1383.000,0.007902138262992539
1184,1384.000,0.009766347759362866
1185,1385.000,0.01090970072938233
1186,1386.000,0.010756645319200488
1187,1387.000,0.007465489876128129
1188,1388.000,0.007376905291151691
1189,1389.000,0.008136306490934301
1190,1390.000,0.0077364756490359435
1191,1391.000,0.004723006260803374
1192,1392.000,0.006028516452874621
1193,1393.000,0.0035045886531768463
1194,1394.000,0.005070796787588187
1195,1395.000,0.005163477736590754
1196,1396.000,0.00581607364659258
1197,1397.000,0.004877685116130211
1198,1398.000,0.007594609769864244
1199,1399.000,0.008644025221531453
1200,1400.000,0.00913018414611874
1201,1401.000,0.007710593464042896
1202,1402.000,0.008940663537334984
1203,1403.000,0.007029724586754455
1204,1404.000,0.008236495876650693
1205,1405.000,0.006728084612101728
1206,1406.000,0.005944138003488854
1207,1407.000,0.005165400678971554
1208,1408.000,0.006741319711060688
1209,1409.000,0.0074463708770166875
1210,1410.000,0.0065414614555021
1211,1411.000,0.0063078919727561815
1212,1412.000,0.00832482761146254
1213,1413.000,0.008416896835681798
1214,1414.000,0.0091129623130325
1215,1415.000,0.008175588073152981
1216,1416.000,0.010313173654225518
1217,1417.000,0.011509709905912909
1218,1418.000,0.011733806695461799
1219,1419.000,0.012790070647096984
1220,1420.000,0.013631021098346598
1221,1421.000,0.016368760481278104
1222,1422.000,0.017324353588916052
1223,1423.000,0.01775773403030983
1224,1424.000,0.01980313285094591
1225,1425.000,0.02070319001899571
1226,1426.000,0.02289019807214128
1227,1427.000,0.021873896680681768
1228,1428.000,0.020244528588557215
1229,1429.000,0.02272064548934549
1230,1430.000,0.027023160789956084
1231,1431.000,0.03156546538559038
1232,1432.000,0.03281082876920905
1233,1433.000,0.03720638560590797
1234,1434.000,0.042192594452503875
1235,1435.000,0.04648402310621839
1236,1436.000,0.05180976676632219
1237,1437.000,0.05911211027539482
1238,1438.000,0.06680375528201749
1239,1439.000,0.07734684004811442
1240,1440.000,0.09041527446562879
1241,1441.000,0.10418875512914823
1242,1442.000,0.11673924972069143
1243,1443.000,0.13347429887352538
1244,1444.000,0.15065161227029694
1245,1445.000,0.17167895303382458
1246,1446.000,0.1936685757021194
1247,1447.000,0.2165821404079451
1248,1448.000,0.23286402155573352
1249,1449.000,0.2456973974631909
1250,1450.000,0.25324143380731257
1251,1451.000,0.2516867939568056
1252,1452.000,0.23620411979892428
1253,1453.000,0.2160923482145934
1254,1454.000,0.19483993294828267
1255,1455.000,0.17098432326906948
1256,1456.000,0.14818565594075683
1257,1457.000,0.1273030964415537
1258,1458.000,0.10792449235821128
1259,1459.000,0.09490482348810217
1260,1460.000,0.0857848589390363
1261,1461.000,0.0769283141704974
1262,1462.000,0.06414092136346516
1263,1463.000,0.05637324223278123
1264,1464.000,0.05155255985777576
1265,1465.000,0.04507094019647345
1266,1466.000,0.03784120301584888
1267,1467.000,0.03381112850028731
1268,1468.000,0.028753454944188857
1269,1469.000,0.025163122701465306
1270,1470.000,0.024097011572221914
1271,1471.000,0.023504359927164677
1272,1472.000,0.02262389476280253
1273,1473.000,0.022518352370868647
1274,1474.000,0.023660996759245285
1275,1475.000,0.020792979998267302
1276,1476.000,0.018798265821174175
1277,1477.000,0.020233145857380546
1278,1478.000,0.016257132539618642
1279,1479.000,0.01563522877245607
1280,1480.000,0.014057874540344737
1281,1481.000,0.013078385069768913
1282,1482.000,0.014198608849804931
1283,1483.000,0.015492466174024748
1284,1484.000,0.016386872549404866
1285,1485.000,0.012998576723150407
1286,1486.000,0.013108056637647851
1287,1487.000,0.013544703110687645
1288,1488.000,0.010128416749743402
1289,1489.000,0.010162065245554207
1290,1490.000,0.007213419153761431
1291,1491.000,0.005811361226349829
1292,1492.000,0.006128970471444709
1293,1493.000,0.006356868104343083
1294,1494.000,0.005585605912821037
1295,1495.000,0.004056865018492683
1296,1496.000,0.00559220112303651
1297,1497.000,0.007404448638751304
1298,1498.000,0.00856676076357577
1299,1499.000,0.010419921354660423
1300,1500.000,0.010041809019158937
1301,1501.000,0.007636837790402852
1302,1502.000,0.007716574978206129
1303,1503.000,0.007369589895071973
1304,1504.000,0.0060079104716911766
1305,1505.000,0.004839291479276204
1306,1506.000,0.004746236236410568
1307,1507.000,0.004482798359150965
1308,1508.000,0.004741156956041042
1309,1509.000,0.002466001838428049
1310,1510.000,0.003344593108788122
1311,1511.000,0.0029242399038254883
1312,1512.000,0.0051693579675375
1313,1513.000,0.005054219845105158
1314,1514.000,0.0063031749820678905
1315,1515.000,0.006220449070713411
1316,1516.000,0.005447043943833289
1317,1517.000,0.005695002664195937
1318,1518.000,0.004315561945401939
1319,1519.000,0.002496661052973278
1320,1520.000,0.005195417433771024
1321,1521.000,0.005875878229521786
1322,1522.000,0.007765141357480297
1323,1523.000,0.008170655646181486
1324,1524.000,0.010966860754021238
1325,1525.000,0.012949373291739492
1326,1526.000,0.013433169220135759
1327,1527.000,0.012385176972348623
1328,1528.000,0.010149953743207967
1329,1529.000,0.008461821965519601
1330,1530.000,0.008838134158344653
1331,1531.000,0.006955078700188662
1332,1532.000,0.008365654183556353
1333,1533.000,0.007856347774480202
1334,1534.000,0.007212666270421177
1335,1535.000,0.007879561489551025
1336,1536.000,0.007071949548029648
1337,1537.000,0.005773676576394742
1338,1538.000,0.00609304518523052
1339,1539.000,0.007880693266480597
1340,1540.000,0.01040503656575097
1341,1541.000,0.010837795330660595
1342,1542.000,0.011637249849351373
1343,1543.000,0.011100658552588164
1344,1544.000,0.011580251868155393
1345,1545.000,0.010373573032296675
1346,1546.000,0.010528123371258977
1347,1547.000,0.01097702926105919
1348,1548.000,0.01104305277101501
1349,1549.000,0.011209345254685863
1350,1550.000,0.011819989689791673
1351,1551.000,0.011636849581729773
1352,1552.000,0.010475349796795048
1353,1553.000,0.009199195052343003
1354,1554.000,0.011638302610029804
1355,1555.000,0.01114617301069785
1356,1556.000,0.014556388636316126
1357,1557.000,0.015031045992231866
1358,1558.000,0.01772382713004532
1359,1559.000,0.02038323283197408
1360,1560.000,0.022386000587850362
1361,1561.000,0.02257943771240863
1362,1562.000,0.026223621836508264
1363,1563.000,0.028432077067085188
1364,1564.000,0.031880959887076114
1365,1565.000,0.03393238242289586
1366,1566.000,0.03360293754168684
1367,1567.000,0.033419787796969955
1368,1568.000,0.035752166087157464
1369,1569.000,0.03646400702417746
1370,1570.000,0.037537013114210246
1371,1571.000,0.040672230935254794
1372,1572.000,0.05065291311377907
1373,1573.000,0.06009742750706073
1374,1574.000,0.06991698617147139
1375,1575.000,0.08281813215316328
1376,1576.000,0.09676544144180821
1377,1577.000,0.1169271012007618
1378,1578.000,0.1408462683711317
1379,1579.000,0.16699229323704218
1380,1580.000,0.19797537891309885
1381,1581.000,0.22450875340063248
1382,1582.000,0.24486570247983305
1383,1583.000,0.2526745830993131
1384,1584.000,0.2485366697251861
1385,1585.000,0.2341236232399477
1386,1586.000,0.21237418737231342
1387,1587.000,0.19017044356334484
1388,1588.000,0.1700646109411343
1389,1589.000,0.15352354154110123
1390,1590.000,0.1466957216356804
1391,1591.000,0.1468716860237981
1392,1592.000,0.15179450865211866
1393,1593.000,0.1623817913571477
1394,1594.000,0.17938250073881312
1395,1595.000,0.20825358155275406
1396,1596.000,0.2539912009851836
1397,1597.000,0.32142572992970436
1398,1598.000,0.40774803108737834
1399,1599.000,0.5055533470446244
1400,1600.000,0.5964740301473125
1401,1601.000,0.6574226943000486
1402,1602.000,0.675124228241515
1403,1603.000,0.651452772391233
1404,1604.000,0.585973628946843
1405,1605.000,0.4952723475738639
1406,1606.000,0.39670128774053354
1407,1607.000,0.30674933746209476
1408,1608.000,0.23482848125157604
1409,1609.000,0.18671374740141888
1410,1610.000,0.1504308577609837
1411,1611.000,0.12152158873297784
1412,1612.000,0.10009439101628384
1413,1613.000,0.08459815187836668
1414,1614.000,0.0701752679017774
1415,1615.000,0.06022836678467612
1416,1616.000,0.054463520712360304
1417,1617.000,0.04857614077256341
1418,1618.000,0.04280096351034655
1419,1619.000,0.03953109203794468
1420,1620.000,0.03516638732404506
1421,1621.000,0.03403003512637347
1422,1622.000,0.031081616412635227
1423,1623.000,0.02851860760172408
1424,1624.000,0.025786631231018868
1425,1625.000,0.024469744284484746
1426,1626.000,0.024882067268026803
1427,1627.000,0.02258703042688257
1428,1628.000,0.022154417385188356
1429,1629.000,0.018913542950042585
1430,1630.000,0.017300213254816236
1431,1631.000,0.016751655037650016
1432,1632.000,0.012597109175045728
1433,1633.000,0.012197649575581499
1434,1634.000,0.0127355677360591
1435,1635.000,0.011739991021391342
1436,1636.000,0.011267672622853614
1437,1637.000,0.011411636307983464
1438,1638.000,0.01204178201296917
1439,1639.000,0.011018893436498083
1440,1640.000,0.011991570568922805
1441,1641.000,0.012202784733673254
1442,1642.000,0.009816633315295255
1443,1643.000,0.00846344267385735
1444,1644.000,0.008229375170754224
1445,1645.000,0.0062704517659198785
1446,1646.000,0.00495127918077076
1447,1647.000,0.007351909241800929
1448,1648.000,0.008825679965423898
1449,1649.000,0.009990010920819702
1450,1650.000,0.011474902734926599
1451,1651.000,0.010980156756485945
1452,1652.000,0.00960344976549933
1453,1653.000,0.0061621250589459844
1454,1654.000,0.00655050464839737
1455,1655.000,0.005979125102010875
1456,1656.000,0.005150999380046631
1457,1657.000,0.00548425371385706
1458,1658.000,0.006744740362803012
1459,1659.000,0.007223603568258897
1460,1660.000,0.006675100214805245
1461,1661.000,0.006653397070446803
1462,1662.000,0.006520127760729798
1463,1663.000,0.005015641211871693
1464,1664.000,0.005339592899122571
1465,1665.000,0.0039010180035949013
1466,1666.000,0.003911267451528779
1467,1667.000,0.003391281130141063
1468,1668.000,0.004641733926935336
1469,1669.000,0.004575982781346165
1470,1670.000,0.004590950244184513
1471,1671.000,0.00750384810177409
1472,1672.000,0.00822586410008779
1473,1673.000,0.007762693372841299
1474,1674.000,0.005484860107182469
1475,1675.000,0.005645846011716056
1476,1676.000,0.006608406943971246
1477,1677.000,0.005424905856946077
1478,1678.000,0.005040898436639044
1479,1679.000,0.004576193387006717
1480,1680.000,0.005826417097676017
1481,1681.000,0.0068800215803603215
1482,1682.000,0.005749054357255205
1483,1683.000,0.0038319119207482857
1484,1684.000,0.002916426293691704
1485,1685.000,0.005764219971900108
1486,1686.000,0.005451566696529829
1487,1687.000,0.0060486895493692934
1488,1688.000,0.005711035936772746
1489,1689.000,0.006882401389485422
1490,1690.000,0.008043321499778237
1491,1691.000,0.007753812569404308
1492,1692.000,0.00621884143165102
1493,1693.000,0.003952415204529225
1494,1694.000,0.003011273179053495
1495,1695.000,0.00386165186584736
1496,1696.000,0.00588988755029798
1497,1697.000,0.008130149808834594
1498,1698.000,0.008387250763271526
1499,1699.000,0.009224477171401898
1500,1700.000,0.00937684134028449
1501,1701.000,0.007744250271091176
1502,1702.000,0.006122669225216158
1503,1703.000,0.003357207435349854
1504,1704.000,0.0014380823030324375
1505,1705.000,0.0020221566647709403
1506,1706.000,0.002702330690711062
1507,1707.000,0.002610807563162649
1508,1708.000,0.0022234656674787003
1509,1709.000,0.0013661798157065506
1510,1710.000,0.0014239766241435612
1511,1711.000,0.0009559559118853076
1512,1712.000,0.0024262880609498385
1513,1713.000,0.005803755815497395
1514,1714.000,0.007703811260627582
1515,1715.000,0.0073973657276183375
1516,1716.000,0.0096286865573237
1517,1717.000,0.010827699647934388
1518,1718.000,0.009689295367886524
1519,1719.000,0.008942789958439399
1520,1720.000,0.0067695438864166626
1521,1721.000,0.006072800465613048
1522,1722.000,0.005858949549786085
1523,1723.000,0.00637758838638661
1524,1724.000,0.005008505226578921
1525,1725.000,0.003209579238709823
1526,1726.000,0.0037127699746176356
1527,1727.000,0.0026535499994722184
1528,1728.000,0.002524291854169493
1529,1729.000,0.0032836398012741287
1530,1730.000,0.0022007812242219272
1531,1731.000,0.0039058208972378144
1532,1732.000,0.006521220868667793
1533,1733.000,0.008055665430300259
1534,1734.000,0.00846453468681903
1535,1735.000,0.008467121626531198
1536,1736.000,0.006633060110053034
1537,1737.000,0.006202177411229546
1538,1738.000,0.006282473526028262
1539,1739.000,0.005456906336609771
1540,1740.000,0.0036932278876449557
1541,1741.000,0.003465366648564389
1542,1742.000,0.003744365798295181
1543,1743.000,0.0035324589815016356
1544,1744.000,0.0026319486724520826
1545,1745.000,0.0036702610285107742
1546,1746.000,0.003655823590548751
1547,1747.000,0.004132575445164957
1548,1748.000,0.004808201713574756
1549,1749.000,0.004970826816651325
1550,1750.000,0.0033922439851845356
1551,1751.000,0.0021678430868732447
1552,1752.000,0.0029983779366986344
1553,1753.000,0.00545679339888244
1554,1754.000,0.007249266911740488
1555,1755.000,0.00843463772584605
1556,1756.000,0.008821373610980145
1557,1757.000,0.009670300601275971
1558,1758.000,0.009684826031013203
1559,1759.000,0.007499785153328972
1560,1760.000,0.0050917353552981616
1561,1761.000,0.0027576492270525834
1562,1762.000,0.004541127434113542
1563,1763.000,0.004964290696661188
1564,1764.000,0.005046883339916112
1565,1765.000,0.0028825354560415625
1566,1766.000,0.004112212902687925
1567,1767.000,0.00571161515018047
1568,1768.000,0.005531184377539998
1569,1769.000,0.0046889532418846
1570,1770.000,0.0031053080706640083
1571,1771.000,0.00325635526198775
1572,1772.000,0.005353653979846093
1573,1773.000,0.007234163111430991
1574,1774.000,0.008614399688482394
1575,1775.000,0.006655163035894608
1576,1776.000,0.008608135715206798
1577,1777.000,0.009357856814407593
1578,1778.000,0.010551850878497561
1579,1779.000,0.011148593407130602
1580,1780.000,0.009250229337819651
1581,1781.000,0.009468045096017584
1582,1782.000,0.010783544568310889
1583,1783.000,0.011070646681534364
1584,1784.000,0.010081555972230613
1585,1785.000,0.006507262332262388
1586,1786.000,0.00802511807299823
1587,1787.000,0.009213886643230303
1588,1788.000,0.011394636532286286
1589,1789.000,0.010765295791230247
1590,1790.000,0.009854505439466792
1591,1791.000,0.00829803007565267
1592,1792.000,0.008124504398813681
1593,1793.000,0.007611402203667059
1594,1794.000,0.006907936456481089
1595,1795.000,0.005191687919674204
1596,1796.000,0.005778566653551008
1597,1797.000,0.006714872600344649
1598,1798.000,0.006931825031301312
1599,1799.000,0.0074077492009610845
1600,1800.000,0.008624618844536426
1601,1801.000,0.009215261663809898
1602,1802.000,0.01035376462003645
1603,1803.000,0.010635583081134348
1604,1804.000,0.010356821338838812
1605,1805.000,0.008094755550202056
1606,1806.000,0.006357301633522482
1607,1807.000,0.006567990577851865
1608,1808.000,0.006691735699878616
1609,1809.000,0.007522782718734489
1610,1810.000,0.007505327807728642
1611,1811.000,0.008320769450652953
1612,1812.000,0.0073873776203987815
1613,1813.000,0.005816158565950218
1614,1814.000,0.00656007784295363
1615,1815.000,0.00476771594503352
1616,1816.000,0.004702565003398247
1617,1817.000,0.005014092228124944
1618,1818.000,0.005194645286598992
1619,1819.000,0.00410668569149057
1620,1820.000,0.005082420845635749
1621,1821.000,0.004622944737377186
1622,1822.000,0.004060111817109614
1623,1823.000,0.004231173682988589
1624,1824.000,0.006708771691871967
1625,1825.000,0.007033235916488581
1626,1826.000,0.007816444439749179
1627,1827.000,0.007991919075388269
1628,1828.000,0.009945937635733672
1629,1829.000,0.011449933129039453
1630,1830.000,0.012540253200708458
1631,1831.000,0.010468388610875056
1632,1832.000,0.010566295719969386
1633,1833.000,0.008918616652982686
1634,1834.000,0.00716157580310775
1635,1835.000,0.007027726824822589
1636,1836.000,0.007428459902548224
1637,1837.000,0.007985862128078475
1638,1838.000,0.010895027292639359
1639,1839.000,0.010895620836003376
1640,1840.000,0.009929607318103972
1641,1841.000,0.008003742284149774
1642,1842.000,0.00818635989271127
1643,1843.000,0.006662480729191414
1644,1844.000,0.004244123657653134
1645,1845.000,0.008576803437932616
1646,1846.000,0.010344758465835668
1647,1847.000,0.011804927634146
1648,1848.000,0.01224354959928557
1649,1849.000,0.009847323718121612
1650,1850.000,0.009956233244335803
1651,1851.000,0.0076607872609308824
1652,1852.000,0.0068440826398191565
1653,1853.000,0.00567982091964001
1654,1854.000,0.0049348335029182145
1655,1855.000,0.0067781159936080235
1656,1856.000,0.00648615280624144
1657,1857.000,0.007871392155727727
1658,1858.000,0.008772901429559507
1659,1859.000,0.012098430401607532
1660,1860.000,0.013659729650743305
1661,1861.000,0.01482729097678895
1662,1862.000,0.017053405278985596
1663,1863.000,0.016902096742438928
1664,1864.000,0.01437780933251455
1665,1865.000,0.010358537711942378
1666,1866.000,0.008904486182993554
1667,1867.000,0.008117294728599437
1668,1868.000,0.009192009924166597
1669,1869.000,0.008596246964444802
1670,1870.000,0.008862714071819995
1671,1871.000,0.012445350471006433
1672,1872.000,0.015043104087099092
1673,1873.000,0.014744659900962926
1674,1874.000,0.011726399160928045
1675,1875.000,0.011879832056971048
1676,1876.000,0.012078341570355478
1677,1877.000,0.010813879261208983
1678,1878.000,0.010292408482404572
1679,1879.000,0.005670100950889567
1680,1880.000,0.006350925611684327
1681,1881.000,0.008765013564925178
1682,1882.000,0.009363405679444284
1683,1883.000,0.0094751410542674
1684,1884.000,0.008065920371417559
1685,1885.000,0.008751687885749843
1686,1886.000,0.0072338709321646474
1687,1887.000,0.008170961732723286
1688,1888.000,0.0072406895569836
1689,1889.000,0.006140887638883985
1690,1890.000,0.006341553664009328
1691,1891.000,0.009502331036315084
1692,1892.000,0.010995799612320913
1693,1893.000,0.013476177239919456
1694,1894.000,0.012778536588606145
1695,1895.000,0.012543005560065483
1696,1896.000,0.012239881746996797
1697,1897.000,0.010761948568532647
1698,1898.000,0.008903012626171505
1699,1899.000,0.00869427906792393
1700,1900.000,0.0066394036664392045
1701,1901.000,0.006558900652396099
1702,1902.000,0.00824419273750319
1703,1903.000,0.010130995652292875
1704,1904.000,0.010948927689393319
1705,1905.000,0.011578545624093398
1706,1906.000,0.010168737867282484
1707,1907.000,0.007832404685969952
1708,1908.000,0.006480924061372548
1709,1909.000,0.006347838295191957
1710,1910.000,0.0062628661158405565
1711,1911.000,0.006117340364243156
1712,1912.000,0.007655092535851607
1713,1913.000,0.009734157007076328
1714,1914.000,0.009645875845504684
1715,1915.000,0.008955763398069888
1716,1916.000,0.009178008226551305
1717,1917.000,0.010661815112512605
1718,1918.000,0.010605910921561528
1719,1919.000,0.012775951797838905
1720,1920.000,0.01275869536193453
1721,1921.000,0.012465022313154604
1722,1922.000,0.014391886323382069
1723,1923.000,0.013753038941727105
1724,1924.000,0.012853398549082271
1725,1925.000,0.012354924575936715
1726,1926.000,0.01138372990933631
1727,1927.000,0.011477491664993204
1728,1928.000,0.011876087895348487
1729,1929.000,0.011679041832932079
1730,1930.000,0.009684811794752272
1731,1931.000,0.010274913921257272
1732,1932.000,0.013234968540233783
1733,1933.000,0.013370030491047645
1734,1934.000,0.016151946875833746
1735,1935.000,0.01688493523978677
1736,1936.000,0.01436418026954755
1737,1937.000,0.015274408966606007
1738,1938.000,0.015853640420338124
1739,1939.000,0.014411766321644906
1740,1940.000,0.012319086704003121
1741,1941.000,0.013858252546139945
1742,1942.000,0.013780516740944925
1743,1943.000,0.015303164777166825
1744,1944.000,0.017656427926562027
1745,1945.000,0.018059777273315404
1746,1946.000,0.01450763343980712
1747,1947.000,0.012174824144370338
1748,1948.000,0.010601298893627131
1749,1949.000,0.009005313908112492
1750,1950.000,0.008712109223318366
1751,1951.000,0.010915308525439819
1752,1952.000,0.011367173543230814
1753,1953.000,0.014972905642816732
1754,1954.000,0.015606294420153257
1755,1955.000,0.013927570544409906
1756,1956.000,0.013152267242854166
1757,1957.000,0.01220341031699272
1758,1958.000,0.012720046448406701
1759,1959.000,0.013397726371844781
1760,1960.000,0.014097521918284433
1761,1961.000,0.015578272897017492
1762,1962.000,0.016704576825300046
1763,1963.000,0.016984909566981756
1764,1964.000,0.016422952864435136
1765,1965.000,0.015715322269532317
1766,1966.000,0.015556569820008399
1767,1967.000,0.014755980654485938
1768,1968.000,0.012310780113128564
1769,1969.000,0.009369655528054395
1770,1970.000,0.007510429855447347
1771,1971.000,0.006392143852971381
1772,1972.000,0.00817664538149197
1773,1973.000,0.0092860986647802
1774,1974.000,0.010929488589189528
1775,1975.000,0.012608316920382263
1776,1976.000,0.013729584430289064
1777,1977.000,0.015260483447597143
1778,1978.000,0.01552983118243334
1779,1979.000,0.013826060076315478
1780,1980.000,0.014273048581305105
1781,1981.000,0.012661534755526749
1782,1982.000,0.014798807801151094
1783,1983.000,0.014252509913316272
1784,1984.000,0.013030128838527338
1785,1985.000,0.012308534821174048
1786,1986.000,0.009522665360400376
1787,1987.000,0.009089333644128573
1788,1988.000,0.006715405134731992
1789,1989.000,0.005761021223000754
1790,1990.000,0.0075824550893595615
1791,1991.000,0.00766609187868761
1792,1992.000,0.010086126980263295
1793,1993.000,0.01139364022081392
1794,1994.000,0.012209635883304568
1795,1995.000,0.010981914909280098
1796,1996.000,0.008795513115636403
1797,1997.000,0.007367929386512877
1798,1998.000,0.007587854972414677
1799,1999.000,0.010343981123846954
1800,2000.000,0.016524999091314854
