raman_shift_cm-1,intensity
200.000000,0.003107509447
201.000000,0.002952370249
202.000000,0.003417466009
203.000000,0.003095171446
204.000000,0.002709643426
205.000000,0.003249826596
206.000000,0.003817182834
207.000000,0.003602401427
208.000000,0.002608749174
209.000000,0.002270707362
210.000000,0.002657322508
211.000000,0.003057454048
212.000000,0.001633078222
213.000000,0.002901015895
214.000000,0.002282805028
215.000000,0.002592068489
216.000000,0.002705313746
217.000000,0.002842607881
218.000000,0.003280864286
219.000000,0.003660702398
220.000000,0.002955854921
221.000000,0.003855854632
222.000000,0.002632957175
223.000000,0.003245045373
224.000000,0.003577377424
225.000000,0.003090193979
226.000000,0.002586123846
227.000000,0.002478916021
228.000000,0.002758301265
229.000000,0.003166458562
230.000000,0.002426241151
231.000000,0.002908152185
232.000000,0.002938299273
233.000000,0.003359791515
234.000000,0.003163520971
235.000000,0.003248304928
236.000000,0.002640889324
237.000000,0.002956525798
238.000000,0.003506549466
239.000000,0.003933693943
240.000000,0.002276890341
241.000000,0.003946195561
242.000000,0.003845121276
243.000000,0.003505361861
244.000000,0.003194321293
245.000000,0.002846247189
246.000000,0.003912967772
247.000000,0.004215379763
248.000000,0.004119981918
249.000000,0.003827198086
250.000000,0.003250777023
251.000000,0.002308380902
252.000000,0.003033145168
253.000000,0.003431085864
254.000000,0.002260466757
255.000000,0.00327394299
256.000000,0.003294947055
257.000000,0.003455267185
258.000000,0.002323582358
259.000000,0.002638147061
260.000000,0.002773841803
261.000000,0.002332480108
262.000000,0.004083771534
263.000000,0.002738323702
264.000000,0.003234962447
265.000000,0.002881383308
266.000000,0.003990313525
267.000000,0.003832028897
268.000000,0.003418577187
269.000000,0.001711005051
270.000000,0.0030688433
271.000000,0.003449174284
272.000000,0.003642067255
273.000000,0.00266587252
274.000000,0.004134702058
275.000000,0.002243187739
276.000000,0.002639922815
277.000000,0.003601099212
278.000000,0.003067872359
279.000000,0.004243804515
280.000000,0.003152035829
281.000000,0.002657506182
282.000000,0.002811492591
283.000000,0.002382054467
284.000000,0.002269877969
285.000000,0.003418578093
286.000000,0.003389044861
287.000000,0.003818588545
288.000000,0.002585190413
289.000000,0.004056315064
290.000000,0.002866662411
291.000000,0.003987499108
292.000000,0.002779368561
293.000000,0.002597273566
294.000000,0.003190480382
295.000000,0.003661128879
296.000000,0.003137277283
297.000000,0.002688012148
298.000000,0.00223323845
299.000000,0.002197061145
300.000000,0.003343432576
301.000000,0.003636726882
302.000000,0.002942186876
303.000000,0.002394487715
304.000000,0.003566869648
305.000000,0.002270718781
306.000000,0.002612352196
307.000000,0.003415543621
308.000000,0.001687356778
309.000000,0.003274554635
310.000000,0.002691984491
311.000000,0.003108021443
312.000000,0.002996803654
313.000000,0.003164171128
314.000000,0.003460503985
315.000000,0.002586271561
316.000000,0.003898286075
317.000000,0.003480130992
318.000000,0.00355108384
319.000000,0.003744531584
320.000000,0.003517568956
321.000000,0.003551716297
322.000000,0.003089264449
323.000000,0.002185047631
324.000000,0.002962759423
325.000000,0.002580982644
326.000000,0.002187915753
327.000000,0.003200072935
328.000000,0.002702403154
329.000000,0.002424898922
330.000000,0.002417108036
331.000000,0.003206680343
332.000000,0.003261165361
333.000000,0.003841480065
334.000000,0.003037198641
335.000000,0.003672877301
336.000000,0.00388999847
337.000000,0.003738407328
338.000000,0.001622406914
339.000000,0.003785999699
340.000000,0.003250986997
341.000000,0.003301809896
342.000000,0.003270349444
343.000000,0.003277460059
344.000000,0.003239501942
345.000000,0.002831350639
346.000000,0.001902871998
347.000000,0.002982189891
348.000000,0.002564117068
349.000000,0.00369832133
350.000000,0.002874464288
351.000000,0.003098720434
352.000000,0.002537228969
353.000000,0.002741468218
354.000000,0.003042086092
355.000000,0.002155084492
356.000000,0.003230407654
357.000000,0.002985749253
358.000000,0.002336041227
359.000000,0.001606355561
360.000000,0.003359023305
361.000000,0.002871254091
362.000000,0.002731545708
363.000000,0.00290863633
364.000000,0.004144437913
365.000000,0.003021225234
366.000000,0.003103553282
367.000000,0.002156468151
368.000000,0.004043464089
369.000000,0.003604339526
370.000000,0.003694517121
371.000000,0.003081183516
372.000000,0.003604494988
373.000000,0.00327622519
374.000000,0.003422270188
375.000000,0.002961770295
376.000000,0.002166395831
377.000000,0.003673172769
378.000000,0.001889316868
379.000000,0.002909885666
380.000000,0.002931442709
381.000000,0.002427040603
382.000000,0.003424116416
383.000000,0.002934698859
384.000000,0.002792561732
385.000000,0.003368712297
386.000000,0.002769163506
387.000000,0.003892407875
388.000000,0.003268121482
389.000000,0.002771294421
390.000000,0.001886722798
391.000000,0.00227014385
392.000000,0.003711852707
393.000000,0.003027438865
394.000000,0.002887747756
395.000000,0.00404762454
396.000000,0.002286638993
397.000000,0.00270648414
398.000000,0.002774836561
399.000000,0.003412556706
400.000000,0.002660481927
401.000000,0.002690949234
402.000000,0.002094271041
403.000000,0.003499845947
404.000000,0.00354637932
405.000000,0.002774671614
406.000000,0.003160070176
407.000000,0.002283948184
408.000000,0.00277837847
409.000000,0.003892185484
410.000000,0.003144752871
411.000000,0.004454124838
412.000000,0.002589866534
413.000000,0.003413373128
414.000000,0.002946727748
415.000000,0.003405364011
416.000000,0.003060780704
417.000000,0.002727664526
418.000000,0.002543578306
419.000000,0.004911840326
420.000000,0.003020031718
421.000000,0.001853024614
422.000000,0.002676922286
423.000000,0.003475891917
424.000000,0.002767150231
425.000000,0.003887463502
426.000000,0.003672337448
427.000000,0.002977643676
428.000000,0.002785505371
429.000000,0.002465331496
430.000000,0.002649254268
431.000000,0.002184265819
432.000000,0.003796467878
433.000000,0.004029449601
434.000000,0.002316222131
435.000000,0.002361495957
436.000000,0.00200871116
437.000000,0.002493548681
438.000000,0.001204339295
439.000000,0.002387099856
440.000000,0.003855879291
441.000000,0.002867605799
442.000000,0.003590611429
443.000000,0.002782358514
444.000000,0.00413706089
445.000000,0.003197658838
446.000000,0.002848320874
447.000000,0.004615261057
448.000000,0.002884039724
449.000000,0.002344789655
450.000000,0.003202020387
451.000000,0.003057675515
452.000000,0.003723517029
453.000000,0.002527441635
454.000000,0.003567232266
455.000000,0.003596755285
456.000000,0.002682137166
457.000000,0.003182952258
458.000000,0.002585248648
459.000000,0.004498053342
460.000000,0.002662775002
461.000000,0.002814577299
462.000000,0.002446402491
463.000000,0.002880335779
464.000000,0.003085855015
465.000000,0.003552286657
466.000000,0.002723353363
467.000000,0.002979755294
468.000000,0.0022396726
469.000000,0.002595047137
470.000000,0.004752770164
471.000000,0.003721471655
472.000000,0.002625114091
473.000000,0.002291267302
474.000000,0.002509904797
475.000000,0.003084963331
476.000000,0.003119796827
477.000000,0.002651706789
478.000000,0.002326221899
479.000000,0.003957818811
480.000000,0.003374442453
481.000000,0.002878030747
482.000000,0.002971652634
483.000000,0.002786722128
484.000000,0.001339117532
485.000000,0.003177151647
486.000000,0.002464162349
487.000000,0.002506089313
488.000000,0.002725352093
489.000000,0.003552700436
490.000000,0.002408422288
491.000000,0.002250826092
492.000000,0.00350056195
493.000000,0.00357071726
494.000000,0.002540629177
495.000000,0.003457680893
496.000000,0.002944893789
497.000000,0.003303141079
498.000000,0.002364093054
499.000000,0.003625897452
500.000000,0.003850265679
501.000000,0.003510903301
502.000000,0.003465000647
503.000000,0.0008596805141
504.000000,0.003288881234
505.000000,0.003118276664
506.000000,0.003046717853
507.000000,0.002757331343
508.000000,0.003171961083
509.000000,0.003388475146
510.000000,0.002983417475
511.000000,0.002865160308
512.000000,0.003886224381
513.000000,0.002482533131
514.000000,0.003770031063
515.000000,0.00325841234
516.000000,0.002669933673
517.000000,0.00298170514
518.000000,0.002604694915
519.000000,0.003567144475
520.000000,0.003372563062
521.000000,0.002830397027
522.000000,0.002504569571
523.000000,0.003352244705
524.000000,0.003749571682
525.000000,0.003107461914
526.000000,0.003430619501
527.000000,0.00295532458
528.000000,0.0032253279
529.000000,0.003012384286
530.000000,0.003367892417
531.000000,0.002285341142
532.000000,0.003585310242
533.000000,0.003062610698
534.000000,0.003420488496
535.000000,0.003003491984
536.000000,0.003405037715
537.000000,0.002570539168
538.000000,0.003936119178
539.000000,0.002199105413
540.000000,0.002603411272
541.000000,0.003375433147
542.000000,0.004118893815
543.000000,0.003410675773
544.000000,0.003099143357
545.000000,0.002395845454
546.000000,0.003144072383
547.000000,0.003252990477
548.000000,0.004288580363
549.000000,0.003651641097
550.000000,0.002363175511
551.000000,0.004510409211
552.000000,0.003059633364
553.000000,0.002775359625
554.000000,0.004200206845
555.000000,0.003290488651
556.000000,0.003107657837
557.000000,0.003469286449
558.000000,0.003855355467
559.000000,0.003954336916
560.000000,0.002538669396
561.000000,0.004580077985
562.000000,0.003958177293
563.000000,0.003171647071
564.000000,0.002919428889
565.000000,0.002841898891
566.000000,0.003513154761
567.000000,0.003063250738
568.000000,0.003008168424
569.000000,0.003973073857
570.000000,0.003721282174
571.000000,0.003282437147
572.000000,0.003981176914
573.000000,0.00438274225
574.000000,0.00292255816
575.000000,0.003241431469
576.000000,0.004196752736
577.000000,0.004088554207
578.000000,0.003820555683
579.000000,0.004414172971
580.000000,0.003091983668
581.000000,0.002891731011
582.000000,0.00329830618
583.000000,0.003934491684
584.000000,0.003425685545
585.000000,0.003659512185
586.000000,0.003417951434
587.000000,0.003688110438
588.000000,0.0035186968
589.000000,0.004412582511
590.000000,0.004744384986
591.000000,0.004058759189
592.000000,0.00431389135
593.000000,0.004189447687
594.000000,0.004970874681
595.000000,0.004829657089
596.000000,0.005875818474
597.000000,0.004414657259
598.000000,0.005470986515
599.000000,0.005723309063
600.000000,0.00547157189
601.000000,0.006307303514
602.000000,0.005399852925
603.000000,0.00790235664
604.000000,0.006243322048
605.000000,0.008107317726
606.000000,0.007479132978
607.000000,0.009571053918
608.000000,0.009529484214
609.000000,0.01094456623
610.000000,0.01223819768
611.000000,0.01458121291
612.000000,0.01591192331
613.000000,0.01714045227
614.000000,0.02213088004
615.000000,0.02744070102
616.000000,0.03308487125
617.000000,0.04105662699
618.000000,0.04893829767
619.000000,0.05462554871
620.000000,0.05636785006
621.000000,0.05554888769
622.000000,0.04898142228
623.000000,0.04041666214
624.000000,0.03462382968
625.000000,0.02712600205
626.000000,0.02191098465
627.000000,0.01884100625
628.000000,0.01676374327
629.000000,0.01336495243
630.000000,0.01339247711
631.000000,0.01032256366
632.000000,0.01034985626
633.000000,0.009221451766
634.000000,0.008077912134
635.000000,0.008221928618
636.000000,0.006167440903
637.000000,0.007464433089
638.000000,0.006248984037
639.000000,0.005652291808
640.000000,0.006163531154
641.000000,0.006119329523
642.000000,0.005742689065
643.000000,0.00630549834
644.000000,0.005595827519
645.000000,0.005579023092
646.000000,0.004357760244
647.000000,0.004636282854
648.000000,0.004811817797
649.000000,0.004372881709
650.000000,0.004484396545
651.000000,0.004486158981
652.000000,0.004671373816
653.000000,0.004041429753
654.000000,0.003836693536
655.000000,0.00349798359
656.000000,0.003413322986
657.000000,0.004613132623
658.000000,0.003817114788
659.000000,0.0043053638
660.000000,0.003017108218
661.000000,0.002600270273
662.000000,0.003106618248
663.000000,0.004401569721
664.000000,0.004329389968
665.000000,0.003863151174
666.000000,0.003158809667
667.000000,0.003542799152
668.000000,0.003423487915
669.000000,0.003377490174
670.000000,0.002060162879
671.000000,0.003036891039
672.000000,0.003424482747
673.000000,0.004438248422
674.000000,0.003609532927
675.000000,0.004344186263
676.000000,0.003252791788
677.000000,0.003327244516
678.000000,0.001122278104
679.000000,0.00373928945
680.000000,0.003781103221
681.000000,0.004505411599
682.000000,0.003143130059
683.000000,0.003485732663
684.000000,0.002997728543
685.000000,0.002708171242
686.000000,0.00298117864
687.000000,0.003197366107
688.000000,0.00421592986
689.000000,0.003396673212
690.000000,0.002915135823
691.000000,0.003472409235
692.000000,0.003514281448
693.000000,0.002972859372
694.000000,0.004065001434
695.000000,0.002237299632
696.000000,0.003242915933
697.000000,0.003769522328
698.000000,0.002561478892
699.000000,0.003582847203
700.000000,0.004142129638
701.000000,0.00363566969
702.000000,0.002344126846
703.000000,0.002922374675
704.000000,0.004101927424
705.000000,0.003539361673
706.000000,0.003353711218
707.000000,0.003625323993
708.000000,0.003794098933
709.000000,0.002934134048
710.000000,0.003186558072
711.000000,0.003448386626
712.000000,0.003036138418
713.000000,0.003284694385
714.000000,0.004147971259
715.000000,0.002786037553
716.000000,0.00453054975
717.000000,0.004504467016
718.000000,0.00234441428
719.000000,0.003293849393
720.000000,0.00358819465
721.000000,0.002927337083
722.000000,0.002942969613
723.000000,0.003250162348
724.000000,0.003842337017
725.000000,0.003094198499
726.000000,0.004506531105
727.000000,0.003586765935
728.000000,0.003356093622
729.000000,0.004296225007
730.000000,0.003807203702
731.000000,0.003659284261
732.000000,0.003244861364
733.000000,0.004543787758
734.000000,0.003948650574
735.000000,0.003346144958
736.000000,0.00252833231
737.000000,0.003711949528
738.000000,0.002809269324
739.000000,0.002475762349
740.000000,0.003352262924
741.000000,0.003702065369
742.000000,0.004317732632
743.000000,0.003729684001
744.000000,0.00405966163
745.000000,0.002852306423
746.000000,0.003593461079
747.000000,0.00369968863
748.000000,0.004163043265
749.000000,0.003734253692
750.000000,0.004170197174
751.000000,0.003405979835
752.000000,0.003949931591
753.000000,0.004010973814
754.000000,0.00303769578
755.000000,0.003926612877
756.000000,0.003661425949
757.000000,0.002744042403
758.000000,0.004505995006
759.000000,0.0037533127
760.000000,0.003503655895
761.000000,0.00383921397
762.000000,0.004203538129
763.000000,0.005086997386
764.000000,0.004143922432
765.000000,0.004598941511
766.000000,0.005219247613
767.000000,0.004799450413
768.000000,0.005216511391
769.000000,0.004391901107
770.000000,0.005260342967
771.000000,0.004892618926
772.000000,0.005721636005
773.000000,0.004636855356
774.000000,0.004959665706
775.000000,0.006406409542
776.000000,0.005768958338
777.000000,0.005951615858
778.000000,0.006538734552
779.000000,0.006454002802
780.000000,0.008111810655
781.000000,0.007077297407
782.000000,0.008354000161
783.000000,0.009387911669
784.000000,0.00999836881
785.000000,0.01064431117
786.000000,0.01189869215
787.000000,0.01425223631
788.000000,0.01528837208
789.000000,0.01859972054
790.000000,0.02000742952
791.000000,0.02366560514
792.000000,0.02726333447
793.000000,0.02949803316
794.000000,0.03284111761
795.000000,0.0332514784
796.000000,0.03182607611
797.000000,0.02933969703
798.000000,0.02630240343
799.000000,0.02403485851
800.000000,0.02023411164
801.000000,0.01739579829
802.000000,0.01577729444
803.000000,0.01537604862
804.000000,0.0125985352
805.000000,0.0115976615
806.000000,0.01020157325
807.000000,0.009663790644
808.000000,0.007650704329
809.000000,0.007585750518
810.000000,0.007484149801
811.000000,0.006876186476
812.000000,0.006395521731
813.000000,0.005787056188
814.000000,0.005752786076
815.000000,0.005199123344
816.000000,0.003994700744
817.000000,0.004546674838
818.000000,0.00538712217
819.000000,0.005891880226
820.000000,0.005916127102
821.000000,0.004766366144
822.000000,0.005141610837
823.000000,0.005056559267
824.000000,0.004008592591
825.000000,0.003326553585
826.000000,0.004297650455
827.000000,0.003154965599
828.000000,0.003965389703
829.000000,0.004471224694
830.000000,0.003201958076
831.000000,0.004031802637
832.000000,0.004717948905
833.000000,0.004151488636
834.000000,0.004213557352
835.000000,0.004412862429
836.000000,0.004880506591
837.000000,0.003900957701
838.000000,0.004524373801
839.000000,0.003721916538
840.000000,0.003409717311
841.000000,0.003907471897
842.000000,0.003334173948
843.000000,0.003336032502
844.000000,0.003298583384
845.000000,0.002267166865
846.000000,0.00369794992
847.000000,0.002860155459
848.000000,0.003543738354
849.000000,0.00446934033
850.000000,0.00327188812
851.000000,0.003248956202
852.000000,0.004386634115
853.000000,0.003885506672
854.000000,0.004136118338
855.000000,0.003326623268
856.000000,0.003983545446
857.000000,0.00311342924
858.000000,0.003113269911
859.000000,0.003873282014
860.000000,0.003148777396
861.000000,0.003965759525
862.000000,0.004939083667
863.000000,0.002480175436
864.000000,0.003038505684
865.000000,0.004162055599
866.000000,0.00339724581
867.000000,0.00418061991
868.000000,0.002871096498
869.000000,0.00367627915
870.000000,0.003384189578
871.000000,0.003557582893
872.000000,0.003670936296
873.000000,0.00273601695
874.000000,0.002822865346
875.000000,0.004311022437
876.000000,0.003644764562
877.000000,0.003532037999
878.000000,0.003441480324
879.000000,0.00368285014
880.000000,0.002772839346
881.000000,0.002867949138
882.000000,0.004255453756
883.000000,0.00356234499
884.000000,0.003984430549
885.000000,0.003109515025
886.000000,0.004304554029
887.000000,0.003685601851
888.000000,0.003769594115
889.000000,0.003812572742
890.000000,0.00300506301
891.000000,0.002364524236
892.000000,0.002843617669
893.000000,0.004475318826
894.000000,0.004280197487
895.000000,0.00329205695
896.000000,0.003323163828
897.000000,0.004132850806
898.000000,0.003411810449
899.000000,0.002735649037
900.000000,0.004284352847
901.000000,0.003814835699
902.000000,0.00201815853
903.000000,0.003349910032
904.000000,0.003630730562
905.000000,0.003840015296
906.000000,0.00364826679
907.000000,0.003180624735
908.000000,0.003500559803
909.000000,0.003754926944
910.000000,0.003423680239
911.000000,0.003368996648
912.000000,0.004354755332
913.000000,0.00303976754
914.000000,0.003408109387
915.000000,0.002404988264
916.000000,0.003963003841
917.000000,0.004145976906
918.000000,0.003988009747
919.000000,0.004221121121
920.000000,0.003945333476
921.000000,0.003898019505
922.000000,0.003989416983
923.000000,0.003556003831
924.000000,0.00444555987
925.000000,0.003534294399
926.000000,0.002878314391
927.000000,0.004285203851
928.000000,0.004903440741
929.000000,0.003227828543
930.000000,0.003761735506
931.000000,0.003428169465
932.000000,0.003630334031
933.000000,0.003906659751
934.000000,0.003151760865
935.000000,0.003753432527
936.000000,0.003060391088
937.000000,0.003624104746
938.000000,0.00327660394
939.000000,0.003378640476
940.000000,0.003007660514
941.000000,0.004805117012
942.000000,0.004407097386
943.000000,0.002977478521
944.000000,0.00380508817
945.000000,0.003795126305
946.000000,0.003818956853
947.000000,0.003402042196
948.000000,0.004767338233
949.000000,0.004117413583
950.000000,0.004682410922
951.000000,0.004765196347
952.000000,0.005326391787
953.000000,0.003459316398
954.000000,0.005655008388
955.000000,0.005432435144
956.000000,0.005077716847
957.000000,0.006235886586
958.000000,0.004997360417
959.000000,0.005446396963
960.000000,0.004590836175
961.000000,0.005807628105
962.000000,0.00532191725
963.000000,0.005052708041
964.000000,0.00671012725
965.000000,0.005372818666
966.000000,0.005692073272
967.000000,0.005709543653
968.000000,0.005527406983
969.000000,0.006470036335
970.000000,0.006778383851
971.000000,0.006748637601
972.000000,0.00533594959
973.000000,0.007608280032
974.000000,0.007061604088
975.000000,0.006841487138
976.000000,0.008273100836
977.000000,0.008625839254
978.000000,0.008083956727
979.000000,0.01068119875
980.000000,0.009012529371
981.000000,0.009325019171
982.000000,0.01039714173
983.000000,0.01278781327
984.000000,0.01281102401
985.000000,0.01385569329
986.000000,0.01542929458
987.000000,0.01678027836
988.000000,0.01876578516
989.000000,0.02132214767
990.000000,0.02530981907
991.000000,0.02955879645
992.000000,0.03360578157
993.000000,0.04144789273
994.000000,0.05143323099
995.000000,0.06386282847
996.000000,0.08375503865
997.000000,0.1121886832
998.000000,0.1542546642
999.000000,0.2130624651
1000.000000,0.2751663585
1001.000000,0.3061943008
1002.000000,0.2758168289
1003.000000,0.213702535
1004.000000,0.1555426665
1005.000000,0.1133609249
1006.000000,0.0851878807
1007.000000,0.06596753112
1008.000000,0.05228286245
1009.000000,0.0436281608
1010.000000,0.03710855839
1011.000000,0.03184851589
1012.000000,0.02916369918
1013.000000,0.02507666884
1014.000000,0.02382005981
1015.000000,0.02188962896
1016.000000,0.02139457173
1017.000000,0.02030947824
1018.000000,0.02145709736
1019.000000,0.02130443267
1020.000000,0.02281443423
1021.000000,0.02281176488
1022.000000,0.02548539888
1023.000000,0.02842370762
1024.000000,0.03315595932
1025.000000,0.03946774786
1026.000000,0.04893292597
1027.000000,0.06192229572
1028.000000,0.07968219416
1029.000000,0.1015414982
1030.000000,0.1233371768
1031.000000,0.1330864925
1032.000000,0.1222898942
1033.000000,0.1010886477
1034.000000,0.07846760796
1035.000000,0.06059699462
1036.000000,0.04690425637
1037.000000,0.03733809724
1038.000000,0.02983090796
1039.000000,0.02536732873
1040.000000,0.02100494502
1041.000000,0.01897439565
1042.000000,0.01634892727
1043.000000,0.01465134382
1044.000000,0.01265604559
1045.000000,0.01250550759
1046.000000,0.01147070426
1047.000000,0.0107634481
1048.000000,0.01090209107
1049.000000,0.008946797634
1050.000000,0.009201548751
1051.000000,0.007968240036
1052.000000,0.007900973014
1053.000000,0.007550832836
1054.000000,0.007196231584
1055.000000,0.007172210138
1056.000000,0.006360169649
1057.000000,0.006359117791
1058.000000,0.006468982986
1059.000000,0.007029344859
1060.000000,0.005316511456
1061.000000,0.004596693106
1062.000000,0.005265174276
1063.000000,0.005494303175
1064.000000,0.00543882808
1065.000000,0.005291038508
1066.000000,0.005857349281
1067.000000,0.005649760154
1068.000000,0.004955771694
1069.000000,0.004631747005
1070.000000,0.00464031258
1071.000000,0.004573092236
1072.000000,0.004595118528
1073.000000,0.003731609907
1074.000000,0.004351803374
1075.000000,0.004328030687
1076.000000,0.004427708116
1077.000000,0.004348873507
1078.000000,0.004869743874
1079.000000,0.004110836021
1080.000000,0.004135242002
1081.000000,0.004695914405
1082.000000,0.004200592811
1083.000000,0.004447083531
1084.000000,0.004696131401
1085.000000,0.004525455119
1086.000000,0.004401974222
1087.000000,0.004114715544
1088.000000,0.004626587712
1089.000000,0.004306457665
1090.000000,0.003883018608
1091.000000,0.004083696761
1092.000000,0.003430162866
1093.000000,0.003574916156
1094.000000,0.003011944478
1095.000000,0.00372904777
1096.000000,0.004936549672
1097.000000,0.003793198246
1098.000000,0.004599123449
1099.000000,0.004121166879
1100.000000,0.00370105186
1101.000000,0.004929190938
1102.000000,0.004476285052
1103.000000,0.00307493081
1104.000000,0.004761379528
1105.000000,0.003494068123
1106.000000,0.004042042929
1107.000000,0.004561019068
1108.000000,0.003989734863
1109.000000,0.004856955772
1110.000000,0.004656686821
1111.000000,0.003266253429
1112.000000,0.003950224926
1113.000000,0.004425815083
1114.000000,0.00393373246
1115.000000,0.00417612573
1116.000000,0.004817042877
1117.000000,0.004558663689
1118.000000,0.00384952438
1119.000000,0.00454819808
1120.000000,0.004117959411
1121.000000,0.003802900166
1122.000000,0.003906946992
1123.000000,0.004818198527
1124.000000,0.004692918281
1125.000000,0.004784333601
1126.000000,0.004170020062
1127.000000,0.004836905261
1128.000000,0.004420816058
1129.000000,0.004596307833
1130.000000,0.005176314461
1131.000000,0.004579654163
1132.000000,0.005969257087
1133.000000,0.007237560169
1134.000000,0.006214619163
1135.000000,0.005536493357
1136.000000,0.006260175429
1137.000000,0.005786148066
1138.000000,0.006842376564
1139.000000,0.007780992745
1140.000000,0.008308439322
1141.000000,0.007900056337
1142.000000,0.009380597345
1143.000000,0.01071749606
1144.000000,0.0120791864
1145.000000,0.01183427571
1146.000000,0.01326986048
1147.000000,0.0157467941
1148.000000,0.01637896516
1149.000000,0.0208868173
1150.000000,0.02487692499
1151.000000,0.02942622214
1152.000000,0.034080998
1153.000000,0.04027494082
1154.000000,0.04419814413
1155.000000,0.04679960026
1156.000000,0.04423407358
1157.000000,0.04049725205
1158.000000,0.03526546452
1159.000000,0.03054812597
1160.000000,0.0241516105
1161.000000,0.02179624809
1162.000000,0.0195575915
1163.000000,0.01663575332
1164.000000,0.01421182457
1165.000000,0.01402098341
1166.000000,0.01305319722
1167.000000,0.01198616812
1168.000000,0.01098019367
1169.000000,0.0109670202
1170.000000,0.01115165576
1171.000000,0.01093496349
1172.000000,0.01063536459
1173.000000,0.01189415773
1174.000000,0.01317033008
1175.000000,0.01410768869
1176.000000,0.01602805742
1177.000000,0.01837217943
1178.000000,0.02185261283
1179.000000,0.02650218127
1180.000000,0.03031087865
1181.000000,0.0340612142
1182.000000,0.03745801838
1183.000000,0.04060380756
1184.000000,0.03891694998
1185.000000,0.03383781199
1186.000000,0.0294736929
1187.000000,0.0239544437
1188.000000,0.02058580759
1189.000000,0.01693188118
1190.000000,0.01487585405
1191.000000,0.01166050311
1192.000000,0.01094550851
1193.000000,0.00993904034
1194.000000,0.008229806181
1195.000000,0.009461445621
1196.000000,0.007382891766
1197.000000,0.008033039262
1198.000000,0.00636891603
1199.000000,0.006269944139
1200.000000,0.006814371158
1201.000000,0.00602151317
1202.000000,0.005726791455
1203.000000,0.005573264038
1204.000000,0.004417310426
1205.000000,0.004852254551
1206.000000,0.004375467035
1207.000000,0.004949299654
1208.000000,0.004394938475
1209.000000,0.004598744271
1210.000000,0.00449107146
1211.000000,0.00443628535
1212.000000,0.004365063153
1213.000000,0.003927425534
1214.000000,0.003625422261
1215.000000,0.003804703499
1216.000000,0.004798795741
1217.000000,0.004332116655
1218.000000,0.004416866638
1219.000000,0.00485407229
1220.000000,0.003276144687
1221.000000,0.004258406141
1222.000000,0.003271972521
1223.000000,0.003687700157
1224.000000,0.004152237004
1225.000000,0.004806093525
1226.000000,0.003338716877
1227.000000,0.003729210331
1228.000000,0.004460391226
1229.000000,0.002846973586
1230.000000,0.003942320517
1231.000000,0.003520434198
1232.000000,0.00315793431
1233.000000,0.003760555368
1234.000000,0.004014896632
1235.000000,0.003093032091
1236.000000,0.00385687604
1237.000000,0.003719270483
1238.000000,0.002854825299
1239.000000,0.004525490685
1240.000000,0.004235119068
1241.000000,0.003050595124
1242.000000,0.003204814676
1243.000000,0.004012111973
1244.000000,0.003240547591
1245.000000,0.002422439282
1246.000000,0.004152748747
1247.000000,0.003518533829
1248.000000,0.004653445251
1249.000000,0.003713272907
1250.000000,0.003605989138
1251.000000,0.005214588074
1252.000000,0.003374343361
1253.000000,0.002898671511
1254.000000,0.003603686914
1255.000000,0.004143749682
1256.000000,0.002753321491
1257.000000,0.002902774644
1258.000000,0.003715321883
1259.000000,0.001515188704
1260.000000,0.002777596441
1261.000000,0.003909877197
1262.000000,0.003073715153
1263.000000,0.002443896022
1264.000000,0.004578318695
1265.000000,0.00256653664
1266.000000,0.003097149376
1267.000000,0.003184557583
1268.000000,0.003455861681
1269.000000,0.003180420087
1270.000000,0.003351286628
1271.000000,0.00343194992
1272.000000,0.003342616115
1273.000000,0.003448520166
1274.000000,0.001958069291
1275.000000,0.003653415696
1276.000000,0.002540441749
1277.000000,0.002079704933
1278.000000,0.004213629014
1279.000000,0.00260658402
1280.000000,0.003487085459
1281.000000,0.002912270914
1282.000000,0.002967524449
1283.000000,0.00366578594
1284.000000,0.002742472974
1285.000000,0.003596705698
1286.000000,0.003600540143
1287.000000,0.004071430138
1288.000000,0.003167291338
1289.000000,0.00399896297
1290.000000,0.004404128002
1291.000000,0.004322925507
1292.000000,0.003720159183
1293.000000,0.003637387715
1294.000000,0.005081989536
1295.000000,0.004710229233
1296.000000,0.002904983489
1297.000000,0.003922413364
1298.000000,0.003728863233
1299.000000,0.003410164405
1300.000000,0.003459186569
1301.000000,0.003660844855
1302.000000,0.00393187188
1303.000000,0.003499797941
1304.000000,0.003573218173
1305.000000,0.004207338382
1306.000000,0.00356131856
1307.000000,0.003698964004
1308.000000,0.003967863213
1309.000000,0.004355928903
1310.000000,0.004112473183
1311.000000,0.00360207186
1312.000000,0.003501344602
1313.000000,0.002641022008
1314.000000,0.003554807516
1315.000000,0.002756173463
1316.000000,0.002765674515
1317.000000,0.003775369618
1318.000000,0.003325027596
1319.000000,0.003671694168
1320.000000,0.003012006798
1321.000000,0.004114550015
1322.000000,0.003480182723
1323.000000,0.004110861332
1324.000000,0.00380364433
1325.000000,0.003500200204
1326.000000,0.003115244782
1327.000000,0.003424942192
1328.000000,0.003907190656
1329.000000,0.003831623193
1330.000000,0.002694985303
1331.000000,0.00403522452
1332.000000,0.003292294554
1333.000000,0.003915185713
1334.000000,0.003008072468
1335.000000,0.003815521133
1336.000000,0.002955805757
1337.000000,0.003517084807
1338.000000,0.003263853294
1339.000000,0.003275533083
1340.000000,0.003110703338
1341.000000,0.003363798435
1342.000000,0.002413097091
1343.000000,0.003993362102
1344.000000,0.004049548785
1345.000000,0.003209263602
1346.000000,0.002650559536
1347.000000,0.003097324486
1348.000000,0.004062732773
1349.000000,0.003874736092
1350.000000,0.00332349282
1351.000000,0.004050719272
1352.000000,0.002890194384
1353.000000,0.00315509119
1354.000000,0.00381655177
1355.000000,0.003480352971
1356.000000,0.003190884069
1357.000000,0.002041126602
1358.000000,0.00396538717
1359.000000,0.003764518045
1360.000000,0.00252909093
1361.000000,0.003948541572
1362.000000,0.003587761992
1363.000000,0.003773829111
1364.000000,0.004184873979
1365.000000,0.003180819456
1366.000000,0.004066410925
1367.000000,0.004059603132
1368.000000,0.0041178479
1369.000000,0.004656158587
1370.000000,0.004080307838
1371.000000,0.003358620487
1372.000000,0.004792588502
1373.000000,0.00305739602
1374.000000,0.003459883005
1375.000000,0.003172911304
1376.000000,0.003707298667
1377.000000,0.004436931077
1378.000000,0.004583702026
1379.000000,0.004099238228
1380.000000,0.003471884713
1381.000000,0.0035247522
1382.000000,0.003515055792
1383.000000,0.004472769074
1384.000000,0.003375498173
1385.000000,0.004464610451
1386.000000,0.003948657937
1387.000000,0.004097057584
1388.000000,0.004929899732
1389.000000,0.003761481864
1390.000000,0.005076973884
1391.000000,0.003258781517
1392.000000,0.00364282346
1393.000000,0.003222917074
1394.000000,0.003759033306
1395.000000,0.004596859892
1396.000000,0.004729536146
1397.000000,0.004511774527
1398.000000,0.004531894077
1399.000000,0.003711362363
1400.000000,0.003668227189
1401.000000,0.004702065752
1402.000000,0.005385855437
1403.000000,0.004414180127
1404.000000,0.003932330747
1405.000000,0.003839611958
1406.000000,0.004423902161
1407.000000,0.005860295485
1408.000000,0.004865526509
1409.000000,0.004452619449
1410.000000,0.004803673656
1411.000000,0.004979517009
1412.000000,0.005538124342
1413.000000,0.005096968306
1414.000000,0.005083872613
1415.000000,0.005641987836
1416.000000,0.006184295568
1417.000000,0.0064935418
1418.000000,0.006567263207
1419.000000,0.006150359137
1420.000000,0.005613182029
1421.000000,0.006380858285
1422.000000,0.007283363136
1423.000000,0.006586325837
1424.000000,0.007847491936
1425.000000,0.007680391258
1426.000000,0.008064012309
1427.000000,0.009512022199
1428.000000,0.009445307144
1429.000000,0.01067429409
1430.000000,0.009890369157
1431.000000,0.01182548833
1432.000000,0.01247879088
1433.000000,0.01103121911
1434.000000,0.01382138584
1435.000000,0.01600830182
1436.000000,0.01695186087
1437.000000,0.01786000553
1438.000000,0.01991542538
1439.000000,0.02154768177
1440.000000,0.02514826384
1441.000000,0.02712940246
1442.000000,0.03135460907
1443.000000,0.03703655415
1444.000000,0.04141632589
1445.000000,0.04688640472
1446.000000,0.05311473119
1447.000000,0.06085584064
1448.000000,0.06510843077
1449.000000,0.06769407186
1450.000000,0.07049126391
1451.000000,0.06811292773
1452.000000,0.06494138001
1453.000000,0.05886843401
1454.000000,0.05263558365
1455.000000,0.04761497497
1456.000000,0.04099840866
1457.000000,0.03593056066
1458.000000,0.03254975522
1459.000000,0.02755834385
1460.000000,0.02422435826
1461.000000,0.02272035913
1462.000000,0.01894162037
1463.000000,0.01774466157
1464.000000,0.01634062836
1465.000000,0.01435313129
1466.000000,0.0132907271
1467.000000,0.01332962407
1468.000000,0.01220826812
1469.000000,0.01068222727
1470.000000,0.01088724882
1471.000000,0.01088292213
1472.000000,0.008666843165
1473.000000,0.009006491897
1474.000000,0.009742219854
1475.000000,0.008547845524
1476.000000,0.008336083134
1477.000000,0.007426386376
1478.000000,0.006796599279
1479.000000,0.007721320311
1480.000000,0.007205658509
1481.000000,0.006580533975
1482.000000,0.006148883958
1483.000000,0.005210461942
1484.000000,0.006204257234
1485.000000,0.005554799029
1486.000000,0.005764168895
1487.000000,0.006130248315
1488.000000,0.006112220946
1489.000000,0.005952263545
1490.000000,0.00678555202
1491.000000,0.006045210732
1492.000000,0.0048170195
1493.000000,0.004701779762
1494.000000,0.006529533081
1495.000000,0.004667569802
1496.000000,0.004983748369
1497.000000,0.006008428572
1498.000000,0.005942447867
1499.000000,0.004832562918
1500.000000,0.004970135025
1501.000000,0.003802550779
1502.000000,0.004205426923
1503.000000,0.004500636693
1504.000000,0.004688127516
1505.000000,0.004470527045
1506.000000,0.004732905001
1507.000000,0.005939567064
1508.000000,0.004879832449
1509.000000,0.004768963445
1510.000000,0.004569120081
1511.000000,0.004451424886
1512.000000,0.00528590976
1513.000000,0.003937741028
1514.000000,0.004451395278
1515.000000,0.003861732979
1516.000000,0.004569924878
1517.000000,0.004587026951
1518.000000,0.005069097782
1519.000000,0.005237295418
1520.000000,0.00491858617
1521.000000,0.005500816967
1522.000000,0.005487087617
1523.000000,0.004729074081
1524.000000,0.004774149482
1525.000000,0.003395859239
1526.000000,0.004768082763
1527.000000,0.004588071124
1528.000000,0.003592555164
1529.000000,0.004369168844
1530.000000,0.005227206317
1531.000000,0.00392945689
1532.000000,0.005480055521
1533.000000,0.005016623232
1534.000000,0.004624976586
1535.000000,0.004711149712
1536.000000,0.00533366026
1537.000000,0.004012760937
1538.000000,0.006146437658
1539.000000,0.004475415838
1540.000000,0.004555203741
1541.000000,0.005805549924
1542.000000,0.005605431114
1543.000000,0.005991511365
1544.000000,0.005892212196
1545.000000,0.005563549307
1546.000000,0.004649044435
1547.000000,0.005219701246
1548.000000,0.005717931569
1549.000000,0.005690195021
1550.000000,0.004575637371
1551.000000,0.006560465123
1552.000000,0.007105041114
1553.000000,0.007087452797
1554.000000,0.005749986384
1555.000000,0.006796755225
1556.000000,0.005442884935
1557.000000,0.00794815919
1558.000000,0.005992954324
1559.000000,0.007662742906
1560.000000,0.008399316502
1561.000000,0.008794118667
1562.000000,0.008580095898
1563.000000,0.007916725114
1564.000000,0.009169693972
1565.000000,0.009588743778
1566.000000,0.01056828667
1567.000000,0.01162997845
1568.000000,0.01223555798
1569.000000,0.01405454074
1570.000000,0.01428803934
1571.000000,0.01498490402
1572.000000,0.01780273581
1573.000000,0.01858466721
1574.000000,0.02134632767
1575.000000,0.02426936395
1576.000000,0.02651117474
1577.000000,0.03273221599
1578.000000,0.03854961633
1579.000000,0.04528779623
1580.000000,0.05337581527
1581.000000,0.06087787101
1582.000000,0.06832927295
1583.000000,0.0722391432
1584.000000,0.06977154551
1585.000000,0.06458127352
1586.000000,0.05808340191
1587.000000,0.05351589828
1588.000000,0.04657116225
1589.000000,0.04452100448
1590.000000,0.04226469497
1591.000000,0.04305683367
1592.000000,0.04392105212
1593.000000,0.0459599081
1594.000000,0.04989209131
1595.000000,0.05888816565
1596.000000,0.06923905782
1597.000000,0.08215110752
1598.000000,0.1029540451
1599.000000,0.1274822313
1600.000000,0.1567892575
1601.000000,0.1821496238
1602.000000,0.1942415277
1603.000000,0.1825066167
1604.000000,0.1559831608
1605.000000,0.1264280648
1606.000000,0.09958929675
1607.000000,0.07884324729
1608.000000,0.06334719778
1609.000000,0.05060168928
1610.000000,0.0424565638
1611.000000,0.03507299211
1612.000000,0.03009170631
1613.000000,0.02652033765
1614.000000,0.02397978708
1615.000000,0.02196461837
1616.000000,0.01793176799
1617.000000,0.01691652307
1618.000000,0.01528573881
1619.000000,0.01439199361
1620.000000,0.01335642513
1621.000000,0.01230565274
1622.000000,0.01071043672
1623.000000,0.01083764449
1624.000000,0.01053005766
1625.000000,0.009148598935
1626.000000,0.01017404087
1627.000000,0.008419443575
1628.000000,0.007801457521
1629.000000,0.008022058961
1630.000000,0.007382608615
1631.000000,0.006437802515
1632.000000,0.006993642031
1633.000000,0.007740958905
1634.000000,0.007776683572
1635.000000,0.006038298247
1636.000000,0.006748583669
1637.000000,0.006121387811
1638.000000,0.006062958197
1639.000000,0.006516660978
1640.000000,0.006138470973
1641.000000,0.005599397178
1642.000000,0.004836660516
1643.000000,0.00461587746
1644.000000,0.005157514973
1645.000000,0.005300681019
1646.000000,0.005324303996
1647.000000,0.005412893672
1648.000000,0.00545741515
1649.000000,0.003351175156
1650.000000,0.005275603578
1651.000000,0.004039049505
1652.000000,0.005281457271
1653.000000,0.004757958751
1654.000000,0.004882339005
1655.000000,0.004127374951
1656.000000,0.00457592518
1657.000000,0.003236984111
1658.000000,0.004977677024
1659.000000,0.004078735984
1660.000000,0.002680819891
1661.000000,0.004841576773
1662.000000,0.005176935035
1663.000000,0.00360677652
1664.000000,0.004832253746
1665.000000,0.003620430205
1666.000000,0.002678228491
1667.000000,0.003799220027
1668.000000,0.004184234475
1669.000000,0.004042677245
1670.000000,0.004000068521
1671.000000,0.004092555831
1672.000000,0.004021833294
1673.000000,0.003739673234
1674.000000,0.003486798395
1675.000000,0.003668687403
1676.000000,0.003597637479
1677.000000,0.003608343212
1678.000000,0.003108802123
1679.000000,0.003428807589
1680.000000,0.003788234082
1681.000000,0.003908893696
1682.000000,0.003668553461
1683.000000,0.003581534294
1684.000000,0.003999308886
1685.000000,0.004153857306
1686.000000,0.004059414012
1687.000000,0.002583560069
1688.000000,0.003350116783
1689.000000,0.004036750963
1690.000000,0.003910337433
1691.000000,0.003997791797
1692.000000,0.003766641062
1693.000000,0.003052802724
1694.000000,0.004292035351
1695.000000,0.002727509467
1696.000000,0.004129430471
1697.000000,0.003516599373
1698.000000,0.002630668828
1699.000000,0.003269627622
1700.000000,0.00422391626
1701.000000,0.003136572495
1702.000000,0.002753727617
1703.000000,0.003300541079
1704.000000,0.002974075365
1705.000000,0.002706066351
1706.000000,0.003714810193
1707.000000,0.003924649808
1708.000000,0.003105007274
1709.000000,0.003745449957
1710.000000,0.003190578507
1711.000000,0.003357000017
1712.000000,0.003484942307
1713.000000,0.004303346913
1714.000000,0.003703929956
1715.000000,0.00279107294
1716.000000,0.003697242863
1717.000000,0.003247966904
1718.000000,0.003094894967
1719.000000,0.002864764344
1720.000000,0.003349223895
1721.000000,0.003323722123
1722.000000,0.003112828033
1723.000000,0.002512632451
1724.000000,0.002317628648
1725.000000,0.003417652065
1726.000000,0.003443323097
1727.000000,0.004645743474
1728.000000,0.00321968372
1729.000000,0.003937818667
1730.000000,0.0040382519
1731.000000,0.003277944748
1732.000000,0.003356936286
1733.000000,0.003048042689
1734.000000,0.004371527712
1735.000000,0.002391190948
1736.000000,0.003271661021
1737.000000,0.004125107776
1738.000000,0.003223576509
1739.000000,0.002941256945
1740.000000,0.003421733266
1741.000000,0.003595449932
1742.000000,0.003616545074
1743.000000,0.003441312109
1744.000000,0.00372016598
1745.000000,0.003834843163
1746.000000,0.002596261482
1747.000000,0.003031525152
1748.000000,0.003780218739
1749.000000,0.003547983561
1750.000000,0.003392280684
1751.000000,0.003653122909
1752.000000,0.003818783189
1753.000000,0.002726475795
1754.000000,0.002501819628
1755.000000,0.002543371699
1756.000000,0.004354178286
1757.000000,0.002598151993
1758.000000,0.003089247819
1759.000000,0.003116434995
1760.000000,0.003846406448
1761.000000,0.002177063336
1762.000000,0.003197567364
1763.000000,0.003949999963
1764.000000,0.003887933938
1765.000000,0.003461058423
1766.000000,0.003055489781
1767.000000,0.004268543944
1768.000000,0.002202014741
1769.000000,0.003796963975
1770.000000,0.003510382893
1771.000000,0.003558321134
1772.000000,0.003360639644
1773.000000,0.003322266084
1774.000000,0.003757203368
1775.000000,0.002501005616
1776.000000,0.002442928022
1777.000000,0.003289327051
1778.000000,0.003221194587
1779.000000,0.003286610145
1780.000000,0.004143784692
1781.000000,0.00283603517
1782.000000,0.00363538534
1783.000000,0.003412937508
1784.000000,0.004604503562
1785.000000,0.00233431696
1786.000000,0.002848164374
1787.000000,0.002900355497
1788.000000,0.003968779052
1789.000000,0.002678805913
1790.000000,0.004168924843
1791.000000,0.004131479035
1792.000000,0.003689140256
1793.000000,0.003429972549
1794.000000,0.00222856962
1795.000000,0.00327362066
1796.000000,0.002301441017
1797.000000,0.002943047835
1798.000000,0.00328229858
1799.000000,0.002972837881
1800.000000,0.00372985232
1801.000000,0.003078508503
1802.000000,0.002222862466
1803.000000,0.002515726561
1804.000000,0.002385806185
1805.000000,0.002960992223
1806.000000,0.003901303568
1807.000000,0.003453603849
1808.000000,0.003352407321
1809.000000,0.002373177518
1810.000000,0.004571958963
1811.000000,0.0031277239
1812.000000,0.004598544464
1813.000000,0.002620456661
1814.000000,0.002799743704
1815.000000,0.004705418107
1816.000000,0.002492413195
1817.000000,0.00339055187
1818.000000,0.002933930776
1819.000000,0.002646895932
1820.000000,0.004436445807
1821.000000,0.002530166938
1822.000000,0.003673884603
1823.000000,0.0037974832
1824.000000,0.002522750648
1825.000000,0.001988852597
1826.000000,0.0020581326
1827.000000,0.002647798312
1828.000000,0.003262270298
1829.000000,0.003329289928
1830.000000,0.003012712608
1831.000000,0.003062273277
1832.000000,0.003711161277
1833.000000,0.003586394043
1834.000000,0.003351174572
1835.000000,0.002750984068
1836.000000,0.003589638818
1837.000000,0.003229863521
1838.000000,0.00266983695
1839.000000,0.002771963051
1840.000000,0.003858060425
1841.000000,0.004228553518
1842.000000,0.002798092479
1843.000000,0.001865318627
1844.000000,0.003469126077
1845.000000,0.00257105023
1846.000000,0.0035549953
1847.000000,0.002887046249
1848.000000,0.004454782216
1849.000000,0.003179534334
1850.000000,0.003654762691
1851.000000,0.00237919832
1852.000000,0.001412846808
1853.000000,0.003190743079
1854.000000,0.00326631595
1855.000000,0.003541567862
1856.000000,0.002773966583
1857.000000,0.002329071916
1858.000000,0.002142646544
1859.000000,0.003438423828
1860.000000,0.003532407462
1861.000000,0.002577065397
1862.000000,0.002785778955
1863.000000,0.002664701454
1864.000000,0.001961614562
1865.000000,0.003221725198
1866.000000,0.003610554721
1867.000000,0.002966270505
1868.000000,0.002243883976
1869.000000,0.002980210757
1870.000000,0.003920362467
1871.000000,0.004380602251
1872.000000,0.003259930853
1873.000000,0.002622498792
1874.000000,0.001901642954
1875.000000,0.002165759807
1876.000000,0.003042319012
1877.000000,0.003231209602
1878.000000,0.00324928259
1879.000000,0.00293598775
1880.000000,0.002164832435
1881.000000,0.002144329587
1882.000000,0.003181479514
1883.000000,0.002595953535
1884.000000,0.003877280715
1885.000000,0.002213142553
1886.000000,0.004106433286
1887.000000,0.002689199522
1888.000000,0.003224286799
1889.000000,0.003223809352
1890.000000,0.002881940498
1891.000000,0.001876534496
1892.000000,0.002797735771
1893.000000,0.004004129491
1894.000000,0.002316249447
1895.000000,0.001977924815
1896.000000,0.00295461156
1897.000000,0.002837696204
1898.000000,0.002307275275
1899.000000,0.002632073628
1900.000000,0.002795084347
1901.000000,0.002835727421
1902.000000,0.003181833749
1903.000000,0.003508826223
1904.000000,0.003316045267
1905.000000,0.003288362058
1906.000000,0.004093623368
1907.000000,0.003741182825
1908.000000,0.001328062017
1909.000000,0.00286247525
1910.000000,0.002131685209
1911.000000,0.002665492256
1912.000000,0.003544101832
1913.000000,0.002958470606
1914.000000,0.002821335198
1915.000000,0.003871602799
1916.000000,0.002173268686
1917.000000,0.00302164756
1918.000000,0.003408092985
1919.000000,0.003091938072
1920.000000,0.002376817186
1921.000000,0.003063127311
1922.000000,0.003562455494
1923.000000,0.003291074963
1924.000000,0.003266923448
1925.000000,0.003260421206
1926.000000,0.003156396803
1927.000000,0.002327500092
1928.000000,0.002888292105
1929.000000,0.003333379256
1930.000000,0.001198908065
1931.000000,0.003529179576
1932.000000,0.003276188301
1933.000000,0.002420127943
1934.000000,0.002623174662
1935.000000,0.002949432075
1936.000000,0.003320698792
1937.000000,0.002846375304
1938.000000,0.003773707323
1939.000000,0.003319604847
1940.000000,0.002597140278
1941.000000,0.002786695895
1942.000000,0.003207027549
1943.000000,0.003508193664
1944.000000,0.003478795234
1945.000000,0.00301042105
1946.000000,0.003158873852
1947.000000,0.003053492415
1948.000000,0.003563125441
1949.000000,0.002474367274
1950.000000,0.003430654846
1951.000000,0.001952427511
1952.000000,0.003338726959
1953.000000,0.00322118415
1954.000000,0.003066462363
1955.000000,0.001782681873
1956.000000,0.004009260453
1957.000000,0.003606703062
1958.000000,0.003080957062
1959.000000,0.003341503148
1960.000000,0.00249965699
1961.000000,0.00337323828
1962.000000,0.004003726089
1963.000000,0.002355212227
1964.000000,0.004685047554
1965.000000,0.002800862682
1966.000000,0.003561695351
1967.000000,0.002566104483
1968.000000,0.003298154823
1969.000000,0.002296050441
1970.000000,0.002665983981
1971.000000,0.002924840807
1972.000000,0.002667423719
1973.000000,0.002916637482
1974.000000,0.003649219557
1975.000000,0.002292756994
1976.000000,0.002341487918
1977.000000,0.003089382404
1978.000000,0.002721212141
1979.000000,0.00245639328
1980.000000,0.003139864622
1981.000000,0.002720441919
1982.000000,0.003262290885
1983.000000,0.003035798268
1984.000000,0.002938394216
1985.000000,0.003018225894
1986.000000,0.003675038681
1987.000000,0.003849915859
1988.000000,0.002962596417
1989.000000,0.002438466824
1990.000000,0.002148523784
1991.000000,0.001713532927
1992.000000,0.002349973079
1993.000000,0.002544586179
1994.000000,0.003025821498
1995.000000,0.00192524153
1996.000000,0.003917661539
1997.000000,0.003697066697
1998.000000,0.003806195491
1999.000000,0.002747723351
2000.000000,0.003203147024
