raman_shift_cm-1,intensity
200.000000,0.003241073342
201.000000,0.003527800223
202.000000,0.003232085572
203.000000,0.002248427741
204.000000,0.003578427762
205.000000,0.00330210439
206.000000,0.002710028043
207.000000,0.00338338204
208.000000,0.003253050719
209.000000,0.003210702422
210.000000,0.003050765721
211.000000,0.003362942644
212.000000,0.002590309987
213.000000,0.002935760412
214.000000,0.002743608911
215.000000,0.003394621406
216.000000,0.003057997755
217.000000,0.00285803741
218.000000,0.002563370193
219.000000,0.002879419581
220.000000,0.00303927368
221.000000,0.002868481026
222.000000,0.003813784633
223.000000,0.003640828312
224.000000,0.001402050033
225.000000,0.001897211467
226.000000,0.002929577249
227.000000,0.002780662551
228.000000,0.003163628783
229.000000,0.003165921832
230.000000,0.004310461686
231.000000,0.002365568919
232.000000,0.002807901692
233.000000,0.004265494404
234.000000,0.003424883446
235.000000,0.003434815784
236.000000,0.002726083478
237.000000,0.002043246145
238.000000,0.003136617912
239.000000,0.003101502099
240.000000,0.002296845883
241.000000,0.002624592993
242.000000,0.002992721636
243.000000,0.002467274674
244.000000,0.002977097527
245.000000,0.003093857809
246.000000,0.003057874635
247.000000,0.002731650428
248.000000,0.003394164072
249.000000,0.003573352413
250.000000,0.003230003198
251.000000,0.002544156136
252.000000,0.003477560252
253.000000,0.002735100638
254.000000,0.003566566926
255.000000,0.002391826825
256.000000,0.003588009662
257.000000,0.003025341466
258.000000,0.002285538393
259.000000,0.002848583032
260.000000,0.003070281375
261.000000,0.003202066518
262.000000,0.00244643192
263.000000,0.002371142671
264.000000,0.00315826803
265.000000,0.002757108319
266.000000,0.00318009252
267.000000,0.003495743185
268.000000,0.002045596365
269.000000,0.003191757997
270.000000,0.00377613234
271.000000,0.00285960303
272.000000,0.002550609918
273.000000,0.003491960914
274.000000,0.003191695033
275.000000,0.003578663158
276.000000,0.00283139619
277.000000,0.002147055907
278.000000,0.002973241959
279.000000,0.002771123476
280.000000,0.003506588503
281.000000,0.003156410175
282.000000,0.002057843035
283.000000,0.002320314879
284.000000,0.003572336736
285.000000,0.003449586509
286.000000,0.002654808552
287.000000,0.003039832986
288.000000,0.003308894179
289.000000,0.003322755434
290.000000,0.00356846276
291.000000,0.003195369444
292.000000,0.002983928896
293.000000,0.00288527484
294.000000,0.003677017963
295.000000,0.001685954196
296.000000,0.00295800619
297.000000,0.003061493808
298.000000,0.002183418847
299.000000,0.003242278169
300.000000,0.002649793599
301.000000,0.003561458633
302.000000,0.002966601859
303.000000,0.003445309776
304.000000,0.0037764503
305.000000,0.003273202265
306.000000,0.002515389668
307.000000,0.002130964449
308.000000,0.004098853598
309.000000,0.002976104627
310.000000,0.002628611078
311.000000,0.003130255721
312.000000,0.002928254522
313.000000,0.003556800429
314.000000,0.003064219725
315.000000,0.003052204635
316.000000,0.002613753205
317.000000,0.003326966887
318.000000,0.002421761039
319.000000,0.003445468196
320.000000,0.003962312877
321.000000,0.002126621587
322.000000,0.001559782519
323.000000,0.003416527097
324.000000,0.004579502725
325.000000,0.002442603797
326.000000,0.002292343834
327.000000,0.003400310762
328.000000,0.00253952387
329.000000,0.002741224448
330.000000,0.002836467198
331.000000,0.003366615767
332.000000,0.002802341037
333.000000,0.003213901305
334.000000,0.002940416991
335.000000,0.00253823405
336.000000,0.002854448095
337.000000,0.002474888514
338.000000,0.003051290965
339.000000,0.002370757577
340.000000,0.002389574375
341.000000,0.003925225646
342.000000,0.003016007957
343.000000,0.003015745969
344.000000,0.003356415944
345.000000,0.002795116264
346.000000,0.002911104036
347.000000,0.003304918636
348.000000,0.003219144798
349.000000,0.002351147089
350.000000,0.003551264394
351.000000,0.002694070033
352.000000,0.002413850434
353.000000,0.002507738307
354.000000,0.002814997358
355.000000,0.004030301636
356.000000,0.002342667815
357.000000,0.00314714489
358.000000,0.001763579102
359.000000,0.003050196064
360.000000,0.003593042253
361.000000,0.002909021799
362.000000,0.00267275032
363.000000,0.003191353645
364.000000,0.003473766868
365.000000,0.003451997625
366.000000,0.004240355423
367.000000,0.003178730568
368.000000,0.002696245888
369.000000,0.002977338279
370.000000,0.003009760482
371.000000,0.003119117023
372.000000,0.003035775967
373.000000,0.003158841183
374.000000,0.00204814712
375.000000,0.003554124539
376.000000,0.002708665752
377.000000,0.002348539109
378.000000,0.003439275509
379.000000,0.003848741858
380.000000,0.003352601768
381.000000,0.003152997217
382.000000,0.002494825136
383.000000,0.004785653726
384.000000,0.00358676769
385.000000,0.002370875779
386.000000,0.00258770987
387.000000,0.003109830307
388.000000,0.002121477488
389.000000,0.003159521527
390.000000,0.002781794362
391.000000,0.003796949316
392.000000,0.003638173706
393.000000,0.001426358868
394.000000,0.003084442344
395.000000,0.002085595638
396.000000,0.003728099122
397.000000,0.003161409026
398.000000,0.003390708646
399.000000,0.002419358113
400.000000,0.004162107622
401.000000,0.004277811042
402.000000,0.002420467852
403.000000,0.003286465649
404.000000,0.002656819076
405.000000,0.003048390647
406.000000,0.002300753487
407.000000,0.004187586542
408.000000,0.002479919355
409.000000,0.002885574702
410.000000,0.003366188453
411.000000,0.002674587571
412.000000,0.002920767701
413.000000,0.002725806203
414.000000,0.002985200972
415.000000,0.002361038164
416.000000,0.002802527277
417.000000,0.002942049691
418.000000,0.002866037736
419.000000,0.003101509671
420.000000,0.002891244375
421.000000,0.003521697054
422.000000,0.002873884892
423.000000,0.00298660873
424.000000,0.002668969504
425.000000,0.00275263004
426.000000,0.002308634936
427.000000,0.003382906169
428.000000,0.002382909734
429.000000,0.002622193125
430.000000,0.003288093347
431.000000,0.003314616437
432.000000,0.002831687128
433.000000,0.00185710243
434.000000,0.003326748578
435.000000,0.003230282274
436.000000,0.002223924607
437.000000,0.0035387826
438.000000,0.00265318964
439.000000,0.002397689226
440.000000,0.00313399781
441.000000,0.002969373132
442.000000,0.003199364415
443.000000,0.002110900214
444.000000,0.004169670509
445.000000,0.002715986408
446.000000,0.002152271326
447.000000,0.003452627588
448.000000,0.002866861116
449.000000,0.003276699928
450.000000,0.00287713325
451.000000,0.003046239115
452.000000,0.003230796936
453.000000,0.002633765115
454.000000,0.003492715185
455.000000,0.002801632472
456.000000,0.002561506905
457.000000,0.003132236658
458.000000,0.003354485948
459.000000,0.002949191422
460.000000,0.002568404506
461.000000,0.003461697794
462.000000,0.002029112987
463.000000,0.002469079868
464.000000,0.00311435662
465.000000,0.002271665969
466.000000,0.003108863118
467.000000,0.003059710864
468.000000,0.003634711841
469.000000,0.002543401456
470.000000,0.002718145743
471.000000,0.003296490646
472.000000,0.001616758274
473.000000,0.004964288172
474.000000,0.002677615015
475.000000,0.002659692625
476.000000,0.003618617798
477.000000,0.00307696253
478.000000,0.002030309543
479.000000,0.003480302211
480.000000,0.003618811597
481.000000,0.002833723882
482.000000,0.002936076061
483.000000,0.003399299882
484.000000,0.002560409917
485.000000,0.003372690175
486.000000,0.003229770824
487.000000,0.002704400857
488.000000,0.00227363323
489.000000,0.002977202407
490.000000,0.002587039833
491.000000,0.003718410205
492.000000,0.003203338316
493.000000,0.003588753005
494.000000,0.003200109008
495.000000,0.003278631935
496.000000,0.002650110463
497.000000,0.003525240381
498.000000,0.004199032447
499.000000,0.002939218916
500.000000,0.002770173364
501.000000,0.003033544149
502.000000,0.002840263442
503.000000,0.002709190177
504.000000,0.003216391714
505.000000,0.002959588714
506.000000,0.004002882071
507.000000,0.003138216315
508.000000,0.003334871459
509.000000,0.003714874382
510.000000,0.002962280576
511.000000,0.004010427283
512.000000,0.002766151811
513.000000,0.002662341339
514.000000,0.002930548213
515.000000,0.003084085702
516.000000,0.002311428289
517.000000,0.003136318032
518.000000,0.002155547959
519.000000,0.00400029973
520.000000,0.003115558052
521.000000,0.00278018086
522.000000,0.0026222652
523.000000,0.002940321369
524.000000,0.003040127162
525.000000,0.002548195319
526.000000,0.002626100798
527.000000,0.003070162297
528.000000,0.002872246526
529.000000,0.003754505294
530.000000,0.003877302076
531.000000,0.003205011818
532.000000,0.003483934347
533.000000,0.002398197061
534.000000,0.003589672546
535.000000,0.003191136613
536.000000,0.003505264302
537.000000,0.004181098354
538.000000,0.001848015217
539.000000,0.003382921351
540.000000,0.00256833356
541.000000,0.003591402584
542.000000,0.002448688334
543.000000,0.002946156
544.000000,0.003371681198
545.000000,0.003624361487
546.000000,0.003305481089
547.000000,0.002788755685
548.000000,0.002938834023
549.000000,0.003811017191
550.000000,0.003281550442
551.000000,0.002277647362
552.000000,0.003806695983
553.000000,0.003556661059
554.000000,0.003839631901
555.000000,0.003118979169
556.000000,0.003828776296
557.000000,0.00269988768
558.000000,0.003691274704
559.000000,0.00306235626
560.000000,0.003773835936
561.000000,0.003983932993
562.000000,0.00294628194
563.000000,0.003370341889
564.000000,0.003436971382
565.000000,0.004142891986
566.000000,0.003868069376
567.000000,0.002720400635
568.000000,0.003745462063
569.000000,0.003934727683
570.000000,0.004782070926
571.000000,0.00251012147
572.000000,0.003217541897
573.000000,0.004363915386
574.000000,0.002766746081
575.000000,0.002883649643
576.000000,0.003942081149
577.000000,0.004270430256
578.000000,0.003282812124
579.000000,0.0040411009
580.000000,0.003818881936
581.000000,0.004698101906
582.000000,0.003820432247
583.000000,0.004458492044
584.000000,0.003362524253
585.000000,0.003842955525
586.000000,0.003948135714
587.000000,0.004749066464
588.000000,0.004474124287
589.000000,0.003740269119
590.000000,0.004678172517
591.000000,0.004813668263
592.000000,0.004373098213
593.000000,0.004385755275
594.000000,0.004536131689
595.000000,0.003757151117
596.000000,0.005031714663
597.000000,0.005217256639
598.000000,0.004733547334
599.000000,0.005905191103
600.000000,0.004863906251
601.000000,0.005625992459
602.000000,0.005981974646
603.000000,0.007826272369
604.000000,0.006090829718
605.000000,0.007895286981
606.000000,0.008724406637
607.000000,0.009109077883
608.000000,0.01047644732
609.000000,0.01024945842
610.000000,0.0108375512
611.000000,0.01438562951
612.000000,0.01539144234
613.000000,0.01873715171
614.000000,0.02188703418
615.000000,0.02797411886
616.000000,0.03388356436
617.000000,0.04017491619
618.000000,0.04888939748
619.000000,0.05480815466
620.000000,0.05720219909
621.000000,0.05477087714
622.000000,0.04822559321
623.000000,0.04098241037
624.000000,0.03355418757
625.000000,0.02713586974
626.000000,0.02320995053
627.000000,0.01857375099
628.000000,0.01629379389
629.000000,0.01418872512
630.000000,0.01311304203
631.000000,0.01056195954
632.000000,0.01082867612
633.000000,0.009003144404
634.000000,0.008056917645
635.000000,0.00716939466
636.000000,0.007425977834
637.000000,0.006679205859
638.000000,0.005625112475
639.000000,0.005301872128
640.000000,0.00538018819
641.000000,0.005076300863
642.000000,0.005937857848
643.000000,0.005932132568
644.000000,0.005470173281
645.000000,0.005023721174
646.000000,0.004426622
647.000000,0.004606692282
648.000000,0.005007368866
649.000000,0.005668452412
650.000000,0.004854180432
651.000000,0.004062396322
652.000000,0.004187642008
653.000000,0.00381355924
654.000000,0.003577634988
655.000000,0.003887153169
656.000000,0.004069393004
657.000000,0.005014390865
658.000000,0.003900784163
659.000000,0.004650480804
660.000000,0.004863852291
661.000000,0.003815841988
662.000000,0.004707727181
663.000000,0.004143270741
664.000000,0.003436408798
665.000000,0.003824346022
666.000000,0.003656831337
667.000000,0.003482990821
668.000000,0.003484382021
669.000000,0.00367334138
670.000000,0.00383151291
671.000000,0.003021803489
672.000000,0.003534600972
673.000000,0.002610013348
674.000000,0.003671143415
675.000000,0.003877752352
676.000000,0.003589833045
677.000000,0.003652800059
678.000000,0.003826126979
679.000000,0.003061175058
680.000000,0.003309124308
681.000000,0.003752670695
682.000000,0.004040754833
683.000000,0.003668163832
684.000000,0.004961008755
685.000000,0.003362499815
686.000000,0.004013704834
687.000000,0.004169127742
688.000000,0.003320740988
689.000000,0.002902521518
690.000000,0.002680143241
691.000000,0.003486002077
692.000000,0.004053188507
693.000000,0.003544790818
694.000000,0.003482187251
695.000000,0.003146920584
696.000000,0.00371057488
697.000000,0.002084286283
698.000000,0.003508359207
699.000000,0.003383593427
700.000000,0.002539933048
701.000000,0.004673957531
702.000000,0.00252731974
703.000000,0.002713117759
704.000000,0.002638258333
705.000000,0.004029689097
706.000000,0.002826121226
707.000000,0.003763660771
708.000000,0.003715113964
709.000000,0.003518236218
710.000000,0.002575229795
711.000000,0.002995024997
712.000000,0.004372369553
713.000000,0.002589022588
714.000000,0.002867166694
715.000000,0.003272191405
716.000000,0.003859212219
717.000000,0.003525985963
718.000000,0.003823952049
719.000000,0.002737304496
720.000000,0.003952113332
721.000000,0.003729285516
722.000000,0.002430123981
723.000000,0.004321669068
724.000000,0.004779110082
725.000000,0.002940456669
726.000000,0.003441736229
727.000000,0.004255006175
728.000000,0.002527147909
729.000000,0.002226859555
730.000000,0.002650502205
731.000000,0.003096805879
732.000000,0.003097163051
733.000000,0.00381888139
734.000000,0.003622980917
735.000000,0.002719528893
736.000000,0.003820717545
737.000000,0.004617305675
738.000000,0.004219918227
739.000000,0.004106841057
740.000000,0.00353377796
741.000000,0.004126290744
742.000000,0.002965279507
743.000000,0.004013251005
744.000000,0.003523279643
745.000000,0.004272602905
746.000000,0.003889008336
747.000000,0.002969976236
748.000000,0.003722456438
749.000000,0.004399365299
750.000000,0.00300755794
751.000000,0.003374179179
752.000000,0.003272982492
753.000000,0.002862004677
754.000000,0.004370297117
755.000000,0.004611848451
756.000000,0.004337496925
757.000000,0.004037760968
758.000000,0.003899223217
759.000000,0.004116784142
760.000000,0.003577740895
761.000000,0.004606135249
762.000000,0.004751479658
763.000000,0.00474243826
764.000000,0.003925677926
765.000000,0.004363412297
766.000000,0.00429423595
767.000000,0.005557015506
768.000000,0.004683215035
769.000000,0.00354714939
770.000000,0.005037985605
771.000000,0.006062846783
772.000000,0.005489400938
773.000000,0.005772540074
774.000000,0.005452688166
775.000000,0.004457673512
776.000000,0.004799102284
777.000000,0.005419729173
778.000000,0.006418109856
779.000000,0.007058316326
780.000000,0.007727948132
781.000000,0.007627172716
782.000000,0.009024084584
783.000000,0.009014060092
784.000000,0.009640801014
785.000000,0.01164429364
786.000000,0.01187544278
787.000000,0.01235802954
788.000000,0.01527638421
789.000000,0.018274275
790.000000,0.0190779537
791.000000,0.0237936641
792.000000,0.02705176763
793.000000,0.029404188
794.000000,0.03156812425
795.000000,0.0329966875
796.000000,0.03213252386
797.000000,0.03102410971
798.000000,0.02748082736
799.000000,0.02306121894
800.000000,0.02042370531
801.000000,0.01864888951
802.000000,0.0170642095
803.000000,0.01424311247
804.000000,0.01262325946
805.000000,0.01226313113
806.000000,0.01006367022
807.000000,0.009009797477
808.000000,0.007611338593
809.000000,0.007538926947
810.000000,0.008641576232
811.000000,0.006033416773
812.000000,0.006520287063
813.000000,0.005342144685
814.000000,0.005987914744
815.000000,0.006201820235
816.000000,0.005307874817
817.000000,0.005707506772
818.000000,0.005536802766
819.000000,0.005225644134
820.000000,0.00585974501
821.000000,0.00517890412
822.000000,0.004421925064
823.000000,0.004101713523
824.000000,0.003917940831
825.000000,0.004636840413
826.000000,0.00408573015
827.000000,0.005860786907
828.000000,0.005269034314
829.000000,0.003977528227
830.000000,0.003860111003
831.000000,0.005031672582
832.000000,0.002838877404
833.000000,0.003663439113
834.000000,0.004473142536
835.000000,0.003319249643
836.000000,0.003551642988
837.000000,0.003599791605
838.000000,0.004183621349
839.000000,0.00384477762
840.000000,0.003982027652
841.000000,0.004077834975
842.000000,0.003718270062
843.000000,0.004351185145
844.000000,0.0032268309
845.000000,0.002785480137
846.000000,0.002565808911
847.000000,0.002646148576
848.000000,0.003278157782
849.000000,0.004218154409
850.000000,0.003691740154
851.000000,0.003216134781
852.000000,0.002922711944
853.000000,0.003239507552
854.000000,0.00330654616
855.000000,0.003201533879
856.000000,0.002671906792
857.000000,0.003241278707
858.000000,0.004134024687
859.000000,0.002206177045
860.000000,0.003365404426
861.000000,0.002227864278
862.000000,0.003610938341
863.000000,0.003046358622
864.000000,0.002236647961
865.000000,0.003549730947
866.000000,0.0045803034
867.000000,0.003548578109
868.000000,0.00418003649
869.000000,0.0034350756
870.000000,0.002176860047
871.000000,0.003769756252
872.000000,0.003221045656
873.000000,0.002591272218
874.000000,0.003943374714
875.000000,0.003642785429
876.000000,0.003153176014
877.000000,0.003992067084
878.000000,0.002944170343
879.000000,0.003856998846
880.000000,0.002903640918
881.000000,0.003792168132
882.000000,0.002808649691
883.000000,0.004369358113
884.000000,0.003627034344
885.000000,0.00433826367
886.000000,0.002981869562
887.000000,0.003192368215
888.000000,0.003986849254
889.000000,0.001831349516
890.000000,0.002843737336
891.000000,0.004111086751
892.000000,0.003772000569
893.000000,0.004084529748
894.000000,0.003312025808
895.000000,0.003841840099
896.000000,0.003065978074
897.000000,0.002684007268
898.000000,0.00249393095
899.000000,0.00318684332
900.000000,0.003193313216
901.000000,0.003149922691
902.000000,0.001397184623
903.000000,0.002336242769
904.000000,0.003224840018
905.000000,0.003724500213
906.000000,0.00320947882
907.000000,0.003036603492
908.000000,0.00218146065
909.000000,0.004796133396
910.000000,0.002923286418
911.000000,0.004607934642
912.000000,0.004542231997
913.000000,0.003775901554
914.000000,0.003275018908
915.000000,0.003708711562
916.000000,0.002944389809
917.000000,0.003805779182
918.000000,0.003661000331
919.000000,0.003990446994
920.000000,0.004253772065
921.000000,0.004736719705
922.000000,0.003471679277
923.000000,0.004346625431
924.000000,0.003254911681
925.000000,0.003206838055
926.000000,0.003387820899
927.000000,0.003183767973
928.000000,0.004381124342
929.000000,0.004363194745
930.000000,0.004590520425
931.000000,0.003826988651
932.000000,0.004026112004
933.000000,0.00353205596
934.000000,0.003207655565
935.000000,0.004191233356
936.000000,0.004105937524
937.000000,0.003301022349
938.000000,0.004344549802
939.000000,0.002968822646
940.000000,0.003936707551
941.000000,0.003693086455
942.000000,0.003783489038
943.000000,0.003480826408
944.000000,0.004739499828
945.000000,0.004541089681
946.000000,0.004949109417
947.000000,0.004353198743
948.000000,0.003533187916
949.000000,0.004129119662
950.000000,0.003684750201
951.000000,0.004718841352
952.000000,0.005221969629
953.000000,0.004743852912
954.000000,0.004241329979
955.000000,0.00443958814
956.000000,0.004849225261
957.000000,0.003923470088
958.000000,0.004956864349
959.000000,0.005064267463
960.000000,0.004699858372
961.000000,0.004865355298
962.000000,0.005315503782
963.000000,0.004821513631
964.000000,0.004931754732
965.000000,0.006016032021
966.000000,0.005811349196
967.000000,0.006829316051
968.000000,0.005377554889
969.000000,0.005068037235
970.000000,0.006889554258
971.000000,0.007100310854
972.000000,0.006300489391
973.000000,0.006105172145
974.000000,0.007231701707
975.000000,0.006505889788
976.000000,0.007690747803
977.000000,0.006958774165
978.000000,0.008553773655
979.000000,0.007900852385
980.000000,0.009582453571
981.000000,0.01126607085
982.000000,0.01091501062
983.000000,0.01237979874
984.000000,0.01251402566
985.000000,0.01352584429
986.000000,0.01454814002
987.000000,0.01774944923
988.000000,0.01913012436
989.000000,0.02266916169
990.000000,0.0241584829
991.000000,0.02879580014
992.000000,0.03427559934
993.000000,0.04214334715
994.000000,0.05204801287
995.000000,0.06412003974
996.000000,0.08337849569
997.000000,0.11178187
998.000000,0.1558662904
999.000000,0.2129995361
1000.000000,0.2752933485
1001.000000,0.305868566
1002.000000,0.2743674595
1003.000000,0.2124647424
1004.000000,0.1563095119
1005.000000,0.1139932082
1006.000000,0.08533365255
1007.000000,0.06536088945
1008.000000,0.05304999997
1009.000000,0.04442702883
1010.000000,0.03590380591
1011.000000,0.03174234364
1012.000000,0.02784887688
1013.000000,0.02565214425
1014.000000,0.02349180143
1015.000000,0.02202320285
1016.000000,0.02069781177
1017.000000,0.0207750125
1018.000000,0.02039124012
1019.000000,0.02108578969
1020.000000,0.02203431704
1021.000000,0.02394427457
1022.000000,0.0254090113
1023.000000,0.02874463342
1024.000000,0.03410178707
1025.000000,0.03973571115
1026.000000,0.04883368828
1027.000000,0.06244395278
1028.000000,0.0798685005
1029.000000,0.1019367248
1030.000000,0.1233708793
1031.000000,0.1318307349
1032.000000,0.1231251364
1033.000000,0.101893275
1034.000000,0.07886089479
1035.000000,0.05937058326
1036.000000,0.04710205968
1037.000000,0.03678788718
1038.000000,0.03027437308
1039.000000,0.02541434929
1040.000000,0.02082308589
1041.000000,0.019449084
1042.000000,0.01635000523
1043.000000,0.01508474699
1044.000000,0.01355486114
1045.000000,0.01281107184
1046.000000,0.01175170401
1047.000000,0.009337506976
1048.000000,0.009567799841
1049.000000,0.007673607195
1050.000000,0.008189023362
1051.000000,0.00845434613
1052.000000,0.008195534315
1053.000000,0.008088712815
1054.000000,0.006791644726
1055.000000,0.00695072487
1056.000000,0.006583935892
1057.000000,0.00707977287
1058.000000,0.00708564356
1059.000000,0.005743688479
1060.000000,0.008084945807
1061.000000,0.005664347517
1062.000000,0.005318463107
1063.000000,0.005784164975
1064.000000,0.0057734135
1065.000000,0.005547995528
1066.000000,0.004738008363
1067.000000,0.005933562097
1068.000000,0.00500285866
1069.000000,0.00582582845
1070.000000,0.005673345091
1071.000000,0.004007226228
1072.000000,0.004127921177
1073.000000,0.004063264846
1074.000000,0.004767817772
1075.000000,0.00460485674
1076.000000,0.004692203761
1077.000000,0.004002202618
1078.000000,0.004712084867
1079.000000,0.00526680198
1080.000000,0.003585791551
1081.000000,0.004242593036
1082.000000,0.00448298708
1083.000000,0.004229862413
1084.000000,0.004165893604
1085.000000,0.005328243507
1086.000000,0.005015997814
1087.000000,0.004736417981
1088.000000,0.00374968793
1089.000000,0.0055425932
1090.000000,0.004396793863
1091.000000,0.003818969973
1092.000000,0.003952798206
1093.000000,0.00385159879
1094.000000,0.00541546142
1095.000000,0.004255027241
1096.000000,0.004163865102
1097.000000,0.002825036638
1098.000000,0.004562479335
1099.000000,0.003479559378
1100.000000,0.003436035692
1101.000000,0.004486201965
1102.000000,0.003599617247
1103.000000,0.004626495354
1104.000000,0.004803816095
1105.000000,0.003057233565
1106.000000,0.004060911674
1107.000000,0.003204853436
1108.000000,0.004126681464
1109.000000,0.004726458715
1110.000000,0.003370916643
1111.000000,0.005294458833
1112.000000,0.004040712458
1113.000000,0.003536466021
1114.000000,0.004197575653
1115.000000,0.004775699795
1116.000000,0.003498437558
1117.000000,0.004361030353
1118.000000,0.003568434268
1119.000000,0.00515988897
1120.000000,0.004571235697
1121.000000,0.004269525547
1122.000000,0.005201636232
1123.000000,0.003860393331
1124.000000,0.004463705312
1125.000000,0.00588336924
1126.000000,0.004775668731
1127.000000,0.005754946298
1128.000000,0.005152874009
1129.000000,0.004722553223
1130.000000,0.005117387843
1131.000000,0.005448721341
1132.000000,0.005309536985
1133.000000,0.005234059492
1134.000000,0.005457477429
1135.000000,0.00526063294
1136.000000,0.006479495254
1137.000000,0.00694905083
1138.000000,0.007510318957
1139.000000,0.00637788478
1140.000000,0.008428685454
1141.000000,0.008500784342
1142.000000,0.008330453659
1143.000000,0.01007083132
1144.000000,0.01150413851
1145.000000,0.01256208955
1146.000000,0.01421880259
1147.000000,0.01627597847
1148.000000,0.01867467252
1149.000000,0.02117987461
1150.000000,0.02378234317
1151.000000,0.02924347619
1152.000000,0.03524911588
1153.000000,0.04014239181
1154.000000,0.04508254507
1155.000000,0.04682888265
1156.000000,0.04482031015
1157.000000,0.04180211326
1158.000000,0.03481953947
1159.000000,0.03076648228
1160.000000,0.02539719004
1161.000000,0.02152755391
1162.000000,0.01945006618
1163.000000,0.01647706975
1164.000000,0.01564208568
1165.000000,0.01311522801
1166.000000,0.01286475384
1167.000000,0.0116339273
1168.000000,0.01152950044
1169.000000,0.011181475
1170.000000,0.01065350884
1171.000000,0.01184947502
1172.000000,0.01103436691
1173.000000,0.01176025707
1174.000000,0.01373803253
1175.000000,0.01499327952
1176.000000,0.01647069318
1177.000000,0.01852265435
1178.000000,0.02268204645
1179.000000,0.02444593693
1180.000000,0.02942338189
1181.000000,0.0343107414
1182.000000,0.03960290847
1183.000000,0.04083919308
1184.000000,0.03954741042
1185.000000,0.03512577306
1186.000000,0.02917548542
1187.000000,0.02392224852
1188.000000,0.01974381213
1189.000000,0.01845648558
1190.000000,0.01521528832
1191.000000,0.01306240397
1192.000000,0.01100029961
1193.000000,0.00990376358
1194.000000,0.008874705803
1195.000000,0.008127485833
1196.000000,0.006254936982
1197.000000,0.007153161448
1198.000000,0.006532225291
1199.000000,0.006576366825
1200.000000,0.006221341538
1201.000000,0.006345885877
1202.000000,0.005596647806
1203.000000,0.005886385914
1204.000000,0.003690762583
1205.000000,0.004416823025
1206.000000,0.005983677232
1207.000000,0.004089479692
1208.000000,0.004547558615
1209.000000,0.005044084399
1210.000000,0.003999317924
1211.000000,0.004886431236
1212.000000,0.003519128091
1213.000000,0.003161043457
1214.000000,0.003452486707
1215.000000,0.003201838696
1216.000000,0.004136155451
1217.000000,0.003908546307
1218.000000,0.004254329064
1219.000000,0.00339267638
1220.000000,0.00551039298
1221.000000,0.003886913764
1222.000000,0.003884517383
1223.000000,0.004156380869
1224.000000,0.003707077713
1225.000000,0.003447048688
1226.000000,0.003854218832
1227.000000,0.004332543759
1228.000000,0.004158283702
1229.000000,0.004304061572
1230.000000,0.003377817049
1231.000000,0.003232698332
1232.000000,0.004889117528
1233.000000,0.003521989832
1234.000000,0.0039385883
1235.000000,0.004080589083
1236.000000,0.004477684045
1237.000000,0.002795356684
1238.000000,0.00330738556
1239.000000,0.003323606516
1240.000000,0.003391860496
1241.000000,0.002109742677
1242.000000,0.003494489914
1243.000000,0.001800021977
1244.000000,0.003713003902
1245.000000,0.003848461854
1246.000000,0.00387643003
1247.000000,0.00278286862
1248.000000,0.004075910712
1249.000000,0.002973157905
1250.000000,0.002747537417
1251.000000,0.002889514223
1252.000000,0.002963015876
1253.000000,0.003571395583
1254.000000,0.003958414693
1255.000000,0.002190734476
1256.000000,0.003125210406
1257.000000,0.003989147749
1258.000000,0.003564018974
1259.000000,0.003743311693
1260.000000,0.002530547957
1261.000000,0.004003637638
1262.000000,0.002483405487
1263.000000,0.003538718151
1264.000000,0.004240226008
1265.000000,0.004548622043
1266.000000,0.003721518708
1267.000000,0.003940716986
1268.000000,0.003041972449
1269.000000,0.003114210923
1270.000000,0.004105514286
1271.000000,0.003399588442
1272.000000,0.003319404763
1273.000000,0.002544235666
1274.000000,0.00348204301
1275.000000,0.003778119303
1276.000000,0.002908904761
1277.000000,0.00307985351
1278.000000,0.004335117327
1279.000000,0.003489032937
1280.000000,0.003206298764
1281.000000,0.002693919714
1282.000000,0.00300410388
1283.000000,0.003225374336
1284.000000,0.004199199005
1285.000000,0.003006012215
1286.000000,0.00445317128
1287.000000,0.002812510814
1288.000000,0.003155614273
1289.000000,0.003878203509
1290.000000,0.00322497062
1291.000000,0.002869108462
1292.000000,0.003289240826
1293.000000,0.003638485536
1294.000000,0.002334818852
1295.000000,0.003218158076
1296.000000,0.003301882619
1297.000000,0.003124578073
1298.000000,0.003810598174
1299.000000,0.003025558078
1300.000000,0.003148662885
1301.000000,0.003391155807
1302.000000,0.003807792715
1303.000000,0.003236196525
1304.000000,0.004283217797
1305.000000,0.002823984969
1306.000000,0.004146053635
1307.000000,0.002855587251
1308.000000,0.003274861417
1309.000000,0.003593268354
1310.000000,0.004612510884
1311.000000,0.003915729126
1312.000000,0.003133116727
1313.000000,0.004161161912
1314.000000,0.003251582035
1315.000000,0.00290518341
1316.000000,0.003653568552
1317.000000,0.003441955075
1318.000000,0.00396112994
1319.000000,0.003057676904
1320.000000,0.003620425001
1321.000000,0.003774870162
1322.000000,0.003562351776
1323.000000,0.003379725734
1324.000000,0.002979447567
1325.000000,0.00394623436
1326.000000,0.003487215193
1327.000000,0.003706126259
1328.000000,0.003198815015
1329.000000,0.003420784131
1330.000000,0.002791360988
1331.000000,0.003470597607
1332.000000,0.003883145279
1333.000000,0.003481721321
1334.000000,0.003946735869
1335.000000,0.003621282509
1336.000000,0.004257908412
1337.000000,0.003326068803
1338.000000,0.002457794682
1339.000000,0.003709172731
1340.000000,0.003353591289
1341.000000,0.002870844861
1342.000000,0.00385437172
1343.000000,0.003626167397
1344.000000,0.003740138341
1345.000000,0.003276953114
1346.000000,0.003601084136
1347.000000,0.003641089211
1348.000000,0.004562295177
1349.000000,0.003087647636
1350.000000,0.003499294282
1351.000000,0.003731031797
1352.000000,0.002479807341
1353.000000,0.002559917773
1354.000000,0.004836411368
1355.000000,0.002475290633
1356.000000,0.00389312273
1357.000000,0.003043872093
1358.000000,0.003103122508
1359.000000,0.002377150912
1360.000000,0.00303719416
1361.000000,0.004060863627
1362.000000,0.002761484477
1363.000000,0.00396589835
1364.000000,0.003805933645
1365.000000,0.004842957034
1366.000000,0.003352489517
1367.000000,0.004410135203
1368.000000,0.004196090079
1369.000000,0.003500139054
1370.000000,0.002683759523
1371.000000,0.004607009308
1372.000000,0.002889821816
1373.000000,0.003440271073
1374.000000,0.004271667249
1375.000000,0.004426907037
1376.000000,0.003261462046
1377.000000,0.003767636802
1378.000000,0.003648211153
1379.000000,0.004533176512
1380.000000,0.005348410515
1381.000000,0.002757532976
1382.000000,0.004431471666
1383.000000,0.002179520126
1384.000000,0.003931144898
1385.000000,0.003277996036
1386.000000,0.005169216245
1387.000000,0.004095179856
1388.000000,0.003577751961
1389.000000,0.003748459909
1390.000000,0.003731786064
1391.000000,0.00422215864
1392.000000,0.004045621817
1393.000000,0.004569578761
1394.000000,0.005137671919
1395.000000,0.00466996938
1396.000000,0.003548789719
1397.000000,0.003350908442
1398.000000,0.003917861621
1399.000000,0.005053550411
1400.000000,0.004266846522
1401.000000,0.004118838147
1402.000000,0.004659528558
1403.000000,0.003782712396
1404.000000,0.004011634315
1405.000000,0.005071686918
1406.000000,0.004652893137
1407.000000,0.004638395645
1408.000000,0.005183732776
1409.000000,0.00472713071
1410.000000,0.004759224262
1411.000000,0.00499568656
1412.000000,0.005743152196
1413.000000,0.005532363702
1414.000000,0.004902328434
1415.000000,0.005574839081
1416.000000,0.00629475087
1417.000000,0.007190734435
1418.000000,0.005550308757
1419.000000,0.006632035513
1420.000000,0.006480232572
1421.000000,0.007361232318
1422.000000,0.007385753916
1423.000000,0.008278424861
1424.000000,0.008011131614
1425.000000,0.007710301639
1426.000000,0.008093289341
1427.000000,0.009085673579
1428.000000,0.009554978417
1429.000000,0.01129717093
1430.000000,0.01146916206
1431.000000,0.01044231995
1432.000000,0.01214696005
1433.000000,0.01203742024
1434.000000,0.01288272752
1435.000000,0.01553338372
1436.000000,0.01682196987
1437.000000,0.01750708444
1438.000000,0.02105291708
1439.000000,0.02175180156
1440.000000,0.02433032835
1441.000000,0.02861244473
1442.000000,0.0321108746
1443.000000,0.03627991465
1444.000000,0.04140393396
1445.000000,0.04725769545
1446.000000,0.05311447566
1447.000000,0.05912377185
1448.000000,0.06336788075
1449.000000,0.06737855714
1450.000000,0.0698820461
1451.000000,0.06776795186
1452.000000,0.06484871776
1453.000000,0.05998785892
1454.000000,0.05300643884
1455.000000,0.04732042206
1456.000000,0.04272729486
1457.000000,0.03683308028
1458.000000,0.03313050943
1459.000000,0.02919190469
1460.000000,0.02554180207
1461.000000,0.02233331861
1462.000000,0.01962193448
1463.000000,0.01753457991
1464.000000,0.01685983342
1465.000000,0.01545059687
1466.000000,0.01386345693
1467.000000,0.01344460305
1468.000000,0.01167271593
1469.000000,0.01192430297
1470.000000,0.01059659594
1471.000000,0.009950262765
1472.000000,0.009442197304
1473.000000,0.008913629083
1474.000000,0.01005397715
1475.000000,0.007212604014
1476.000000,0.007956137825
1477.000000,0.008298895724
1478.000000,0.0077117576
1479.000000,0.006853800752
1480.000000,0.007862585246
1481.000000,0.005970610862
1482.000000,0.005644788204
1483.000000,0.006606962115
1484.000000,0.005236852193
1485.000000,0.004541466911
1486.000000,0.00637740269
1487.000000,0.006186981232
1488.000000,0.006061703567
1489.000000,0.005227988201
1490.000000,0.005540312098
1491.000000,0.004764568213
1492.000000,0.006312511177
1493.000000,0.005672663162
1494.000000,0.005576992946
1495.000000,0.003894523199
1496.000000,0.005498349171
1497.000000,0.005859612894
1498.000000,0.005644165168
1499.000000,0.005342484958
1500.000000,0.004825737542
1501.000000,0.004582775013
1502.000000,0.005116304773
1503.000000,0.00495278417
1504.000000,0.004835644049
1505.000000,0.004480700249
1506.000000,0.005655406402
1507.000000,0.003918137765
1508.000000,0.004588423915
1509.000000,0.004235486298
1510.000000,0.005191222732
1511.000000,0.005418036534
1512.000000,0.005294612947
1513.000000,0.004991041943
1514.000000,0.003684069927
1515.000000,0.00577633461
1516.000000,0.004830325533
1517.000000,0.004451750694
1518.000000,0.004529640945
1519.000000,0.004313602983
1520.000000,0.004776407271
1521.000000,0.004712769126
1522.000000,0.004315737045
1523.000000,0.002993403624
1524.000000,0.00452997568
1525.000000,0.004850281188
1526.000000,0.004893884513
1527.000000,0.004500452214
1528.000000,0.00488367398
1529.000000,0.005249827313
1530.000000,0.004369453198
1531.000000,0.005559879121
1532.000000,0.003526159847
1533.000000,0.003973213378
1534.000000,0.004219187288
1535.000000,0.003326612721
1536.000000,0.004233859779
1537.000000,0.005627987057
1538.000000,0.005667468654
1539.000000,0.005025559038
1540.000000,0.006054123025
1541.000000,0.005216827699
1542.000000,0.004832011939
1543.000000,0.005341145588
1544.000000,0.005181971871
1545.000000,0.005782154176
1546.000000,0.004514301647
1547.000000,0.00610823763
1548.000000,0.005323869721
1549.000000,0.006217749032
1550.000000,0.004885525432
1551.000000,0.005681542041
1552.000000,0.006112260375
1553.000000,0.006751309481
1554.000000,0.005631914551
1555.000000,0.00754089361
1556.000000,0.007016133026
1557.000000,0.006616838392
1558.000000,0.00789641731
1559.000000,0.007480280025
1560.000000,0.008399903287
1561.000000,0.009418782898
1562.000000,0.008838991961
1563.000000,0.008461055131
1564.000000,0.008977722176
1565.000000,0.01010474026
1566.000000,0.01052382194
1567.000000,0.01053791884
1568.000000,0.01143917371
1569.000000,0.01318315703
1570.000000,0.0153084954
1571.000000,0.01364072537
1572.000000,0.01726382846
1573.000000,0.01865398649
1574.000000,0.02165396076
1575.000000,0.02469217795
1576.000000,0.02793393363
1577.000000,0.03196605281
1578.000000,0.03754856673
1579.000000,0.04430254533
1580.000000,0.0542170914
1581.000000,0.06154798469
1582.000000,0.06798002343
1583.000000,0.07119409393
1584.000000,0.06909798523
1585.000000,0.06510346489
1586.000000,0.05926536048
1587.000000,0.0530069731
1588.000000,0.04646192196
1589.000000,0.04485005484
1590.000000,0.04175332278
1591.000000,0.04076437788
1592.000000,0.04240761348
1593.000000,0.04544839467
1594.000000,0.05083496063
1595.000000,0.05742801447
1596.000000,0.06747769685
1597.000000,0.08268815152
1598.000000,0.1037026263
1599.000000,0.1275895447
1600.000000,0.1575953286
1601.000000,0.1832355237
1602.000000,0.1953536048
1603.000000,0.1812690338
1604.000000,0.1564037938
1605.000000,0.1248294284
1606.000000,0.09886745403
1607.000000,0.07846272908
1608.000000,0.0648384844
1609.000000,0.05080236012
1610.000000,0.04135586364
1611.000000,0.03659385562
1612.000000,0.03013958685
1613.000000,0.0264393229
1614.000000,0.02333489537
1615.000000,0.02079187758
1616.000000,0.01848955826
1617.000000,0.01697976091
1618.000000,0.01556746323
1619.000000,0.01459414402
1620.000000,0.0127534679
1621.000000,0.01164117275
1622.000000,0.0106564388
1623.000000,0.01096098197
1624.000000,0.009968801181
1625.000000,0.009794334321
1626.000000,0.009310748729
1627.000000,0.009579286945
1628.000000,0.00831105508
1629.000000,0.008299674013
1630.000000,0.006816326624
1631.000000,0.006612978321
1632.000000,0.006824305562
1633.000000,0.006050280752
1634.000000,0.006988983098
1635.000000,0.005579293985
1636.000000,0.006247164126
1637.000000,0.004563660763
1638.000000,0.005229010029
1639.000000,0.005551764044
1640.000000,0.005471690666
1641.000000,0.00442967699
1642.000000,0.005463197729
1643.000000,0.00588150905
1644.000000,0.005588369911
1645.000000,0.00471121545
1646.000000,0.004669647408
1647.000000,0.004229672382
1648.000000,0.005248829681
1649.000000,0.005667678353
1650.000000,0.004416832004
1651.000000,0.00364892895
1652.000000,0.004733012526
1653.000000,0.004983237838
1654.000000,0.002865245085
1655.000000,0.004537983547
1656.000000,0.005710801911
1657.000000,0.004856791876
1658.000000,0.004651490373
1659.000000,0.004521650445
1660.000000,0.004880393315
1661.000000,0.003637436341
1662.000000,0.003660109811
1663.000000,0.004381159466
1664.000000,0.00369110527
1665.000000,0.004229072462
1666.000000,0.002892386041
1667.000000,0.004472597823
1668.000000,0.004499450279
1669.000000,0.003990080696
1670.000000,0.004038204043
1671.000000,0.004891528048
1672.000000,0.003240719902
1673.000000,0.003321288883
1674.000000,0.003191581945
1675.000000,0.003574365384
1676.000000,0.00320186642
1677.000000,0.003814428548
1678.000000,0.003382291692
1679.000000,0.002884186729
1680.000000,0.002806653568
1681.000000,0.004453680836
1682.000000,0.003667015649
1683.000000,0.003556582041
1684.000000,0.003694978622
1685.000000,0.00361536534
1686.000000,0.004106729963
1687.000000,0.003976885612
1688.000000,0.003270504491
1689.000000,0.003117422974
1690.000000,0.002947040587
1691.000000,0.00283651533
1692.000000,0.004423113493
1693.000000,0.003016014261
1694.000000,0.002341605584
1695.000000,0.003039327559
1696.000000,0.003062639643
1697.000000,0.003726417182
1698.000000,0.002984944909
1699.000000,0.003831440658
1700.000000,0.003734592571
1701.000000,0.004254946142
1702.000000,0.004788701132
1703.000000,0.00519125599
1704.000000,0.004281280042
1705.000000,0.002761824652
1706.000000,0.003209329277
1707.000000,0.00359461072
1708.000000,0.004683815987
1709.000000,0.003838994312
1710.000000,0.004149494926
1711.000000,0.003313560473
1712.000000,0.003767404959
1713.000000,0.003838220925
1714.000000,0.003124900018
1715.000000,0.003861870181
1716.000000,0.004032837548
1717.000000,0.003287021843
1718.000000,0.003990008515
1719.000000,0.00436390813
1720.000000,0.00340622456
1721.000000,0.003361379689
1722.000000,0.003169742531
1723.000000,0.002978368287
1724.000000,0.003440566658
1725.000000,0.003093874184
1726.000000,0.003149438858
1727.000000,0.0028670638
1728.000000,0.002403500992
1729.000000,0.002759823263
1730.000000,0.003518157951
1731.000000,0.002603486102
1732.000000,0.002921753337
1733.000000,0.004296920113
1734.000000,0.003982572349
1735.000000,0.002882882273
1736.000000,0.003660114164
1737.000000,0.002901573047
1738.000000,0.004269743718
1739.000000,0.002933479575
1740.000000,0.00333199316
1741.000000,0.004113371348
1742.000000,0.002777668212
1743.000000,0.004058578198
1744.000000,0.00277761838
1745.000000,0.003410239818
1746.000000,0.003085773173
1747.000000,0.003207534177
1748.000000,0.003354332798
1749.000000,0.003210312381
1750.000000,0.002639664311
1751.000000,0.003771384369
1752.000000,0.003680747914
1753.000000,0.004020925608
1754.000000,0.004075603781
1755.000000,0.002429742816
1756.000000,0.004010669634
1757.000000,0.004015569894
1758.000000,0.00291116831
1759.000000,0.003854010723
1760.000000,0.004111113787
1761.000000,0.002900195511
1762.000000,0.00239215176
1763.000000,0.003003695598
1764.000000,0.004899748866
1765.000000,0.003358153967
1766.000000,0.002482596788
1767.000000,0.003059382153
1768.000000,0.00261106253
1769.000000,0.002967220378
1770.000000,0.003262983451
1771.000000,0.001661195176
1772.000000,0.0034188681
1773.000000,0.004051854085
1774.000000,0.003079260956
1775.000000,0.002965841006
1776.000000,0.003853046236
1777.000000,0.002429989867
1778.000000,0.002440748536
1779.000000,0.002351936029
1780.000000,0.003092841873
1781.000000,0.003423232137
1782.000000,0.003129781415
1783.000000,0.00351378214
1784.000000,0.003681394936
1785.000000,0.003478607784
1786.000000,0.002691076106
1787.000000,0.003015082289
1788.000000,0.003926703434
1789.000000,0.002543259389
1790.000000,0.003019500754
1791.000000,0.002919404358
1792.000000,0.003060825609
1793.000000,0.002520133379
1794.000000,0.002353968246
1795.000000,0.004704328773
1796.000000,0.003733443697
1797.000000,0.002733398033
1798.000000,0.003125723797
1799.000000,0.003567459294
1800.000000,0.002951750417
1801.000000,0.003528717619
1802.000000,0.002785717576
1803.000000,0.002939124085
1804.000000,0.00310278686
1805.000000,0.002877161008
1806.000000,0.00167444608
1807.000000,0.003163090569
1808.000000,0.00330676825
1809.000000,0.003434866855
1810.000000,0.00254844608
1811.000000,0.003353222825
1812.000000,0.00327474191
1813.000000,0.002078637383
1814.000000,0.001816776
1815.000000,0.003428638978
1816.000000,0.002566101695
1817.000000,0.003743204751
1818.000000,0.004427596968
1819.000000,0.002786808757
1820.000000,0.002721606487
1821.000000,0.003128749498
1822.000000,0.003541169862
1823.000000,0.002449953908
1824.000000,0.003882996357
1825.000000,0.00372898012
1826.000000,0.003529290125
1827.000000,0.002805209184
1828.000000,0.003681197573
1829.000000,0.003644747004
1830.000000,0.002404482987
1831.000000,0.004385518032
1832.000000,0.002945030929
1833.000000,0.003347494039
1834.000000,0.002808719459
1835.000000,0.003355327832
1836.000000,0.003821333151
1837.000000,0.002635774339
1838.000000,0.002124306174
1839.000000,0.002849431293
1840.000000,0.002333161277
1841.000000,0.00266208616
1842.000000,0.003041974219
1843.000000,0.003078767502
1844.000000,0.003893929041
1845.000000,0.002504854314
1846.000000,0.003327631702
1847.000000,0.002808880791
1848.000000,0.003935847806
1849.000000,0.004635281657
1850.000000,0.003295184211
1851.000000,0.004119953458
1852.000000,0.002791831317
1853.000000,0.002147313598
1854.000000,0.002344782654
1855.000000,0.002158245964
1856.000000,0.002533573545
1857.000000,0.002963218895
1858.000000,0.003799822076
1859.000000,0.003528071219
1860.000000,0.003385284065
1861.000000,0.002850237506
1862.000000,0.002670078792
1863.000000,0.00312423924
1864.000000,0.003186519234
1865.000000,0.003257321575
1866.000000,0.003326198299
1867.000000,0.003031060948
1868.000000,0.001942322301
1869.000000,0.002429180734
1870.000000,0.002603033746
1871.000000,0.004121403056
1872.000000,0.002841816565
1873.000000,0.003505070368
1874.000000,0.003979784149
1875.000000,0.00329826126
1876.000000,0.0028604594
1877.000000,0.002919901884
1878.000000,0.002480293666
1879.000000,0.003280048266
1880.000000,0.003774258933
1881.000000,0.003437586709
1882.000000,0.003558437426
1883.000000,0.003525650299
1884.000000,0.004299781975
1885.000000,0.002710838916
1886.000000,0.003186895246
1887.000000,0.003516393495
1888.000000,0.003842185534
1889.000000,0.001628751152
1890.000000,0.002775636723
1891.000000,0.002964178264
1892.000000,0.002469380329
1893.000000,0.003598967913
1894.000000,0.003220268397
1895.000000,0.00284922405
1896.000000,0.002103485381
1897.000000,0.002289943684
1898.000000,0.00249332088
1899.000000,0.003360134047
1900.000000,0.002351616191
1901.000000,0.001839245461
1902.000000,0.002210329611
1903.000000,0.002728136601
1904.000000,0.004091825212
1905.000000,0.004590429406
1906.000000,0.002793531363
1907.000000,0.003651395165
1908.000000,0.003926417265
1909.000000,0.003855775836
1910.000000,0.003011536208
1911.000000,0.00229739223
1912.000000,0.002787059594
1913.000000,0.001959479932
1914.000000,0.003224070661
1915.000000,0.003548197029
1916.000000,0.001939710057
1917.000000,0.003048075255
1918.000000,0.003254975506
1919.000000,0.003830891565
1920.000000,0.003908404779
1921.000000,0.003560386404
1922.000000,0.002663986296
1923.000000,0.002855371751
1924.000000,0.003802052309
1925.000000,0.002711642122
1926.000000,0.003050735095
1927.000000,0.004015741249
1928.000000,0.003152525546
1929.000000,0.002247480045
1930.000000,0.002896869527
1931.000000,0.003459538694
1932.000000,0.002959617013
1933.000000,0.003773240437
1934.000000,0.003845610086
1935.000000,0.002681381333
1936.000000,0.002769690806
1937.000000,0.003009869356
1938.000000,0.002348694866
1939.000000,0.003299594523
1940.000000,0.002963250283
1941.000000,0.003544322039
1942.000000,0.002709818405
1943.000000,0.002541118532
1944.000000,0.004177296366
1945.000000,0.002540808585
1946.000000,0.002717387929
1947.000000,0.002628666086
1948.000000,0.002886039132
1949.000000,0.002517572175
1950.000000,0.00304183536
1951.000000,0.002644186184
1952.000000,0.002817344568
1953.000000,0.003286594221
1954.000000,0.003490324535
1955.000000,0.003348779983
1956.000000,0.002624066826
1957.000000,0.00330621944
1958.000000,0.00299425282
1959.000000,0.003002508704
1960.000000,0.00202909646
1961.000000,0.003470283545
1962.000000,0.002981706637
1963.000000,0.004093012591
1964.000000,0.003450736036
1965.000000,0.00239268075
1966.000000,0.002238471905
1967.000000,0.003757644142
1968.000000,0.002537467813
1969.000000,0.003476252373
1970.000000,0.002882705224
1971.000000,0.004330485545
1972.000000,0.003111645935
1973.000000,0.003975897279
1974.000000,0.003866294032
1975.000000,0.00278502115
1976.000000,0.002866091225
1977.000000,0.003959169519
1978.000000,0.003066246425
1979.000000,0.002543473552
1980.000000,0.003792385598
1981.000000,0.004617874721
1982.000000,0.003046951087
1983.000000,0.003915031365
1984.000000,0.002976451746
1985.000000,0.00389216457
1986.000000,0.002932900871
1987.000000,0.003881190178
1988.000000,0.003407805125
1989.000000,0.002971182254
1990.000000,0.00322553519
1991.000000,0.002757681791
1992.000000,0.002407082542
1993.000000,0.002450207903
1994.000000,0.003053412878
1995.000000,0.002451812515
1996.000000,0.003355356545
1997.000000,0.003411636689
1998.000000,0.003376211183
1999.000000,0.002794492169
2000.000000,0.00312869008
