raman_shift_cm-1,intensity
200.000000,0.004259493096
201.000000,0.001493181668
202.000000,0.003282959114
203.000000,0.002689697809
204.000000,0.002759048707
205.000000,0.002901782608
206.000000,0.001815909377
207.000000,0.002892088635
208.000000,0.002511028246
209.000000,0.005031704074
210.000000,0.003167767662
211.000000,0.002819726962
212.000000,0.002862734405
213.000000,0.002630040951
214.000000,0.002397140086
215.000000,0.002797039646
216.000000,0.003322359757
217.000000,0.002888811945
218.000000,0.003608865656
219.000000,0.002912280224
220.000000,0.003047201824
221.000000,0.003963002465
222.000000,0.003360813134
223.000000,0.00272876189
224.000000,0.002922862272
225.000000,0.003358282845
226.000000,0.00419765372
227.000000,0.002870863257
228.000000,0.002886625196
229.000000,0.003636510392
230.000000,0.002499861382
231.000000,0.00285787412
232.000000,0.003564661512
233.000000,0.003382873503
234.000000,0.003088757136
235.000000,0.003437050853
236.000000,0.001331757821
237.000000,0.003648578291
238.000000,0.002456457147
239.000000,0.002029854459
240.000000,0.003200542663
241.000000,0.003455862884
242.000000,0.00276665931
243.000000,0.002386602392
244.000000,0.003050226888
245.000000,0.00300284418
246.000000,0.003880610933
247.000000,0.003484576288
248.000000,0.003151492638
249.000000,0.003703953179
250.000000,0.002911332292
251.000000,0.002477873931
252.000000,0.003386705916
253.000000,0.003385880589
254.000000,0.002906088218
255.000000,0.002564349563
256.000000,0.003173473471
257.000000,0.001534743662
258.000000,0.003451084955
259.000000,0.003331559406
260.000000,0.002049611886
261.000000,0.003072949422
262.000000,0.00245589194
263.000000,0.0034919354
264.000000,0.00181208031
265.000000,0.002486033117
266.000000,0.003463552397
267.000000,0.003732561806
268.000000,0.001737939399
269.000000,0.002737060965
270.000000,0.003234310902
271.000000,0.002670350902
272.000000,0.003994398751
273.000000,0.002320279647
274.000000,0.003250670929
275.000000,0.002406438997
276.000000,0.003883663397
277.000000,0.003024581557
278.000000,0.002813683939
279.000000,0.002003761111
280.000000,0.004050107272
281.000000,0.003491082652
282.000000,0.00349166285
283.000000,0.003723066259
284.000000,0.003248536576
285.000000,0.002653750176
286.000000,0.00255696879
287.000000,0.002557104926
288.000000,0.003863359436
289.000000,0.002160010718
290.000000,0.002680115461
291.000000,0.002845809652
292.000000,0.003174443428
293.000000,0.003385640696
294.000000,0.002287744686
295.000000,0.001998430738
296.000000,0.003037072508
297.000000,0.003770211732
298.000000,0.00349559146
299.000000,0.003169875477
300.000000,0.002849336638
301.000000,0.003216812104
302.000000,0.002894010714
303.000000,0.003532404677
304.000000,0.002562582909
305.000000,0.003121624316
306.000000,0.002974290315
307.000000,0.00336810156
308.000000,0.003176413843
309.000000,0.004576045071
310.000000,0.003943420588
311.000000,0.003942398568
312.000000,0.001814303555
313.000000,0.002837065262
314.000000,0.002675732017
315.000000,0.003362759968
316.000000,0.001670693074
317.000000,0.00374927812
318.000000,0.003684710982
319.000000,0.00225907526
320.000000,0.002453923169
321.000000,0.002560816738
322.000000,0.003069189315
323.000000,0.003429034887
324.000000,0.004275909173
325.000000,0.002924740582
326.000000,0.003505626659
327.000000,0.003137402888
328.000000,0.004103200208
329.000000,0.003490824832
330.000000,0.003867961735
331.000000,0.002395895501
332.000000,0.002928934951
333.000000,0.002555033033
334.000000,0.003950674061
335.000000,0.003440895297
336.000000,0.002861620026
337.000000,0.002773117693
338.000000,0.003337278712
339.000000,0.002623572278
340.000000,0.002485862172
341.000000,0.003335736069
342.000000,0.004528652925
343.000000,0.002898296488
344.000000,0.002712060892
345.000000,0.002341931245
346.000000,0.00224349292
347.000000,0.003363075673
348.000000,0.003559342513
349.000000,0.003053001596
350.000000,0.003247815992
351.000000,0.003117605402
352.000000,0.003131473946
353.000000,0.002129718807
354.000000,0.002772688623
355.000000,0.00311568033
356.000000,0.002577442942
357.000000,0.002762239797
358.000000,0.002556191229
359.000000,0.002848651446
360.000000,0.003562987517
361.000000,0.002805064149
362.000000,0.002957354473
363.000000,0.003539884963
364.000000,0.00343841127
365.000000,0.004070806446
366.000000,0.001792658869
367.000000,0.003566679811
368.000000,0.002760951546
369.000000,0.003132483077
370.000000,0.00355580543
371.000000,0.003703794809
372.000000,0.003677593903
373.000000,0.003145649515
374.000000,0.004021275327
375.000000,0.002882450765
376.000000,0.002968136331
377.000000,0.003534292348
378.000000,0.002721616164
379.000000,0.004354192914
380.000000,0.003667319028
381.000000,0.004363501978
382.000000,0.003038409784
383.000000,0.002824103067
384.000000,0.003155442682
385.000000,0.003497251921
386.000000,0.002701879828
387.000000,0.003284187523
388.000000,0.003045816502
389.000000,0.004028563468
390.000000,0.002657621136
391.000000,0.003686340256
392.000000,0.002669497281
393.000000,0.002479127772
394.000000,0.002630064223
395.000000,0.002341532151
396.000000,0.00314618701
397.000000,0.003679041478
398.000000,0.003157573383
399.000000,0.003434715068
400.000000,0.004041567748
401.000000,0.003222080422
402.000000,0.003177326809
403.000000,0.002894635914
404.000000,0.002092592143
405.000000,0.003518034959
406.000000,0.002004018221
407.000000,0.003454237171
408.000000,0.003053139784
409.000000,0.003740220353
410.000000,0.003021630431
411.000000,0.002567322629
412.000000,0.003278493535
413.000000,0.002726265578
414.000000,0.002954875937
415.000000,0.003089332654
416.000000,0.002983512811
417.000000,0.002951222092
418.000000,0.002564221135
419.000000,0.002951756608
420.000000,0.001779032689
421.000000,0.002971648455
422.000000,0.002345689443
423.000000,0.003741320031
424.000000,0.003831785549
425.000000,0.001893707006
426.000000,0.00315551885
427.000000,0.002992661861
428.000000,0.002439177624
429.000000,0.003389512387
430.000000,0.00279211081
431.000000,0.002006601745
432.000000,0.002910343819
433.000000,0.002982057762
434.000000,0.00313578394
435.000000,0.002331187938
436.000000,0.003443183699
437.000000,0.003515736641
438.000000,0.002383991021
439.000000,0.002677547771
440.000000,0.003026207128
441.000000,0.002734458737
442.000000,0.00412500317
443.000000,0.003201467768
444.000000,0.002468376953
445.000000,0.002602792844
446.000000,0.003043047514
447.000000,0.004459851292
448.000000,0.00297143735
449.000000,0.003155998551
450.000000,0.003389213338
451.000000,0.003056267834
452.000000,0.004453577087
453.000000,0.002761700866
454.000000,0.003530077141
455.000000,0.003179357697
456.000000,0.003457277138
457.000000,0.002375906871
458.000000,0.004148798958
459.000000,0.003012200392
460.000000,0.003106561013
461.000000,0.002523972048
462.000000,0.002648199763
463.000000,0.003427627095
464.000000,0.003682463426
465.000000,0.003542806533
466.000000,0.00381780154
467.000000,0.003520948884
468.000000,0.003108830509
469.000000,0.003595919424
470.000000,0.003450502862
471.000000,0.003033519424
472.000000,0.003531834496
473.000000,0.003869460673
474.000000,0.003237698248
475.000000,0.002883005075
476.000000,0.003530797423
477.000000,0.004243058738
478.000000,0.002973322265
479.000000,0.003045412391
480.000000,0.003019818331
481.000000,0.003838917348
482.000000,0.001998153567
483.000000,0.003325014355
484.000000,0.003823395865
485.000000,0.002617365886
486.000000,0.004004059806
487.000000,0.003431188113
488.000000,0.002779693023
489.000000,0.003234102055
490.000000,0.002188881363
491.000000,0.002773180738
492.000000,0.004214247232
493.000000,0.002578055066
494.000000,0.004227348359
495.000000,0.003069404164
496.000000,0.0037184218
497.000000,0.003147550657
498.000000,0.001773494884
499.000000,0.002779245031
500.000000,0.003239570176
501.000000,0.002434087046
502.000000,0.002317341366
503.000000,0.003350167353
504.000000,0.00274050741
505.000000,0.002112341716
506.000000,0.002722862858
507.000000,0.003654286087
508.000000,0.002852870016
509.000000,0.003702327481
510.000000,0.004060722357
511.000000,0.003162982058
512.000000,0.002465434526
513.000000,0.002363942494
514.000000,0.00313347105
515.000000,0.003681577263
516.000000,0.003315343329
517.000000,0.003484968507
518.000000,0.002891022587
519.000000,0.003340936665
520.000000,0.002878839046
521.000000,0.002968948764
522.000000,0.002389687589
523.000000,0.002223759989
524.000000,0.00288255386
525.000000,0.002508741079
526.000000,0.002601128044
527.000000,0.003584879425
528.000000,0.003119552254
529.000000,0.004940885026
530.000000,0.003747736884
531.000000,0.002812427789
532.000000,0.003665106054
533.000000,0.003415096466
534.000000,0.002791294756
535.000000,0.003871260908
536.000000,0.002744912532
537.000000,0.001374876957
538.000000,0.003697529025
539.000000,0.002852414664
540.000000,0.004122669909
541.000000,0.002841910649
542.000000,0.002526678249
543.000000,0.004174502466
544.000000,0.002600432776
545.000000,0.003375427221
546.000000,0.004131034767
547.000000,0.003333190388
548.000000,0.003221756238
549.000000,0.003338113883
550.000000,0.003787917753
551.000000,0.002804128803
552.000000,0.0036642365
553.000000,0.003651378624
554.000000,0.004715646878
555.000000,0.003117222214
556.000000,0.002777556725
557.000000,0.003779659084
558.000000,0.003107055313
559.000000,0.003529698005
560.000000,0.003445577448
561.000000,0.004079558736
562.000000,0.002992201037
563.000000,0.003343671755
564.000000,0.00187557679
565.000000,0.002888796405
566.000000,0.004362796811
567.000000,0.003042463639
568.000000,0.003045702384
569.000000,0.002751036963
570.000000,0.003850069345
571.000000,0.003626346609
572.000000,0.002824164725
573.000000,0.003960597902
574.000000,0.003737200142
575.000000,0.004057646505
576.000000,0.00324252183
577.000000,0.004701020074
578.000000,0.003930004608
579.000000,0.003643330411
580.000000,0.003434016197
581.000000,0.003633983768
582.000000,0.00433596859
583.000000,0.003698055748
584.000000,0.004552953512
585.000000,0.004301451762
586.000000,0.004814399811
587.000000,0.004550699749
588.000000,0.004084806503
589.000000,0.003041414175
590.000000,0.004444703993
591.000000,0.004821962661
592.000000,0.004535774931
593.000000,0.00487314747
594.000000,0.004366287745
595.000000,0.004546079738
596.000000,0.00434802819
597.000000,0.005892675433
598.000000,0.005347018732
599.000000,0.005158524931
600.000000,0.004885814728
601.000000,0.005862546576
602.000000,0.007132713674
603.000000,0.006903559836
604.000000,0.006613680011
605.000000,0.008412392343
606.000000,0.009012044359
607.000000,0.009466703486
608.000000,0.01023382459
609.000000,0.01154247412
610.000000,0.01253052043
611.000000,0.01438216774
612.000000,0.01563271348
613.000000,0.0198251507
614.000000,0.02272287536
615.000000,0.02854271433
616.000000,0.03211404148
617.000000,0.04100939203
618.000000,0.0489078207
619.000000,0.05449682557
620.000000,0.05752503631
621.000000,0.05515475938
622.000000,0.04866698748
623.000000,0.04026360273
624.000000,0.03326242567
625.000000,0.02794366309
626.000000,0.02335955517
627.000000,0.0189904969
628.000000,0.01615796939
629.000000,0.01404705157
630.000000,0.01283990347
631.000000,0.01022563805
632.000000,0.008973441682
633.000000,0.008966690694
634.000000,0.007503016406
635.000000,0.007216589518
636.000000,0.007120733316
637.000000,0.006936248745
638.000000,0.005640801389
639.000000,0.006460014405
640.000000,0.004643900922
641.000000,0.005808434104
642.000000,0.004328684055
643.000000,0.004333537802
644.000000,0.005330766687
645.000000,0.004560852611
646.000000,0.004202975857
647.000000,0.004303535331
648.000000,0.004751875578
649.000000,0.004350130319
650.000000,0.004284253744
651.000000,0.004863589126
652.000000,0.003731168127
653.000000,0.003817722199
654.000000,0.00373200709
655.000000,0.004699266465
656.000000,0.004545954235
657.000000,0.004681166322
658.000000,0.003846882959
659.000000,0.003736497182
660.000000,0.004310510042
661.000000,0.003528818083
662.000000,0.004237278333
663.000000,0.00414648686
664.000000,0.003265421013
665.000000,0.003612452967
666.000000,0.003569161607
667.000000,0.004663971888
668.000000,0.005159422482
669.000000,0.003524270356
670.000000,0.003576439083
671.000000,0.002179459533
672.000000,0.003665497388
673.000000,0.003520463228
674.000000,0.002866374502
675.000000,0.003972985559
676.000000,0.002546743754
677.000000,0.003349328877
678.000000,0.003552417583
679.000000,0.002707980456
680.000000,0.003966677969
681.000000,0.004078265344
682.000000,0.002601036407
683.000000,0.002581064131
684.000000,0.003784180333
685.000000,0.003397169275
686.000000,0.002680672952
687.000000,0.003226660842
688.000000,0.003334605094
689.000000,0.003308555875
690.000000,0.003888321078
691.000000,0.003617529434
692.000000,0.004447537235
693.000000,0.00420636124
694.000000,0.003784454837
695.000000,0.004021531958
696.000000,0.004167484173
697.000000,0.003793377007
698.000000,0.002628771232
699.000000,0.003881919484
700.000000,0.003406664947
701.000000,0.004336139724
702.000000,0.003417093916
703.000000,0.003676583763
704.000000,0.003557828159
705.000000,0.004370901117
706.000000,0.003465587054
707.000000,0.003196828725
708.000000,0.003545386654
709.000000,0.003095396053
710.000000,0.003458193815
711.000000,0.00335716812
712.000000,0.003526355567
713.000000,0.004521829015
714.000000,0.003121854803
715.000000,0.003390180876
716.000000,0.003250024302
717.000000,0.003777285616
718.000000,0.002664024665
719.000000,0.002961134289
720.000000,0.003357445027
721.000000,0.003713340886
722.000000,0.003360515942
723.000000,0.003091287564
724.000000,0.002874996578
725.000000,0.003709287831
726.000000,0.004274199365
727.000000,0.003605827229
728.000000,0.003530360468
729.000000,0.003690263415
730.000000,0.002862181306
731.000000,0.003248703886
732.000000,0.003282236249
733.000000,0.003628818799
734.000000,0.003439980494
735.000000,0.0027358042
736.000000,0.00415422237
737.000000,0.004505277054
738.000000,0.003338629994
739.000000,0.003748001036
740.000000,0.003680360857
741.000000,0.004004139738
742.000000,0.002654418899
743.000000,0.004529688819
744.000000,0.003292165482
745.000000,0.004350348762
746.000000,0.003654830984
747.000000,0.003389723284
748.000000,0.003558726752
749.000000,0.004203582822
750.000000,0.003165866862
751.000000,0.003482926559
752.000000,0.003443495343
753.000000,0.002728051719
754.000000,0.004571865369
755.000000,0.004168552483
756.000000,0.00384064741
757.000000,0.004589751227
758.000000,0.003352652815
759.000000,0.003926112517
760.000000,0.005054335057
761.000000,0.004655099797
762.000000,0.002780146956
763.000000,0.00217307972
764.000000,0.003618286479
765.000000,0.004952397934
766.000000,0.004107171264
767.000000,0.004346306119
768.000000,0.00493841572
769.000000,0.004145030315
770.000000,0.004923331571
771.000000,0.005403212702
772.000000,0.005354903243
773.000000,0.005478167723
774.000000,0.005065475002
775.000000,0.00595103807
776.000000,0.005628416062
777.000000,0.006951783301
778.000000,0.008037467714
779.000000,0.006422333914
780.000000,0.005999842366
781.000000,0.007571581305
782.000000,0.008669709687
783.000000,0.009809171366
784.000000,0.01070855357
785.000000,0.01065315065
786.000000,0.01194146764
787.000000,0.01475598365
788.000000,0.01524796035
789.000000,0.01886309077
790.000000,0.02078403684
791.000000,0.02445597778
792.000000,0.0276608536
793.000000,0.03071295026
794.000000,0.03293570102
795.000000,0.03266032758
796.000000,0.03262211256
797.000000,0.03025617727
798.000000,0.02742481173
799.000000,0.02474139647
800.000000,0.02076299452
801.000000,0.01778515224
802.000000,0.01547499496
803.000000,0.01381513981
804.000000,0.01288184934
805.000000,0.01064573564
806.000000,0.01076912788
807.000000,0.009365375635
808.000000,0.008321360584
809.000000,0.007041850054
810.000000,0.00747272518
811.000000,0.007301700263
812.000000,0.005447053441
813.000000,0.006903969964
814.000000,0.006898772146
815.000000,0.005867710934
816.000000,0.005747386922
817.000000,0.006717274345
818.000000,0.00584114
819.000000,0.004413262914
820.000000,0.004813415845
821.000000,0.004612708082
822.000000,0.004512079331
823.000000,0.003086169266
824.000000,0.004879981187
825.000000,0.003964535213
826.000000,0.004376665783
827.000000,0.004132933016
828.000000,0.004681370328
829.000000,0.003926289563
830.000000,0.003577227628
831.000000,0.004331964112
832.000000,0.004816198442
833.000000,0.003740589162
834.000000,0.004722817986
835.000000,0.00402403598
836.000000,0.003515930256
837.000000,0.004726912441
838.000000,0.003290809041
839.000000,0.00437005602
840.000000,0.003437891594
841.000000,0.003988152663
842.000000,0.002955332849
843.000000,0.003176181385
844.000000,0.004304645618
845.000000,0.003761377193
846.000000,0.003656739965
847.000000,0.003355492496
848.000000,0.003876272446
849.000000,0.002754855292
850.000000,0.002910754096
851.000000,0.00347952168
852.000000,0.003062784708
853.000000,0.003134279298
854.000000,0.003504525384
855.000000,0.003456998218
856.000000,0.003398590214
857.000000,0.004527964696
858.000000,0.004127967321
859.000000,0.004253738589
860.000000,0.003491299971
861.000000,0.003199527958
862.000000,0.002623663935
863.000000,0.003284926031
864.000000,0.002235182839
865.000000,0.003135740541
866.000000,0.003943802416
867.000000,0.004456865901
868.000000,0.004059529181
869.000000,0.002957566809
870.000000,0.003770575565
871.000000,0.002997423905
872.000000,0.003966195459
873.000000,0.003402672261
874.000000,0.003985228375
875.000000,0.005016475852
876.000000,0.004022752826
877.000000,0.004871052939
878.000000,0.00357408673
879.000000,0.003269076054
880.000000,0.00427061659
881.000000,0.004506380968
882.000000,0.003135452877
883.000000,0.003516687298
884.000000,0.002608521273
885.000000,0.003352988106
886.000000,0.004009734706
887.000000,0.003425052169
888.000000,0.003136610934
889.000000,0.00263461856
890.000000,0.003705737761
891.000000,0.003966876272
892.000000,0.003848877279
893.000000,0.00364674996
894.000000,0.0027297443
895.000000,0.004560482037
896.000000,0.003470011709
897.000000,0.003420990815
898.000000,0.003953562213
899.000000,0.002215144926
900.000000,0.003483024338
901.000000,0.003444542151
902.000000,0.003756211995
903.000000,0.004348473078
904.000000,0.003827701861
905.000000,0.002446974637
906.000000,0.003351876783
907.000000,0.003686275109
908.000000,0.00365807549
909.000000,0.002805624797
910.000000,0.002582962269
911.000000,0.003922537035
912.000000,0.003807061911
913.000000,0.003596020914
914.000000,0.002579308489
915.000000,0.004694660548
916.000000,0.001891154871
917.000000,0.003427518465
918.000000,0.004915614177
919.000000,0.003573220205
920.000000,0.003818955145
921.000000,0.002981428414
922.000000,0.004521031794
923.000000,0.002938201724
924.000000,0.003882585314
925.000000,0.00382453835
926.000000,0.003125451728
927.000000,0.004306705514
928.000000,0.002936443529
929.000000,0.003393669866
930.000000,0.003804850555
931.000000,0.003591729272
932.000000,0.004140174538
933.000000,0.00443424064
934.000000,0.003721669649
935.000000,0.003593887162
936.000000,0.003630893152
937.000000,0.003745308851
938.000000,0.004477018141
939.000000,0.003884371691
940.000000,0.004287470899
941.000000,0.00401541861
942.000000,0.003591592087
943.000000,0.004650673666
944.000000,0.003538766076
945.000000,0.004201565803
946.000000,0.005128942973
947.000000,0.003614254887
948.000000,0.004279125924
949.000000,0.003401034007
950.000000,0.00409311357
951.000000,0.003547694055
952.000000,0.004279888771
953.000000,0.004226888168
954.000000,0.004686917859
955.000000,0.005621184274
956.000000,0.004902088622
957.000000,0.005196186071
958.000000,0.004842452404
959.000000,0.004803717452
960.000000,0.004532373197
961.000000,0.004039919988
962.000000,0.005261114131
963.000000,0.006303674031
964.000000,0.005721351408
965.000000,0.005233776515
966.000000,0.006678233753
967.000000,0.005566728205
968.000000,0.005608616311
969.000000,0.005419124122
970.000000,0.005753591522
971.000000,0.006385702763
972.000000,0.0079586012
973.000000,0.006875980469
974.000000,0.006650131485
975.000000,0.007207738711
976.000000,0.00777419385
977.000000,0.007255128678
978.000000,0.008786254918
979.000000,0.009612686575
980.000000,0.00993173938
981.000000,0.01072761544
982.000000,0.01031352331
983.000000,0.01090782101
984.000000,0.01368791942
985.000000,0.0147353563
986.000000,0.01453653758
987.000000,0.01726008629
988.000000,0.01919270104
989.000000,0.02203158478
990.000000,0.0250040607
991.000000,0.02863635446
992.000000,0.0343513509
993.000000,0.04138988301
994.000000,0.0509189855
995.000000,0.06338584107
996.000000,0.08223760988
997.000000,0.1123147192
998.000000,0.1540159666
999.000000,0.2131092077
1000.000000,0.2759835938
1001.000000,0.3059096523
1002.000000,0.2755552428
1003.000000,0.2134525345
1004.000000,0.1563890297
1005.000000,0.113281081
1006.000000,0.08577994501
1007.000000,0.06638279651
1008.000000,0.05285437467
1009.000000,0.04423624134
1010.000000,0.03621957021
1011.000000,0.03231403796
1012.000000,0.02756737271
1013.000000,0.02499043322
1014.000000,0.02286406403
1015.000000,0.02239941992
1016.000000,0.02068337131
1017.000000,0.02083617138
1018.000000,0.02009744117
1019.000000,0.02183581192
1020.000000,0.02319726579
1021.000000,0.02370509811
1022.000000,0.02676618763
1023.000000,0.02929244608
1024.000000,0.03477482316
1025.000000,0.03993645301
1026.000000,0.04805024361
1027.000000,0.06281698483
1028.000000,0.07961437041
1029.000000,0.1012314777
1030.000000,0.1228039718
1031.000000,0.1315532822
1032.000000,0.1227067577
1033.000000,0.1004225367
1034.000000,0.07938922849
1035.000000,0.06070253593
1036.000000,0.04593372475
1037.000000,0.03643143155
1038.000000,0.03008000366
1039.000000,0.02419047951
1040.000000,0.02148934796
1041.000000,0.01863396477
1042.000000,0.01594257453
1043.000000,0.01429543464
1044.000000,0.01349000922
1045.000000,0.01287481695
1046.000000,0.01195182643
1047.000000,0.01026338198
1048.000000,0.01007440524
1049.000000,0.008532192938
1050.000000,0.008723330042
1051.000000,0.007463557276
1052.000000,0.008101249835
1053.000000,0.006584091637
1054.000000,0.006454687631
1055.000000,0.006769547904
1056.000000,0.006876991378
1057.000000,0.005467630017
1058.000000,0.005822514201
1059.000000,0.006057316271
1060.000000,0.005960220827
1061.000000,0.005177918423
1062.000000,0.005613734104
1063.000000,0.005278215621
1064.000000,0.006177270343
1065.000000,0.005569607254
1066.000000,0.004347413467
1067.000000,0.003736204585
1068.000000,0.005044512634
1069.000000,0.005624798664
1070.000000,0.004952157603
1071.000000,0.005317441419
1072.000000,0.004438251234
1073.000000,0.003856460796
1074.000000,0.005078904095
1075.000000,0.004642391616
1076.000000,0.004951932484
1077.000000,0.003669550046
1078.000000,0.00457356785
1079.000000,0.004053681874
1080.000000,0.004883771785
1081.000000,0.004019311769
1082.000000,0.003975796045
1083.000000,0.003963390337
1084.000000,0.005052881185
1085.000000,0.004287937641
1086.000000,0.003793118308
1087.000000,0.003616666464
1088.000000,0.003586858824
1089.000000,0.005080175606
1090.000000,0.003093862863
1091.000000,0.003661842745
1092.000000,0.004546469963
1093.000000,0.004862133324
1094.000000,0.004055281838
1095.000000,0.004610233751
1096.000000,0.004588918497
1097.000000,0.004720849676
1098.000000,0.00415214041
1099.000000,0.005118408086
1100.000000,0.004251973537
1101.000000,0.0050545113
1102.000000,0.003473312418
1103.000000,0.004706717668
1104.000000,0.003390360128
1105.000000,0.003252137373
1106.000000,0.004464546558
1107.000000,0.003676672207
1108.000000,0.004456444242
1109.000000,0.003557076212
1110.000000,0.005184805008
1111.000000,0.004241927148
1112.000000,0.003575166169
1113.000000,0.004384931526
1114.000000,0.004835116587
1115.000000,0.003867962323
1116.000000,0.004672791596
1117.000000,0.005626920324
1118.000000,0.004953759507
1119.000000,0.004465796605
1120.000000,0.004172926367
1121.000000,0.004912095345
1122.000000,0.003704918104
1123.000000,0.002847142822
1124.000000,0.004339707106
1125.000000,0.004161112231
1126.000000,0.005942190447
1127.000000,0.005064493467
1128.000000,0.004485362196
1129.000000,0.004487743449
1130.000000,0.005610533612
1131.000000,0.00494713946
1132.000000,0.005250900057
1133.000000,0.005721100352
1134.000000,0.006027695414
1135.000000,0.00625962686
1136.000000,0.006530074713
1137.000000,0.007544275736
1138.000000,0.00813267731
1139.000000,0.006520214637
1140.000000,0.009544635564
1141.000000,0.008639207245
1142.000000,0.009989953217
1143.000000,0.009617164946
1144.000000,0.0112595377
1145.000000,0.01242662715
1146.000000,0.01389924717
1147.000000,0.01626792214
1148.000000,0.018562544
1149.000000,0.02064154574
1150.000000,0.02500874192
1151.000000,0.03018014984
1152.000000,0.03548574165
1153.000000,0.04025735325
1154.000000,0.04453267225
1155.000000,0.04628669634
1156.000000,0.04415837687
1157.000000,0.03992926197
1158.000000,0.03638817399
1159.000000,0.03000775693
1160.000000,0.02578156177
1161.000000,0.02159188711
1162.000000,0.01992257909
1163.000000,0.0179499289
1164.000000,0.01504083832
1165.000000,0.01417646147
1166.000000,0.01243883553
1167.000000,0.01325406777
1168.000000,0.01227845307
1169.000000,0.01095034777
1170.000000,0.01213451442
1171.000000,0.01172158351
1172.000000,0.01208291771
1173.000000,0.01261482714
1174.000000,0.01284711967
1175.000000,0.01413067344
1176.000000,0.016489235
1177.000000,0.01833218643
1178.000000,0.02078142339
1179.000000,0.02643624485
1180.000000,0.02978109449
1181.000000,0.034605419
1182.000000,0.03867187044
1183.000000,0.04110993907
1184.000000,0.03949467248
1185.000000,0.03471990099
1186.000000,0.02986867026
1187.000000,0.02355036239
1188.000000,0.02015678388
1189.000000,0.01688213481
1190.000000,0.01467731825
1191.000000,0.01304142158
1192.000000,0.01001944837
1193.000000,0.01194703376
1194.000000,0.008602580553
1195.000000,0.008572541547
1196.000000,0.008242856925
1197.000000,0.007744470374
1198.000000,0.00694889597
1199.000000,0.004691204576
1200.000000,0.005480915358
1201.000000,0.006327938954
1202.000000,0.005088083828
1203.000000,0.004808179774
1204.000000,0.003851399482
1205.000000,0.005847963355
1206.000000,0.005285122252
1207.000000,0.004318527252
1208.000000,0.004666699113
1209.000000,0.004587582179
1210.000000,0.003887183104
1211.000000,0.004313364116
1212.000000,0.004557949721
1213.000000,0.004670565024
1214.000000,0.005038782694
1215.000000,0.004238083966
1216.000000,0.003890668519
1217.000000,0.004363591404
1218.000000,0.003698320957
1219.000000,0.003283266798
1220.000000,0.0046869177
1221.000000,0.003734164316
1222.000000,0.004003706368
1223.000000,0.004291443235
1224.000000,0.00320545358
1225.000000,0.004231389497
1226.000000,0.004091627547
1227.000000,0.003738131177
1228.000000,0.004012664988
1229.000000,0.003299105116
1230.000000,0.002407589863
1231.000000,0.003546102583
1232.000000,0.003150710273
1233.000000,0.004205363194
1234.000000,0.003826244862
1235.000000,0.003333421126
1236.000000,0.003666867163
1237.000000,0.004439328382
1238.000000,0.004295555034
1239.000000,0.003822512011
1240.000000,0.003848243704
1241.000000,0.003410776209
1242.000000,0.00348928275
1243.000000,0.003912516907
1244.000000,0.003476558752
1245.000000,0.003719404159
1246.000000,0.002859270695
1247.000000,0.002518099709
1248.000000,0.002492073316
1249.000000,0.003243839383
1250.000000,0.004299338632
1251.000000,0.004205498719
1252.000000,0.002886425593
1253.000000,0.002543598946
1254.000000,0.003951826229
1255.000000,0.003747629242
1256.000000,0.002639519975
1257.000000,0.004094906135
1258.000000,0.00355836121
1259.000000,0.004245272388
1260.000000,0.003650073886
1261.000000,0.003975546183
1262.000000,0.003628925036
1263.000000,0.002857956661
1264.000000,0.003287370093
1265.000000,0.003015887488
1266.000000,0.00392019044
1267.000000,0.002817364182
1268.000000,0.002490664226
1269.000000,0.003821508476
1270.000000,0.00409801002
1271.000000,0.004275261897
1272.000000,0.004060200267
1273.000000,0.002492236355
1274.000000,0.002977871681
1275.000000,0.003064929658
1276.000000,0.003379134602
1277.000000,0.002094125617
1278.000000,0.003382903044
1279.000000,0.003553522432
1280.000000,0.002812971589
1281.000000,0.00345464024
1282.000000,0.004099267327
1283.000000,0.003408580187
1284.000000,0.004015756816
1285.000000,0.003988817422
1286.000000,0.003624445987
1287.000000,0.003607470372
1288.000000,0.0031520368
1289.000000,0.004122034152
1290.000000,0.003090959103
1291.000000,0.00295422787
1292.000000,0.003798380137
1293.000000,0.002936150911
1294.000000,0.003629263764
1295.000000,0.004008993914
1296.000000,0.003421343056
1297.000000,0.0034364706
1298.000000,0.003925953956
1299.000000,0.003827144784
1300.000000,0.002446938418
1301.000000,0.002585552799
1302.000000,0.00417635349
1303.000000,0.003610628384
1304.000000,0.002123869197
1305.000000,0.002565685386
1306.000000,0.003393499349
1307.000000,0.002789648655
1308.000000,0.003663114257
1309.000000,0.003429361804
1310.000000,0.003678808883
1311.000000,0.002681812481
1312.000000,0.003760324777
1313.000000,0.004567507131
1314.000000,0.002911360182
1315.000000,0.00418254767
1316.000000,0.003984512961
1317.000000,0.003783306071
1318.000000,0.003358043178
1319.000000,0.002700311528
1320.000000,0.00287344091
1321.000000,0.003863894049
1322.000000,0.00399573842
1323.000000,0.004144876364
1324.000000,0.003989474347
1325.000000,0.003957627618
1326.000000,0.003155085277
1327.000000,0.00269245661
1328.000000,0.003545134037
1329.000000,0.003726358816
1330.000000,0.003479994905
1331.000000,0.002516513526
1332.000000,0.003121695818
1333.000000,0.00254923753
1334.000000,0.003529526625
1335.000000,0.002813459346
1336.000000,0.003348864542
1337.000000,0.003647502706
1338.000000,0.003540104375
1339.000000,0.004285445217
1340.000000,0.002801238682
1341.000000,0.002156739888
1342.000000,0.004044487741
1343.000000,0.004324704911
1344.000000,0.004347884013
1345.000000,0.003662759354
1346.000000,0.003821508894
1347.000000,0.003576565538
1348.000000,0.002729269563
1349.000000,0.003171067997
1350.000000,0.003819970513
1351.000000,0.003180205297
1352.000000,0.004682292482
1353.000000,0.002613786836
1354.000000,0.003287117401
1355.000000,0.00422376827
1356.000000,0.003197417698
1357.000000,0.002889382602
1358.000000,0.002760963184
1359.000000,0.003149927042
1360.000000,0.00450491915
1361.000000,0.003851267666
1362.000000,0.003925367185
1363.000000,0.003311705166
1364.000000,0.004142409849
1365.000000,0.003709012846
1366.000000,0.003101184333
1367.000000,0.003394472022
1368.000000,0.003800174929
1369.000000,0.004394913898
1370.000000,0.003667800191
1371.000000,0.004016705037
1372.000000,0.004944746515
1373.000000,0.003262565936
1374.000000,0.003011134153
1375.000000,0.004364748836
1376.000000,0.004052525548
1377.000000,0.003746061883
1378.000000,0.003981172676
1379.000000,0.003641743672
1380.000000,0.004169182196
1381.000000,0.003675924105
1382.000000,0.004379682781
1383.000000,0.00321486055
1384.000000,0.003449961727
1385.000000,0.00403458777
1386.000000,0.003705947274
1387.000000,0.004432664575
1388.000000,0.00401518254
1389.000000,0.003742029877
1390.000000,0.00422387287
1391.000000,0.003810584712
1392.000000,0.003223156314
1393.000000,0.003510785404
1394.000000,0.003747824434
1395.000000,0.003985059369
1396.000000,0.004366484136
1397.000000,0.004897951071
1398.000000,0.004726104506
1399.000000,0.00551245307
1400.000000,0.005258069183
1401.000000,0.00442999351
1402.000000,0.005592848201
1403.000000,0.005369182059
1404.000000,0.004448385112
1405.000000,0.004975515299
1406.000000,0.005518046197
1407.000000,0.005080965426
1408.000000,0.005628359724
1409.000000,0.005341764134
1410.000000,0.005620436914
1411.000000,0.005105682621
1412.000000,0.00563305772
1413.000000,0.005302140715
1414.000000,0.006053308748
1415.000000,0.00476573193
1416.000000,0.006130700273
1417.000000,0.006841436787
1418.000000,0.006612199176
1419.000000,0.006437450182
1420.000000,0.006984942179
1421.000000,0.006379583063
1422.000000,0.006638869127
1423.000000,0.007200011797
1424.000000,0.007633261419
1425.000000,0.008643643957
1426.000000,0.007902961847
1427.000000,0.009466890491
1428.000000,0.008393419875
1429.000000,0.009402043605
1430.000000,0.01045967657
1431.000000,0.01186747253
1432.000000,0.01158792798
1433.000000,0.01156947949
1434.000000,0.01415249683
1435.000000,0.01508739044
1436.000000,0.01585682955
1437.000000,0.01752168237
1438.000000,0.01966070958
1439.000000,0.02241449496
1440.000000,0.02544610476
1441.000000,0.02734110696
1442.000000,0.03336447465
1443.000000,0.03636029957
1444.000000,0.0412233867
1445.000000,0.0475279596
1446.000000,0.05326050751
1447.000000,0.06062656222
1448.000000,0.06515897936
1449.000000,0.06795235455
1450.000000,0.06926569112
1451.000000,0.06787964733
1452.000000,0.06430413418
1453.000000,0.05964111217
1454.000000,0.05282717619
1455.000000,0.04811996878
1456.000000,0.04142991138
1457.000000,0.03633217667
1458.000000,0.03260015244
1459.000000,0.02708709196
1460.000000,0.02453640477
1461.000000,0.02277411547
1462.000000,0.02015008789
1463.000000,0.01821201375
1464.000000,0.01682197954
1465.000000,0.0148237777
1466.000000,0.01388324604
1467.000000,0.01213246908
1468.000000,0.01092652384
1469.000000,0.01203561418
1470.000000,0.01003001054
1471.000000,0.00956028567
1472.000000,0.01030209607
1473.000000,0.009630104945
1474.000000,0.008258275871
1475.000000,0.007883078476
1476.000000,0.007819732297
1477.000000,0.00699462576
1478.000000,0.007629338248
1479.000000,0.007142706535
1480.000000,0.006912427403
1481.000000,0.00708720494
1482.000000,0.006883743797
1483.000000,0.00739329093
1484.000000,0.007045394661
1485.000000,0.004964175637
1486.000000,0.006406031494
1487.000000,0.005075255878
1488.000000,0.004781211327
1489.000000,0.005969519789
1490.000000,0.005027514479
1491.000000,0.005175771265
1492.000000,0.005932163326
1493.000000,0.00481717666
1494.000000,0.004611350463
1495.000000,0.005285613985
1496.000000,0.005768555213
1497.000000,0.005298430068
1498.000000,0.003996968646
1499.000000,0.004495729501
1500.000000,0.004755070434
1501.000000,0.00597065667
1502.000000,0.005311998294
1503.000000,0.005255088117
1504.000000,0.00543764802
1505.000000,0.004501307506
1506.000000,0.004952110578
1507.000000,0.004936945576
1508.000000,0.004034583139
1509.000000,0.00459525079
1510.000000,0.004929760127
1511.000000,0.003927301044
1512.000000,0.005052330805
1513.000000,0.005013290335
1514.000000,0.005171345315
1515.000000,0.004077240506
1516.000000,0.004604235651
1517.000000,0.005412161748
1518.000000,0.005014184712
1519.000000,0.004064032345
1520.000000,0.004676981614
1521.000000,0.005401143862
1522.000000,0.00450686121
1523.000000,0.00479030061
1524.000000,0.006116958113
1525.000000,0.004560726242
1526.000000,0.004531724174
1527.000000,0.004006948202
1528.000000,0.004233329925
1529.000000,0.005543341085
1530.000000,0.00458724353
1531.000000,0.003980798823
1532.000000,0.004160531093
1533.000000,0.004753361842
1534.000000,0.005241609064
1535.000000,0.004367131881
1536.000000,0.005281066108
1537.000000,0.00459756443
1538.000000,0.005148557446
1539.000000,0.005293305807
1540.000000,0.005396259907
1541.000000,0.004824866869
1542.000000,0.005041234436
1543.000000,0.00551061797
1544.000000,0.004495211568
1545.000000,0.005450879172
1546.000000,0.005735704882
1547.000000,0.006140686191
1548.000000,0.005583246004
1549.000000,0.005595843645
1550.000000,0.005901901964
1551.000000,0.005495270001
1552.000000,0.0059409603
1553.000000,0.006455203201
1554.000000,0.006534344506
1555.000000,0.005907494698
1556.000000,0.006527373027
1557.000000,0.00565848535
1558.000000,0.00764169222
1559.000000,0.0070936721
1560.000000,0.00784073941
1561.000000,0.007351818141
1562.000000,0.008317718656
1563.000000,0.009037720512
1564.000000,0.00981477808
1565.000000,0.008923884668
1566.000000,0.01084551651
1567.000000,0.01092732894
1568.000000,0.01136071298
1569.000000,0.01305360572
1570.000000,0.01370171575
1571.000000,0.01502864398
1572.000000,0.01638540916
1573.000000,0.01889468195
1574.000000,0.02118423335
1575.000000,0.02404052799
1576.000000,0.02730019032
1577.000000,0.03223987837
1578.000000,0.03859829806
1579.000000,0.04616251769
1580.000000,0.05342210698
1581.000000,0.06247705685
1582.000000,0.06824725797
1583.000000,0.07065189145
1584.000000,0.07023172024
1585.000000,0.0642893123
1586.000000,0.05866711671
1587.000000,0.05292279507
1588.000000,0.04717996064
1589.000000,0.04393829034
1590.000000,0.04366113573
1591.000000,0.04202399047
1592.000000,0.04327003675
1593.000000,0.04646163585
1594.000000,0.05073892298
1595.000000,0.05795109986
1596.000000,0.0685651085
1597.000000,0.08134965272
1598.000000,0.1033241825
1599.000000,0.1272850586
1600.000000,0.1565647854
1601.000000,0.1833936536
1602.000000,0.1936453094
1603.000000,0.181543555
1604.000000,0.1557699458
1605.000000,0.1248317404
1606.000000,0.09873702134
1607.000000,0.07756107428
1608.000000,0.06237552145
1609.000000,0.05146004963
1610.000000,0.04253182836
1611.000000,0.03596691072
1612.000000,0.03117039888
1613.000000,0.02653365018
1614.000000,0.02292841058
1615.000000,0.02054251084
1616.000000,0.01956059025
1617.000000,0.01681804847
1618.000000,0.0155063169
1619.000000,0.01400306896
1620.000000,0.01313960637
1621.000000,0.012333246
1622.000000,0.01127395275
1623.000000,0.01049389083
1624.000000,0.009510420677
1625.000000,0.008936542958
1626.000000,0.009214923903
1627.000000,0.008997649567
1628.000000,0.008724802515
1629.000000,0.007863441247
1630.000000,0.007029659233
1631.000000,0.007626734667
1632.000000,0.007366723409
1633.000000,0.005865519384
1634.000000,0.007041035556
1635.000000,0.006717180173
1636.000000,0.007192139536
1637.000000,0.005352738233
1638.000000,0.005111459033
1639.000000,0.006214144841
1640.000000,0.004535761789
1641.000000,0.005056392757
1642.000000,0.004729044014
1643.000000,0.004673427509
1644.000000,0.004040739515
1645.000000,0.004952567379
1646.000000,0.005596403572
1647.000000,0.00519712225
1648.000000,0.005125321655
1649.000000,0.004573660155
1650.000000,0.005590570394
1651.000000,0.004977350048
1652.000000,0.005232905015
1653.000000,0.00361700498
1654.000000,0.004701934608
1655.000000,0.003759639747
1656.000000,0.004608190474
1657.000000,0.00447345373
1658.000000,0.003636228759
1659.000000,0.00437817585
1660.000000,0.004930500231
1661.000000,0.004498798039
1662.000000,0.00451816104
1663.000000,0.003613093607
1664.000000,0.003691656007
1665.000000,0.003401828167
1666.000000,0.004119253821
1667.000000,0.004725611636
1668.000000,0.004246989048
1669.000000,0.003959406573
1670.000000,0.003264901409
1671.000000,0.004179165432
1672.000000,0.003747589076
1673.000000,0.002726856758
1674.000000,0.002811780552
1675.000000,0.003624623092
1676.000000,0.003272486736
1677.000000,0.004780542427
1678.000000,0.003793567478
1679.000000,0.003133238373
1680.000000,0.003446399564
1681.000000,0.004677602982
1682.000000,0.00313944087
1683.000000,0.00415447251
1684.000000,0.00394095864
1685.000000,0.004544670077
1686.000000,0.003969388964
1687.000000,0.003397121722
1688.000000,0.003941628771
1689.000000,0.003653550327
1690.000000,0.004185712939
1691.000000,0.003553646543
1692.000000,0.004765368085
1693.000000,0.003508745041
1694.000000,0.003823003482
1695.000000,0.003156380786
1696.000000,0.003615806359
1697.000000,0.003547543378
1698.000000,0.003624254896
1699.000000,0.004053276078
1700.000000,0.003183234223
1701.000000,0.002989609785
1702.000000,0.004152841466
1703.000000,0.003309674649
1704.000000,0.003072542431
1705.000000,0.004157205478
1706.000000,0.00392466525
1707.000000,0.001867753209
1708.000000,0.00321863634
1709.000000,0.003908786299
1710.000000,0.003931956089
1711.000000,0.003118687646
1712.000000,0.004356536466
1713.000000,0.002939619628
1714.000000,0.003270101099
1715.000000,0.003479818392
1716.000000,0.003394547001
1717.000000,0.003875360377
1718.000000,0.003998574989
1719.000000,0.003355662813
1720.000000,0.004214690392
1721.000000,0.002962429123
1722.000000,0.003240220295
1723.000000,0.004393496497
1724.000000,0.003417582245
1725.000000,0.003994149103
1726.000000,0.003092904109
1727.000000,0.003188055134
1728.000000,0.003279488964
1729.000000,0.003441738464
1730.000000,0.003132706049
1731.000000,0.003341589796
1732.000000,0.003728861727
1733.000000,0.004046120866
1734.000000,0.003386052351
1735.000000,0.003705828559
1736.000000,0.003860006528
1737.000000,0.00266597589
1738.000000,0.002365396868
1739.000000,0.004271732766
1740.000000,0.004090658871
1741.000000,0.003331920625
1742.000000,0.00350463327
1743.000000,0.002727194177
1744.000000,0.002459884132
1745.000000,0.003474088707
1746.000000,0.002392020988
1747.000000,0.003825681897
1748.000000,0.002868557651
1749.000000,0.003446800361
1750.000000,0.0044283364
1751.000000,0.004397321909
1752.000000,0.003101322741
1753.000000,0.003900595297
1754.000000,0.002641213886
1755.000000,0.00290512966
1756.000000,0.003474972934
1757.000000,0.004081201836
1758.000000,0.002904007056
1759.000000,0.003569784784
1760.000000,0.003303695434
1761.000000,0.002483518015
1762.000000,0.003157438039
1763.000000,0.004133766555
1764.000000,0.003177755693
1765.000000,0.003531637054
1766.000000,0.003725210741
1767.000000,0.002784955411
1768.000000,0.00396203849
1769.000000,0.004123089935
1770.000000,0.004177474544
1771.000000,0.004005035286
1772.000000,0.002937018445
1773.000000,0.00286232451
1774.000000,0.002740523699
1775.000000,0.002665400988
1776.000000,0.002730357884
1777.000000,0.003800130345
1778.000000,0.004080442772
1779.000000,0.00281708157
1780.000000,0.003685676256
1781.000000,0.002438348565
1782.000000,0.002999677067
1783.000000,0.002595877773
1784.000000,0.002214354356
1785.000000,0.003221735984
1786.000000,0.00323428528
1787.000000,0.002940878774
1788.000000,0.002869440598
1789.000000,0.002589862837
1790.000000,0.003100075648
1791.000000,0.002817297583
1792.000000,0.00332047954
1793.000000,0.002450303291
1794.000000,0.003308910041
1795.000000,0.003477882616
1796.000000,0.003915723881
1797.000000,0.003798805918
1798.000000,0.003280624637
1799.000000,0.002754335572
1800.000000,0.00206341662
1801.000000,0.003157236004
1802.000000,0.004009452375
1803.000000,0.0041552749
1804.000000,0.001629770851
1805.000000,0.002701081742
1806.000000,0.002943810116
1807.000000,0.002527480394
1808.000000,0.003264017928
1809.000000,0.003173955526
1810.000000,0.002838704048
1811.000000,0.003126812767
1812.000000,0.002189960232
1813.000000,0.002561937951
1814.000000,0.002606310852
1815.000000,0.003683266383
1816.000000,0.002164399286
1817.000000,0.003013610922
1818.000000,0.003608492195
1819.000000,0.003107040287
1820.000000,0.003626514994
1821.000000,0.002745090913
1822.000000,0.003398570186
1823.000000,0.003679564416
1824.000000,0.004477839125
1825.000000,0.003571896178
1826.000000,0.003992554364
1827.000000,0.00314018681
1828.000000,0.003192047495
1829.000000,0.004076054238
1830.000000,0.003482710028
1831.000000,0.003984799608
1832.000000,0.003557957333
1833.000000,0.004406947075
1834.000000,0.004563808838
1835.000000,0.002627084802
1836.000000,0.004248284661
1837.000000,0.003391018546
1838.000000,0.00341647007
1839.000000,0.00305987245
1840.000000,0.003561533621
1841.000000,0.002460052389
1842.000000,0.00269127254
1843.000000,0.002668470464
1844.000000,0.003302544428
1845.000000,0.003682551054
1846.000000,0.003571412603
1847.000000,0.003349622243
1848.000000,0.002770996733
1849.000000,0.002068178739
1850.000000,0.003369993629
1851.000000,0.003214459475
1852.000000,0.003341342135
1853.000000,0.003984916863
1854.000000,0.003015746083
1855.000000,0.003003310181
1856.000000,0.001730470464
1857.000000,0.00346029289
1858.000000,0.003093801199
1859.000000,0.002677814008
1860.000000,0.003354151381
1861.000000,0.002492959367
1862.000000,0.00279463441
1863.000000,0.004301224461
1864.000000,0.003571897334
1865.000000,0.003675879075
1866.000000,0.003568663487
1867.000000,0.003503868755
1868.000000,0.00323288652
1869.000000,0.004490976079
1870.000000,0.003070304497
1871.000000,0.003556429851
1872.000000,0.002981374427
1873.000000,0.002900651096
1874.000000,0.001643915988
1875.000000,0.001952575122
1876.000000,0.004041148505
1877.000000,0.004004609773
1878.000000,0.002844705325
1879.000000,0.003087225278
1880.000000,0.003474592861
1881.000000,0.002506420994
1882.000000,0.00416896352
1883.000000,0.002477181544
1884.000000,0.002668736682
1885.000000,0.001438319744
1886.000000,0.004012281686
1887.000000,0.003134801288
1888.000000,0.004075944559
1889.000000,0.00249539105
1890.000000,0.003301324388
1891.000000,0.003142128534
1892.000000,0.003216378965
1893.000000,0.004344740715
1894.000000,0.004459246716
1895.000000,0.003924774237
1896.000000,0.00285269821
1897.000000,0.003631138919
1898.000000,0.003902624139
1899.000000,0.003428295866
1900.000000,0.00343450235
1901.000000,0.003381291811
1902.000000,0.002548193365
1903.000000,0.003237647257
1904.000000,0.004054664388
1905.000000,0.002489662996
1906.000000,0.003137623167
1907.000000,0.003590417583
1908.000000,0.002265999912
1909.000000,0.003003832522
1910.000000,0.002064779461
1911.000000,0.002720659557
1912.000000,0.002237922193
1913.000000,0.002544686192
1914.000000,0.00278835614
1915.000000,0.002915795702
1916.000000,0.002958424351
1917.000000,0.001632388041
1918.000000,0.004035889403
1919.000000,0.002913414257
1920.000000,0.002418407537
1921.000000,0.0026988941
1922.000000,0.003263200551
1923.000000,0.002472860519
1924.000000,0.002826170877
1925.000000,0.002791944307
1926.000000,0.003399216323
1927.000000,0.002623525816
1928.000000,0.003346649291
1929.000000,0.003283480973
1930.000000,0.002983744069
1931.000000,0.003819694221
1932.000000,0.003084740364
1933.000000,0.002363390489
1934.000000,0.00325104854
1935.000000,0.003145641417
1936.000000,0.00304681882
1937.000000,0.003210711656
1938.000000,0.004484626997
1939.000000,0.003210826786
1940.000000,0.003345505661
1941.000000,0.002921369309
1942.000000,0.003858035371
1943.000000,0.003035070055
1944.000000,0.002586085928
1945.000000,0.002332707844
1946.000000,0.003385472599
1947.000000,0.00351587518
1948.000000,0.002111645784
1949.000000,0.002631856408
1950.000000,0.00345314429
1951.000000,0.003685015612
1952.000000,0.00227143348
1953.000000,0.002820345748
1954.000000,0.003566641263
1955.000000,0.002743872453
1956.000000,0.002793656997
1957.000000,0.002739193336
1958.000000,0.00227767762
1959.000000,0.003092077495
1960.000000,0.003246803347
1961.000000,0.002219514123
1962.000000,0.003123259457
1963.000000,0.003729400406
1964.000000,0.003187269564
1965.000000,0.003632207044
1966.000000,0.002731199186
1967.000000,0.003885586561
1968.000000,0.002588188392
1969.000000,0.004195759129
1970.000000,0.002790549224
1971.000000,0.002628014282
1972.000000,0.002522939284
1973.000000,0.002811548512
1974.000000,0.002762850737
1975.000000,0.002644544739
1976.000000,0.002860969811
1977.000000,0.003458860521
1978.000000,0.003589645476
1979.000000,0.002855335383
1980.000000,0.003801302138
1981.000000,0.002457296481
1982.000000,0.002438659065
1983.000000,0.002376738956
1984.000000,0.003419160175
1985.000000,0.002123518752
1986.000000,0.00221599296
1987.000000,0.003825643551
1988.000000,0.004086505939
1989.000000,0.00386375553
1990.000000,0.002157058017
1991.000000,0.003061356982
1992.000000,0.003554428428
1993.000000,0.00311161791
1994.000000,0.002079300802
1995.000000,0.002846743076
1996.000000,0.002030207539
1997.000000,0.002310283494
1998.000000,0.004347049362
1999.000000,0.003460224704
2000.000000,0.002167892088
