raman_shift_cm-1,intensity
200.000000,0.002637878881
201.000000,0.002924950064
202.000000,0.004031011671
203.000000,0.003426732189
204.000000,0.002042806392
205.000000,0.003027198398
206.000000,0.002655325129
207.000000,0.003119881488
208.000000,0.002063059131
209.000000,0.003176052666
210.000000,0.003172277732
211.000000,0.003978630957
212.000000,0.003221306491
213.000000,0.00333802747
214.000000,0.002132707574
215.000000,0.004386256578
216.000000,0.001878660756
217.000000,0.003694010663
218.000000,0.002832778331
219.000000,0.00250152849
220.000000,0.002636576712
221.000000,0.002627188005
222.000000,0.003260261748
223.000000,0.002965406761
224.000000,0.003923598274
225.000000,0.001931090376
226.000000,0.003029991418
227.000000,0.002495266463
228.000000,0.003498758365
229.000000,0.001757864737
230.000000,0.002825389986
231.000000,0.00315867152
232.000000,0.002139385092
233.000000,0.003625090592
234.000000,0.003139983805
235.000000,0.003638269919
236.000000,0.003609671557
237.000000,0.002443238878
238.000000,0.002552846017
239.000000,0.002910553564
240.000000,0.003482927637
241.000000,0.003544979496
242.000000,0.002606184629
243.000000,0.002667924719
244.000000,0.002553330125
245.000000,0.002681906477
246.000000,0.002890332971
247.000000,0.002954253248
248.000000,0.00427178775
249.000000,0.002729077007
250.000000,0.002860119244
251.000000,0.003309779758
252.000000,0.002460627743
253.000000,0.002812316688
254.000000,0.003042182682
255.000000,0.003499982156
256.000000,0.002242645594
257.000000,0.003859510821
258.000000,0.002822499449
259.000000,0.003136548159
260.000000,0.003544324602
261.000000,0.003432344363
262.000000,0.003672137216
263.000000,0.003139199774
264.000000,0.003023301466
265.000000,0.003225588519
266.000000,0.002436277811
267.000000,0.003765838916
268.000000,0.002569022097
269.000000,0.002277433573
270.000000,0.004272810344
271.000000,0.002953703408
272.000000,0.00232653443
273.000000,0.004150303693
274.000000,0.002837738876
275.000000,0.003675132716
276.000000,0.002537282785
277.000000,0.002886737536
278.000000,0.002020698143
279.000000,0.001888206309
280.000000,0.002449301449
281.000000,0.002989877419
282.000000,0.003516995949
283.000000,0.004496640041
284.000000,0.002416387807
285.000000,0.003644292146
286.000000,0.002673802651
287.000000,0.002945720964
288.000000,0.002146518112
289.000000,0.002147957958
290.000000,0.002569503047
291.000000,0.002320166573
292.000000,0.003035911274
293.000000,0.002615537259
294.000000,0.003790693799
295.000000,0.003130455606
296.000000,0.003137924591
297.000000,0.003722911456
298.000000,0.003350450791
299.000000,0.003016419392
300.000000,0.002984421909
301.000000,0.00296636128
302.000000,0.00368699596
303.000000,0.003510470672
304.000000,0.003259630623
305.000000,0.003520193679
306.000000,0.002712162406
307.000000,0.003347306471
308.000000,0.002190356433
309.000000,0.003850647012
310.000000,0.003094441019
311.000000,0.003150728627
312.000000,0.003401119087
313.000000,0.003034826305
314.000000,0.002887932814
315.000000,0.003756705471
316.000000,0.003110710456
317.000000,0.002490231042
318.000000,0.0033057887
319.000000,0.002015703319
320.000000,0.004037598248
321.000000,0.002938825335
322.000000,0.003069523673
323.000000,0.004400325349
324.000000,0.004336684495
325.000000,0.003112026079
326.000000,0.003418421231
327.000000,0.003698500146
328.000000,0.004054698472
329.000000,0.002964092186
330.000000,0.003124481383
331.000000,0.003779996
332.000000,0.003205578846
333.000000,0.003497478026
334.000000,0.003410621172
335.000000,0.00236113679
336.000000,0.002527319629
337.000000,0.001455202101
338.000000,0.00288789107
339.000000,0.003849978703
340.000000,0.002377416604
341.000000,0.003787124116
342.000000,0.003646365006
343.000000,0.003012221703
344.000000,0.003040806844
345.000000,0.003095390867
346.000000,0.002527708999
347.000000,0.00287606127
348.000000,0.003018074192
349.000000,0.003414404067
350.000000,0.003522796304
351.000000,0.00259980236
352.000000,0.003543556543
353.000000,0.002579036143
354.000000,0.002945566135
355.000000,0.003269666119
356.000000,0.003033936342
357.000000,0.002971377823
358.000000,0.003210044739
359.000000,0.002715585826
360.000000,0.002655703876
361.000000,0.002925749236
362.000000,0.003627038823
363.000000,0.002987784215
364.000000,0.004194900003
365.000000,0.003178252162
366.000000,0.001260187986
367.000000,0.002785345427
368.000000,0.004051664893
369.000000,0.003054023191
370.000000,0.002787024369
371.000000,0.002525053015
372.000000,0.003847250628
373.000000,0.003654378234
374.000000,0.003455602547
375.000000,0.003309081555
376.000000,0.003918608006
377.000000,0.003546029678
378.000000,0.002312394062
379.000000,0.00351476172
380.000000,0.003154756122
381.000000,0.002986583771
382.000000,0.003512444886
383.000000,0.003070518956
384.000000,0.00128888263
385.000000,0.003990857163
386.000000,0.003678482216
387.000000,0.002980704262
388.000000,0.002830681155
389.000000,0.003191325078
390.000000,0.002282556534
391.000000,0.003239839273
392.000000,0.002917293097
393.000000,0.002843718749
394.000000,0.002500985953
395.000000,0.002648344513
396.000000,0.003722431316
397.000000,0.003860316265
398.000000,0.00335996906
399.000000,0.003030362332
400.000000,0.002529911018
401.000000,0.003490146867
402.000000,0.004027781822
403.000000,0.002087682739
404.000000,0.003765694045
405.000000,0.001756726247
406.000000,0.002855348196
407.000000,0.003291602968
408.000000,0.00223937102
409.000000,0.002148253829
410.000000,0.003172897169
411.000000,0.003588958273
412.000000,0.002775841501
413.000000,0.003870691142
414.000000,0.002593365214
415.000000,0.00411831965
416.000000,0.003135703554
417.000000,0.003205185791
418.000000,0.00343393485
419.000000,0.003257490276
420.000000,0.004175146111
421.000000,0.004392521087
422.000000,0.003394039061
423.000000,0.002966199233
424.000000,0.002358744537
425.000000,0.002612850433
426.000000,0.003072644549
427.000000,0.003006524727
428.000000,0.003041629808
429.000000,0.003071360189
430.000000,0.00336686174
431.000000,0.002256614031
432.000000,0.002452695867
433.000000,0.003744998606
434.000000,0.003574818159
435.000000,0.002748638602
436.000000,0.003850687187
437.000000,0.002664977151
438.000000,0.002920887358
439.000000,0.001974652696
440.000000,0.003582955555
441.000000,0.003068562043
442.000000,0.003717903066
443.000000,0.00350152634
444.000000,0.003135194694
445.000000,0.003175746191
446.000000,0.003799566681
447.000000,0.002983814792
448.000000,0.002991902421
449.000000,0.003126292733
450.000000,0.003571163469
451.000000,0.003643595924
452.000000,0.004243553236
453.000000,0.003044903771
454.000000,0.003856095799
455.000000,0.002705075958
456.000000,0.003464214711
457.000000,0.00317887628
458.000000,0.004149436196
459.000000,0.003474147113
460.000000,0.002839654968
461.000000,0.003458724995
462.000000,0.003320654398
463.000000,0.002923034692
464.000000,0.002937693837
465.000000,0.002548197156
466.000000,0.00477604036
467.000000,0.003199746663
468.000000,0.003705691456
469.000000,0.002419263803
470.000000,0.002468248924
471.000000,0.003030326471
472.000000,0.003033905808
473.000000,0.003607131879
474.000000,0.002521536116
475.000000,0.003451139726
476.000000,0.004038845876
477.000000,0.002578342467
478.000000,0.00367661868
479.000000,0.002552340906
480.000000,0.003339481488
481.000000,0.003350800231
482.000000,0.004178427307
483.000000,0.002718683278
484.000000,0.003236499772
485.000000,0.003764103401
486.000000,0.00243218239
487.000000,0.003132857359
488.000000,0.002615930474
489.000000,0.002718116117
490.000000,0.003551781158
491.000000,0.003564099755
492.000000,0.004694566848
493.000000,0.003973483245
494.000000,0.003921753748
495.000000,0.003047011329
496.000000,0.002967607107
497.000000,0.003231802746
498.000000,0.001781646924
499.000000,0.004148218969
500.000000,0.002748297145
501.000000,0.002514810644
502.000000,0.002877518192
503.000000,0.00368012908
504.000000,0.0039022113
505.000000,0.002928161263
506.000000,0.003417909627
507.000000,0.003122009654
508.000000,0.002557909094
509.000000,0.003260426025
510.000000,0.003175882019
511.000000,0.002235466821
512.000000,0.003823738574
513.000000,0.002217659935
514.000000,0.003305197281
515.000000,0.002534333423
516.000000,0.002677890437
517.000000,0.002746825221
518.000000,0.003595284878
519.000000,0.002418510666
520.000000,0.003060341654
521.000000,0.004110686809
522.000000,0.002760324297
523.000000,0.003161975938
524.000000,0.003582946836
525.000000,0.002834948562
526.000000,0.003473884505
527.000000,0.00279291278
528.000000,0.003614218312
529.000000,0.0032335778
530.000000,0.002635767511
531.000000,0.004049883713
532.000000,0.003148328964
533.000000,0.003040431674
534.000000,0.002655925912
535.000000,0.002933156633
536.000000,0.003161659152
537.000000,0.003326911758
538.000000,0.003888156948
539.000000,0.002438599063
540.000000,0.003025566904
541.000000,0.003959825418
542.000000,0.003354160393
543.000000,0.003495166808
544.000000,0.004212965653
545.000000,0.003462864915
546.000000,0.003545783831
547.000000,0.003246306278
548.000000,0.004340184705
549.000000,0.003914529347
550.000000,0.002855175896
551.000000,0.003625539169
552.000000,0.002611634222
553.000000,0.003963501761
554.000000,0.003720751264
555.000000,0.003228091734
556.000000,0.003090433425
557.000000,0.002260627496
558.000000,0.003808565702
559.000000,0.003287903989
560.000000,0.003180555726
561.000000,0.003813287612
562.000000,0.00298895796
563.000000,0.0030470738
564.000000,0.00299417422
565.000000,0.002610263742
566.000000,0.004887088923
567.000000,0.003334473364
568.000000,0.00325562505
569.000000,0.004023849097
570.000000,0.001604111716
571.000000,0.003497807541
572.000000,0.003542594059
573.000000,0.002970121078
574.000000,0.003851850978
575.000000,0.002378116664
576.000000,0.003621690489
577.000000,0.004171525833
578.000000,0.0023253186
579.000000,0.002814892072
580.000000,0.00361690561
581.000000,0.003727788748
582.000000,0.003379027983
583.000000,0.004019221168
584.000000,0.003985507466
585.000000,0.0030699748
586.000000,0.00386748573
587.000000,0.003211578593
588.000000,0.002786900208
589.000000,0.002648459661
590.000000,0.004788636915
591.000000,0.004171895534
592.000000,0.005514753143
593.000000,0.003555306549
594.000000,0.004332237294
595.000000,0.004873449831
596.000000,0.00472316053
597.000000,0.005268927349
598.000000,0.005234681667
599.000000,0.00498124458
600.000000,0.004182545211
601.000000,0.005281792517
602.000000,0.007200176739
603.000000,0.006988869403
604.000000,0.007782895897
605.000000,0.007106038168
606.000000,0.007945657149
607.000000,0.008259423609
608.000000,0.009907039555
609.000000,0.01079841919
610.000000,0.0123914624
611.000000,0.01489227283
612.000000,0.01551562249
613.000000,0.01928302358
614.000000,0.02165547847
615.000000,0.02790314948
616.000000,0.03298994832
617.000000,0.04045153675
618.000000,0.04830659379
619.000000,0.0555988596
620.000000,0.05713781727
621.000000,0.05430994534
622.000000,0.04751448636
623.000000,0.04066510323
624.000000,0.03274698239
625.000000,0.02694341082
626.000000,0.02249325298
627.000000,0.01925436292
628.000000,0.01560165746
629.000000,0.01425102605
630.000000,0.01320272209
631.000000,0.009886119177
632.000000,0.0105161973
633.000000,0.01011135398
634.000000,0.007737369322
635.000000,0.007863940788
636.000000,0.006166947589
637.000000,0.006775633995
638.000000,0.006015417902
639.000000,0.006086547738
640.000000,0.005084148453
641.000000,0.004909746332
642.000000,0.004932177039
643.000000,0.00459432027
644.000000,0.004492020725
645.000000,0.004602105806
646.000000,0.003930359413
647.000000,0.00439869754
648.000000,0.004675872381
649.000000,0.002903530649
650.000000,0.004332565913
651.000000,0.003690295008
652.000000,0.00339708772
653.000000,0.003199231333
654.000000,0.003439302529
655.000000,0.003449877089
656.000000,0.004058017686
657.000000,0.003046663079
658.000000,0.00439396397
659.000000,0.003237941763
660.000000,0.00410921636
661.000000,0.004322721729
662.000000,0.002905414428
663.000000,0.004262037015
664.000000,0.004913848539
665.000000,0.003317075541
666.000000,0.003920084188
667.000000,0.003478259784
668.000000,0.003592409975
669.000000,0.003417574005
670.000000,0.003217440059
671.000000,0.003945377794
672.000000,0.004030376819
673.000000,0.003489829616
674.000000,0.004392013942
675.000000,0.004127730295
676.000000,0.00388742838
677.000000,0.003024193084
678.000000,0.004593273777
679.000000,0.004236948501
680.000000,0.002141690616
681.000000,0.002761107067
682.000000,0.003134273906
683.000000,0.003980668103
684.000000,0.004159398323
685.000000,0.00323190542
686.000000,0.003549075254
687.000000,0.003816148649
688.000000,0.002625728387
689.000000,0.003744635408
690.000000,0.003201159792
691.000000,0.00349344094
692.000000,0.003350026297
693.000000,0.002665758397
694.000000,0.002774852142
695.000000,0.003396200178
696.000000,0.00344683048
697.000000,0.003208238275
698.000000,0.00400426098
699.000000,0.003147509382
700.000000,0.002629386734
701.000000,0.003152577895
702.000000,0.003254013073
703.000000,0.003279791855
704.000000,0.004058075154
705.000000,0.003665041334
706.000000,0.003992164338
707.000000,0.003733369547
708.000000,0.003259430194
709.000000,0.003983630013
710.000000,0.003203709027
711.000000,0.003511266528
712.000000,0.002760852934
713.000000,0.003425999492
714.000000,0.003171867797
715.000000,0.003593173024
716.000000,0.00446481055
717.000000,0.004801399422
718.000000,0.00399081889
719.000000,0.003363460072
720.000000,0.003881166894
721.000000,0.00352622931
722.000000,0.003026423879
723.000000,0.003358289009
724.000000,0.003250061848
725.000000,0.003041718028
726.000000,0.004240822831
727.000000,0.003090541169
728.000000,0.003122268795
729.000000,0.003850607877
730.000000,0.00301601291
731.000000,0.002748896996
732.000000,0.002935882608
733.000000,0.003745717028
734.000000,0.003690480312
735.000000,0.00365274282
736.000000,0.00320279209
737.000000,0.002942604778
738.000000,0.004048195392
739.000000,0.00264378361
740.000000,0.003397777689
741.000000,0.002740720016
742.000000,0.003307191677
743.000000,0.003473868483
744.000000,0.004319588917
745.000000,0.001871768376
746.000000,0.004436338201
747.000000,0.003100483452
748.000000,0.003829977342
749.000000,0.004158124008
750.000000,0.003235761481
751.000000,0.003666708744
752.000000,0.004041700161
753.000000,0.003697936405
754.000000,0.003358595874
755.000000,0.003946641095
756.000000,0.003933000139
757.000000,0.00300178826
758.000000,0.004760397479
759.000000,0.004121622599
760.000000,0.002574644303
761.000000,0.003582336888
762.000000,0.005171222338
763.000000,0.005151166592
764.000000,0.004423579893
765.000000,0.003318395384
766.000000,0.004267192647
767.000000,0.005133793185
768.000000,0.004828742679
769.000000,0.004497287631
770.000000,0.004372405082
771.000000,0.005443813001
772.000000,0.004967115854
773.000000,0.005455938536
774.000000,0.005745557492
775.000000,0.006650063111
776.000000,0.006018374946
777.000000,0.006344486976
778.000000,0.005437424928
779.000000,0.007558952413
780.000000,0.007865482038
781.000000,0.00784095653
782.000000,0.007097229219
783.000000,0.008859329156
784.000000,0.01012558309
785.000000,0.01240791171
786.000000,0.01279413389
787.000000,0.01449017536
788.000000,0.01641747838
789.000000,0.0190279999
790.000000,0.02025310889
791.000000,0.0234962239
792.000000,0.02653712204
793.000000,0.03008479324
794.000000,0.03223796325
795.000000,0.03332591821
796.000000,0.03183380647
797.000000,0.0303123095
798.000000,0.02673443108
799.000000,0.02528359589
800.000000,0.02061873032
801.000000,0.0197614628
802.000000,0.01691073347
803.000000,0.01329437653
804.000000,0.0130197436
805.000000,0.01151637829
806.000000,0.009161269152
807.000000,0.009571931723
808.000000,0.008417715788
809.000000,0.00806813391
810.000000,0.006826357073
811.000000,0.006863284933
812.000000,0.006773353815
813.000000,0.006092055709
814.000000,0.005555611349
815.000000,0.005583425669
816.000000,0.004875693988
817.000000,0.005485383548
818.000000,0.003571859813
819.000000,0.005876101136
820.000000,0.004876096691
821.000000,0.00500701835
822.000000,0.005131990671
823.000000,0.003774696199
824.000000,0.005810871042
825.000000,0.003687119299
826.000000,0.004573710155
827.000000,0.004424859202
828.000000,0.004962106872
829.000000,0.004112115074
830.000000,0.003219116616
831.000000,0.004219792159
832.000000,0.002496644543
833.000000,0.003823811241
834.000000,0.003632399601
835.000000,0.004817418457
836.000000,0.003678091619
837.000000,0.003547468371
838.000000,0.003336515752
839.000000,0.003252834542
840.000000,0.003412399425
841.000000,0.004085976856
842.000000,0.002910585984
843.000000,0.003560824693
844.000000,0.002787680517
845.000000,0.003553048341
846.000000,0.003737010876
847.000000,0.002880868341
848.000000,0.003265853462
849.000000,0.003661531785
850.000000,0.004051512812
851.000000,0.004149453998
852.000000,0.003498348793
853.000000,0.002953423466
854.000000,0.002567326621
855.000000,0.004009017403
856.000000,0.004372700724
857.000000,0.003745102575
858.000000,0.004461968934
859.000000,0.00323842845
860.000000,0.003270147561
861.000000,0.004448605424
862.000000,0.002887988826
863.000000,0.00385739401
864.000000,0.003721608558
865.000000,0.003577653275
866.000000,0.004527074326
867.000000,0.002948408607
868.000000,0.003217839199
869.000000,0.002212032598
870.000000,0.002839105461
871.000000,0.00316029582
872.000000,0.003234506343
873.000000,0.003344781937
874.000000,0.003647247393
875.000000,0.003062487381
876.000000,0.002269151336
877.000000,0.003557261006
878.000000,0.003719722611
879.000000,0.002763544482
880.000000,0.002990225847
881.000000,0.004530843465
882.000000,0.004088201469
883.000000,0.004126463993
884.000000,0.003874688911
885.000000,0.003559922092
886.000000,0.003164511711
887.000000,0.003820929
888.000000,0.003357042837
889.000000,0.003213105816
890.000000,0.003475188081
891.000000,0.003436036859
892.000000,0.004025553941
893.000000,0.002910581147
894.000000,0.00500200209
895.000000,0.002888430027
896.000000,0.003243440402
897.000000,0.004076793493
898.000000,0.003003941903
899.000000,0.003223363136
900.000000,0.003536692181
901.000000,0.001729483788
902.000000,0.003223116831
903.000000,0.002951767073
904.000000,0.003392078261
905.000000,0.003849831166
906.000000,0.003941397832
907.000000,0.004470471173
908.000000,0.004441658132
909.000000,0.00420138978
910.000000,0.003559362157
911.000000,0.004223077275
912.000000,0.002996776648
913.000000,0.003549799498
914.000000,0.004489327663
915.000000,0.004105947527
916.000000,0.002789683215
917.000000,0.003287857265
918.000000,0.004206133607
919.000000,0.004042609576
920.000000,0.004334012869
921.000000,0.00262150422
922.000000,0.002937822815
923.000000,0.003567152504
924.000000,0.003141765392
925.000000,0.003728667144
926.000000,0.003770383973
927.000000,0.003988786232
928.000000,0.003715924754
929.000000,0.004153136904
930.000000,0.004302601784
931.000000,0.003941826361
932.000000,0.003127073525
933.000000,0.004670304759
934.000000,0.004040286763
935.000000,0.004186858557
936.000000,0.004056581342
937.000000,0.002999726894
938.000000,0.004351098708
939.000000,0.003628552347
940.000000,0.003313129321
941.000000,0.004859616623
942.000000,0.003924789645
943.000000,0.004315762891
944.000000,0.004713603396
945.000000,0.005188223472
946.000000,0.003145339227
947.000000,0.003831124896
948.000000,0.004731279544
949.000000,0.00395897682
950.000000,0.002432548938
951.000000,0.004543246826
952.000000,0.004642718537
953.000000,0.005040664775
954.000000,0.004755407367
955.000000,0.004409199039
956.000000,0.004870062958
957.000000,0.004787722771
958.000000,0.004575471516
959.000000,0.005114713769
960.000000,0.005258375598
961.000000,0.004518320009
962.000000,0.00585034394
963.000000,0.005833435557
964.000000,0.00591996609
965.000000,0.003900053324
966.000000,0.005764858473
967.000000,0.005760001109
968.000000,0.005382303646
969.000000,0.006508296182
970.000000,0.005428551864
971.000000,0.007286863704
972.000000,0.00699609402
973.000000,0.006700341734
974.000000,0.008139741727
975.000000,0.00785756238
976.000000,0.008116536391
977.000000,0.007501796377
978.000000,0.009034018164
979.000000,0.01004857598
980.000000,0.01041034244
981.000000,0.009587646883
982.000000,0.01193419749
983.000000,0.01290284415
984.000000,0.01342728553
985.000000,0.01384303413
986.000000,0.01455085287
987.000000,0.01658063487
988.000000,0.01882003414
989.000000,0.02186054162
990.000000,0.02520172512
991.000000,0.02847465099
992.000000,0.03322412133
993.000000,0.04102282834
994.000000,0.05011523156
995.000000,0.06527317039
996.000000,0.08324947022
997.000000,0.1130230802
998.000000,0.1554234309
999.000000,0.2122612649
1000.000000,0.2760332334
1001.000000,0.3055234935
1002.000000,0.2751655996
1003.000000,0.2127280572
1004.000000,0.155666374
1005.000000,0.1142996607
1006.000000,0.08401255596
1007.000000,0.06627519371
1008.000000,0.05255569824
1009.000000,0.0428572274
1010.000000,0.03654371893
1011.000000,0.03169805282
1012.000000,0.02805009702
1013.000000,0.02590456525
1014.000000,0.02291608251
1015.000000,0.02329064443
1016.000000,0.02175524982
1017.000000,0.02040802065
1018.000000,0.01957769382
1019.000000,0.02114761968
1020.000000,0.02181174955
1021.000000,0.02398772726
1022.000000,0.02618420827
1023.000000,0.03008500754
1024.000000,0.03335899633
1025.000000,0.04032382306
1026.000000,0.04870330345
1027.000000,0.0616546206
1028.000000,0.08057618126
1029.000000,0.1017191013
1030.000000,0.1230737416
1031.000000,0.1322548879
1032.000000,0.122948183
1033.000000,0.101381097
1034.000000,0.07838607207
1035.000000,0.05957863346
1036.000000,0.04711670664
1037.000000,0.03682274221
1038.000000,0.03019062772
1039.000000,0.02546868229
1040.000000,0.02169792227
1041.000000,0.01724427255
1042.000000,0.01743498821
1043.000000,0.0151046082
1044.000000,0.01436124414
1045.000000,0.01354500421
1046.000000,0.01047670293
1047.000000,0.009894582337
1048.000000,0.009702558421
1049.000000,0.009536870698
1050.000000,0.008155101894
1051.000000,0.007838520973
1052.000000,0.008301854504
1053.000000,0.006777606473
1054.000000,0.007149658133
1055.000000,0.007416683183
1056.000000,0.006364714018
1057.000000,0.006785851921
1058.000000,0.006053680558
1059.000000,0.004989003716
1060.000000,0.005465996443
1061.000000,0.005530486302
1062.000000,0.005319449139
1063.000000,0.005419775808
1064.000000,0.005535580872
1065.000000,0.005369805617
1066.000000,0.005210030401
1067.000000,0.004753397092
1068.000000,0.00480272974
1069.000000,0.00463575724
1070.000000,0.004437308143
1071.000000,0.005563169561
1072.000000,0.003519854059
1073.000000,0.004756910696
1074.000000,0.003572007984
1075.000000,0.00415107885
1076.000000,0.004952858792
1077.000000,0.004253624111
1078.000000,0.005233061784
1079.000000,0.003774175018
1080.000000,0.00413429046
1081.000000,0.003897202256
1082.000000,0.004256707858
1083.000000,0.004030477863
1084.000000,0.003963730071
1085.000000,0.00422060241
1086.000000,0.004813241687
1087.000000,0.004213608229
1088.000000,0.004135883025
1089.000000,0.003906209912
1090.000000,0.003636468783
1091.000000,0.003173750738
1092.000000,0.003400440329
1093.000000,0.004040504375
1094.000000,0.002852680772
1095.000000,0.004395189495
1096.000000,0.003736668708
1097.000000,0.003417162971
1098.000000,0.003649562111
1099.000000,0.004373954611
1100.000000,0.004198308668
1101.000000,0.004137465224
1102.000000,0.005049581291
1103.000000,0.005410730909
1104.000000,0.00323478077
1105.000000,0.004557132953
1106.000000,0.003577699493
1107.000000,0.003224011414
1108.000000,0.003756804479
1109.000000,0.004710940666
1110.000000,0.003932482858
1111.000000,0.00385674622
1112.000000,0.005023283874
1113.000000,0.004510595086
1114.000000,0.004186606456
1115.000000,0.005365351855
1116.000000,0.004600446111
1117.000000,0.003904922855
1118.000000,0.003727784269
1119.000000,0.004175004645
1120.000000,0.004579666037
1121.000000,0.005098044221
1122.000000,0.00509576648
1123.000000,0.004714704341
1124.000000,0.004001997553
1125.000000,0.005345262888
1126.000000,0.004917265042
1127.000000,0.004286758418
1128.000000,0.004295858507
1129.000000,0.005283615122
1130.000000,0.005478872764
1131.000000,0.00589640124
1132.000000,0.004817990103
1133.000000,0.006890043823
1134.000000,0.004824551807
1135.000000,0.006125423476
1136.000000,0.007219404103
1137.000000,0.007336274866
1138.000000,0.006471097187
1139.000000,0.007825018923
1140.000000,0.008678019114
1141.000000,0.008945276114
1142.000000,0.008579870598
1143.000000,0.01100584103
1144.000000,0.01000692719
1145.000000,0.01225015619
1146.000000,0.0131061419
1147.000000,0.01541591458
1148.000000,0.01789864455
1149.000000,0.02146271726
1150.000000,0.02422379091
1151.000000,0.02978125159
1152.000000,0.03576294528
1153.000000,0.04040895995
1154.000000,0.04493012441
1155.000000,0.0465377955
1156.000000,0.04426855496
1157.000000,0.04037830295
1158.000000,0.03537344113
1159.000000,0.0304372958
1160.000000,0.0268602593
1161.000000,0.02293738959
1162.000000,0.01876501189
1163.000000,0.01653958182
1164.000000,0.01446460137
1165.000000,0.01237013426
1166.000000,0.01359546125
1167.000000,0.01242144562
1168.000000,0.01044646213
1169.000000,0.01137216781
1170.000000,0.01272390704
1171.000000,0.01171163185
1172.000000,0.01205229128
1173.000000,0.01243623307
1174.000000,0.01269694444
1175.000000,0.01365591065
1176.000000,0.01552264967
1177.000000,0.01836554484
1178.000000,0.02111978001
1179.000000,0.02555130694
1180.000000,0.03089104108
1181.000000,0.03521810704
1182.000000,0.03951655187
1183.000000,0.04039538155
1184.000000,0.03803690197
1185.000000,0.03581017792
1186.000000,0.02971111986
1187.000000,0.02509986233
1188.000000,0.02008061813
1189.000000,0.01606273245
1190.000000,0.01541109168
1191.000000,0.01136900285
1192.000000,0.0110804298
1193.000000,0.00967553454
1194.000000,0.009196479965
1195.000000,0.008796808022
1196.000000,0.008183686575
1197.000000,0.00589040312
1198.000000,0.007347365943
1199.000000,0.005221809155
1200.000000,0.006487854254
1201.000000,0.005545429426
1202.000000,0.004892618869
1203.000000,0.005064457203
1204.000000,0.004408397734
1205.000000,0.005054522241
1206.000000,0.005501133766
1207.000000,0.005295443326
1208.000000,0.004725538127
1209.000000,0.005273629904
1210.000000,0.004822838572
1211.000000,0.005752837419
1212.000000,0.004680276403
1213.000000,0.003934545065
1214.000000,0.004060936471
1215.000000,0.003718924757
1216.000000,0.003953840084
1217.000000,0.00399675171
1218.000000,0.004460840759
1219.000000,0.004478698551
1220.000000,0.003996665551
1221.000000,0.004189284205
1222.000000,0.003446531672
1223.000000,0.0035315155
1224.000000,0.002332112886
1225.000000,0.003336764927
1226.000000,0.003482499179
1227.000000,0.005334915656
1228.000000,0.002913737015
1229.000000,0.003760849173
1230.000000,0.003497906567
1231.000000,0.002717312701
1232.000000,0.003825269816
1233.000000,0.003656595645
1234.000000,0.002739912245
1235.000000,0.002192370937
1236.000000,0.003569428993
1237.000000,0.002716373419
1238.000000,0.003991857839
1239.000000,0.003399538273
1240.000000,0.003884232666
1241.000000,0.003361875471
1242.000000,0.004483437495
1243.000000,0.003954202375
1244.000000,0.004457427627
1245.000000,0.003588639839
1246.000000,0.002883344443
1247.000000,0.002634506822
1248.000000,0.003188128878
1249.000000,0.003667621352
1250.000000,0.003098150134
1251.000000,0.004981341096
1252.000000,0.003433771888
1253.000000,0.003750140328
1254.000000,0.003515638563
1255.000000,0.002689467223
1256.000000,0.004105180762
1257.000000,0.003850089307
1258.000000,0.003979507531
1259.000000,0.0028734308
1260.000000,0.003454369225
1261.000000,0.003415647814
1262.000000,0.004154832002
1263.000000,0.002586206466
1264.000000,0.003844728381
1265.000000,0.004208611796
1266.000000,0.003170352379
1267.000000,0.002926375094
1268.000000,0.004237814461
1269.000000,0.003572387438
1270.000000,0.004114520154
1271.000000,0.003882515834
1272.000000,0.004075545057
1273.000000,0.003305290683
1274.000000,0.00211133116
1275.000000,0.003780175404
1276.000000,0.002991686928
1277.000000,0.003791269581
1278.000000,0.003086303629
1279.000000,0.004411040156
1280.000000,0.003256632044
1281.000000,0.003917673876
1282.000000,0.004089600551
1283.000000,0.00335665441
1284.000000,0.003605360721
1285.000000,0.003393332666
1286.000000,0.002832139685
1287.000000,0.004307970037
1288.000000,0.00283585231
1289.000000,0.00243359755
1290.000000,0.003084427458
1291.000000,0.003474347254
1292.000000,0.003434490184
1293.000000,0.003182648608
1294.000000,0.003111483299
1295.000000,0.002069099922
1296.000000,0.003773857348
1297.000000,0.004457578246
1298.000000,0.002937179693
1299.000000,0.002275346022
1300.000000,0.003846678692
1301.000000,0.003279874472
1302.000000,0.0009249632983
1303.000000,0.002920936681
1304.000000,0.002486790722
1305.000000,0.002660894497
1306.000000,0.004620880283
1307.000000,0.004002282097
1308.000000,0.003295401119
1309.000000,0.003405923832
1310.000000,0.004373774851
1311.000000,0.0027211525
1312.000000,0.003862524928
1313.000000,0.003010023251
1314.000000,0.003926644288
1315.000000,0.003548270746
1316.000000,0.002950051105
1317.000000,0.004074956894
1318.000000,0.003754758973
1319.000000,0.004561227652
1320.000000,0.003169886244
1321.000000,0.003510173316
1322.000000,0.00299785133
1323.000000,0.004186070539
1324.000000,0.002959963302
1325.000000,0.003422551396
1326.000000,0.004245561588
1327.000000,0.003766288001
1328.000000,0.003619859064
1329.000000,0.00360755329
1330.000000,0.003655689356
1331.000000,0.003849990663
1332.000000,0.003261050534
1333.000000,0.002216663102
1334.000000,0.004286021922
1335.000000,0.002800134376
1336.000000,0.004607713681
1337.000000,0.003644016521
1338.000000,0.005447380092
1339.000000,0.004207483464
1340.000000,0.003741593324
1341.000000,0.004055447883
1342.000000,0.002617297704
1343.000000,0.003600048991
1344.000000,0.003267668027
1345.000000,0.003509040488
1346.000000,0.002225521971
1347.000000,0.002136363945
1348.000000,0.003956845377
1349.000000,0.003541716401
1350.000000,0.003239751218
1351.000000,0.003462341734
1352.000000,0.003119034562
1353.000000,0.003231187756
1354.000000,0.003963234274
1355.000000,0.003396184232
1356.000000,0.003985191677
1357.000000,0.003114139764
1358.000000,0.002432531626
1359.000000,0.003158423573
1360.000000,0.003487572331
1361.000000,0.002885297617
1362.000000,0.003349864223
1363.000000,0.003285921365
1364.000000,0.00418863024
1365.000000,0.004144781022
1366.000000,0.004313239673
1367.000000,0.003161251928
1368.000000,0.003862495173
1369.000000,0.00446677427
1370.000000,0.003785537342
1371.000000,0.003643031916
1372.000000,0.003221517869
1373.000000,0.004235322967
1374.000000,0.003838542438
1375.000000,0.004368255732
1376.000000,0.003665007721
1377.000000,0.005063319281
1378.000000,0.003776385921
1379.000000,0.003043438812
1380.000000,0.003956277347
1381.000000,0.004149456182
1382.000000,0.004669806033
1383.000000,0.003591915636
1384.000000,0.003572391499
1385.000000,0.003765729454
1386.000000,0.003712501713
1387.000000,0.0026608082
1388.000000,0.004457181274
1389.000000,0.004817704165
1390.000000,0.003590832878
1391.000000,0.003481543166
1392.000000,0.004040261141
1393.000000,0.003654277099
1394.000000,0.004692339065
1395.000000,0.003849688056
1396.000000,0.004659554296
1397.000000,0.003546050247
1398.000000,0.003483984999
1399.000000,0.003443451966
1400.000000,0.003576249398
1401.000000,0.004780839762
1402.000000,0.005096104138
1403.000000,0.004719094552
1404.000000,0.004824673653
1405.000000,0.003383510371
1406.000000,0.005522390123
1407.000000,0.004135984507
1408.000000,0.005797435828
1409.000000,0.006577568659
1410.000000,0.005205427253
1411.000000,0.005654257534
1412.000000,0.005759938844
1413.000000,0.004672957498
1414.000000,0.004913123223
1415.000000,0.005322543736
1416.000000,0.005992966436
1417.000000,0.006580550971
1418.000000,0.006303763581
1419.000000,0.007106503541
1420.000000,0.006313335335
1421.000000,0.005979215522
1422.000000,0.00712650069
1423.000000,0.007350548446
1424.000000,0.006809804846
1425.000000,0.008669715076
1426.000000,0.007817201084
1427.000000,0.008384606469
1428.000000,0.009447267395
1429.000000,0.009177510582
1430.000000,0.01083550546
1431.000000,0.01138111775
1432.000000,0.01220889481
1433.000000,0.01282790713
1434.000000,0.01357494349
1435.000000,0.01460359224
1436.000000,0.01666896884
1437.000000,0.01896828829
1438.000000,0.02053808547
1439.000000,0.02255711454
1440.000000,0.0256402054
1441.000000,0.02902806518
1442.000000,0.03118262725
1443.000000,0.03633021609
1444.000000,0.0421765288
1445.000000,0.04669202034
1446.000000,0.05287592769
1447.000000,0.05957065488
1448.000000,0.0643307056
1449.000000,0.06888957685
1450.000000,0.06927627547
1451.000000,0.06851903506
1452.000000,0.06603670193
1453.000000,0.05992255541
1454.000000,0.05235557164
1455.000000,0.04648547627
1456.000000,0.04083878621
1457.000000,0.03637377944
1458.000000,0.03114838228
1459.000000,0.02861054417
1460.000000,0.02615366054
1461.000000,0.02336957992
1462.000000,0.01966224941
1463.000000,0.01803552464
1464.000000,0.016386074
1465.000000,0.01466310392
1466.000000,0.01502311558
1467.000000,0.01251472163
1468.000000,0.0113536395
1469.000000,0.01148404024
1470.000000,0.01078437006
1471.000000,0.01091978268
1472.000000,0.01039575632
1473.000000,0.008864410161
1474.000000,0.007266288662
1475.000000,0.00860377243
1476.000000,0.008350411853
1477.000000,0.008659770707
1478.000000,0.006310409926
1479.000000,0.006316711566
1480.000000,0.007773328469
1481.000000,0.007615091942
1482.000000,0.007229561625
1483.000000,0.006247007251
1484.000000,0.006902884082
1485.000000,0.005625285001
1486.000000,0.005070349389
1487.000000,0.005680895236
1488.000000,0.005673837197
1489.000000,0.006006484774
1490.000000,0.006090939251
1491.000000,0.004245695566
1492.000000,0.005426786268
1493.000000,0.005479631081
1494.000000,0.004333080581
1495.000000,0.004886420934
1496.000000,0.005026576373
1497.000000,0.005213435337
1498.000000,0.004360486358
1499.000000,0.004474548228
1500.000000,0.004124155124
1501.000000,0.004974096945
1502.000000,0.004524484295
1503.000000,0.004334992556
1504.000000,0.005061809578
1505.000000,0.00453621599
1506.000000,0.003878715042
1507.000000,0.005293133754
1508.000000,0.005173952023
1509.000000,0.004839904586
1510.000000,0.003904501458
1511.000000,0.005210423213
1512.000000,0.004156148665
1513.000000,0.003358603604
1514.000000,0.004422055202
1515.000000,0.005601247641
1516.000000,0.004214824021
1517.000000,0.004848329155
1518.000000,0.005327930519
1519.000000,0.004602600756
1520.000000,0.00430024172
1521.000000,0.004504661295
1522.000000,0.004859501768
1523.000000,0.004199709575
1524.000000,0.004735201727
1525.000000,0.004874464659
1526.000000,0.004318298346
1527.000000,0.005003388774
1528.000000,0.004924613574
1529.000000,0.004403709131
1530.000000,0.004511326998
1531.000000,0.004716795086
1532.000000,0.00458432937
1533.000000,0.004576905251
1534.000000,0.00411317574
1535.000000,0.004835952839
1536.000000,0.005255534457
1537.000000,0.005237755385
1538.000000,0.004392484436
1539.000000,0.005280751552
1540.000000,0.005361328454
1541.000000,0.004486035456
1542.000000,0.005422006182
1543.000000,0.005064033565
1544.000000,0.005012957195
1545.000000,0.005453760574
1546.000000,0.005266279743
1547.000000,0.004130878605
1548.000000,0.005701524729
1549.000000,0.004999210666
1550.000000,0.005730297719
1551.000000,0.00631816707
1552.000000,0.00589542639
1553.000000,0.005909627529
1554.000000,0.006417786937
1555.000000,0.006805643054
1556.000000,0.006190211735
1557.000000,0.006521280069
1558.000000,0.007432604467
1559.000000,0.008350207997
1560.000000,0.00766902845
1561.000000,0.008514822508
1562.000000,0.007896242724
1563.000000,0.008748748652
1564.000000,0.00924161984
1565.000000,0.008942557423
1566.000000,0.01030135295
1567.000000,0.01088755334
1568.000000,0.01026537512
1569.000000,0.01268401501
1570.000000,0.01402439122
1571.000000,0.01531845473
1572.000000,0.01696523079
1573.000000,0.01805453859
1574.000000,0.02068002414
1575.000000,0.02398700044
1576.000000,0.02730921338
1577.000000,0.03221906708
1578.000000,0.03903773371
1579.000000,0.04480997131
1580.000000,0.05317609988
1581.000000,0.06266436734
1582.000000,0.06811240115
1583.000000,0.07064661206
1584.000000,0.06994741837
1585.000000,0.06492329776
1586.000000,0.05845796869
1587.000000,0.05124106493
1588.000000,0.04749351867
1589.000000,0.04418077726
1590.000000,0.0433744515
1591.000000,0.04225789073
1592.000000,0.04282667082
1593.000000,0.04615734567
1594.000000,0.05117642118
1595.000000,0.05789575971
1596.000000,0.06828794501
1597.000000,0.08357786722
1598.000000,0.1027342586
1599.000000,0.128196588
1600.000000,0.1565919718
1601.000000,0.1832721139
1602.000000,0.1924426763
1603.000000,0.1829815749
1604.000000,0.1553342656
1605.000000,0.1258773614
1606.000000,0.09998262224
1607.000000,0.07782439875
1608.000000,0.06357690419
1609.000000,0.05137794195
1610.000000,0.04317104067
1611.000000,0.03559714954
1612.000000,0.03024097146
1613.000000,0.02736846041
1614.000000,0.02361721458
1615.000000,0.02078425307
1616.000000,0.01793478379
1617.000000,0.01763030729
1618.000000,0.01516397015
1619.000000,0.01397930494
1620.000000,0.01263034059
1621.000000,0.01213008377
1622.000000,0.0116815511
1623.000000,0.01059927828
1624.000000,0.009976075555
1625.000000,0.009164681582
1626.000000,0.009902617212
1627.000000,0.009557867151
1628.000000,0.008042194012
1629.000000,0.007353142729
1630.000000,0.007724862272
1631.000000,0.006331847188
1632.000000,0.007185041832
1633.000000,0.006970103569
1634.000000,0.00669650461
1635.000000,0.007352117167
1636.000000,0.007319472841
1637.000000,0.006335871688
1638.000000,0.00570822941
1639.000000,0.006392739821
1640.000000,0.006330339303
1641.000000,0.004826715306
1642.000000,0.004991943193
1643.000000,0.005167438046
1644.000000,0.004239520696
1645.000000,0.004474276275
1646.000000,0.006018351832
1647.000000,0.004223669611
1648.000000,0.005395861446
1649.000000,0.004348986333
1650.000000,0.005348037209
1651.000000,0.004889240539
1652.000000,0.005172277072
1653.000000,0.003762706296
1654.000000,0.004703523535
1655.000000,0.004146069773
1656.000000,0.004888048525
1657.000000,0.004813781591
1658.000000,0.004448974258
1659.000000,0.004232008795
1660.000000,0.004261639199
1661.000000,0.004380065707
1662.000000,0.003894808399
1663.000000,0.003904146803
1664.000000,0.00374969874
1665.000000,0.003476580689
1666.000000,0.004686958547
1667.000000,0.003261073714
1668.000000,0.004783449174
1669.000000,0.004408059879
1670.000000,0.002953896358
1671.000000,0.002857318355
1672.000000,0.003931503019
1673.000000,0.003265264364
1674.000000,0.003956560411
1675.000000,0.004415544605
1676.000000,0.004045916704
1677.000000,0.003688500402
1678.000000,0.003690340767
1679.000000,0.004651525052
1680.000000,0.003551971593
1681.000000,0.004776723472
1682.000000,0.00494455186
1683.000000,0.003508362307
1684.000000,0.003887108662
1685.000000,0.004713745786
1686.000000,0.00327718373
1687.000000,0.00393180854
1688.000000,0.004288772432
1689.000000,0.003042865881
1690.000000,0.003865174882
1691.000000,0.003712768361
1692.000000,0.003314491258
1693.000000,0.004528011269
1694.000000,0.003526214439
1695.000000,0.004945498505
1696.000000,0.004011728717
1697.000000,0.003163859727
1698.000000,0.003727374802
1699.000000,0.003110527757
1700.000000,0.004038274724
1701.000000,0.003936337173
1702.000000,0.002836215803
1703.000000,0.00328595002
1704.000000,0.003802453072
1705.000000,0.003549950013
1706.000000,0.002929844374
1707.000000,0.004143012969
1708.000000,0.004296173321
1709.000000,0.002608175851
1710.000000,0.004344867866
1711.000000,0.002262476393
1712.000000,0.003376857794
1713.000000,0.003056983535
1714.000000,0.003115450611
1715.000000,0.003541453433
1716.000000,0.002740938642
1717.000000,0.00336021183
1718.000000,0.004406934431
1719.000000,0.003676896772
1720.000000,0.004280907672
1721.000000,0.003908178722
1722.000000,0.002436415305
1723.000000,0.004435084526
1724.000000,0.003887311606
1725.000000,0.003766938186
1726.000000,0.003153379422
1727.000000,0.003063313346
1728.000000,0.002748565932
1729.000000,0.003273269836
1730.000000,0.003425469538
1731.000000,0.003261866459
1732.000000,0.003260099768
1733.000000,0.002201237386
1734.000000,0.002896840109
1735.000000,0.002871382417
1736.000000,0.003507605909
1737.000000,0.003061300822
1738.000000,0.003057365909
1739.000000,0.003370612731
1740.000000,0.003035408539
1741.000000,0.003143506073
1742.000000,0.003949967464
1743.000000,0.003206466053
1744.000000,0.002766162481
1745.000000,0.003646096814
1746.000000,0.003762221302
1747.000000,0.003656998792
1748.000000,0.002512071975
1749.000000,0.003835875088
1750.000000,0.003307355724
1751.000000,0.003354821979
1752.000000,0.003327042362
1753.000000,0.003542943489
1754.000000,0.00355780326
1755.000000,0.004132333093
1756.000000,0.003412504403
1757.000000,0.003217049683
1758.000000,0.003641363624
1759.000000,0.003201284569
1760.000000,0.003899351081
1761.000000,0.003350607556
1762.000000,0.003692398238
1763.000000,0.002955110643
1764.000000,0.003833124347
1765.000000,0.003616957251
1766.000000,0.002756393663
1767.000000,0.003029076193
1768.000000,0.00329616765
1769.000000,0.002475109318
1770.000000,0.002607603048
1771.000000,0.003522444166
1772.000000,0.003530213021
1773.000000,0.004017155986
1774.000000,0.00248321986
1775.000000,0.003015954755
1776.000000,0.002046348775
1777.000000,0.004242804265
1778.000000,0.002452354273
1779.000000,0.003076379196
1780.000000,0.00433886562
1781.000000,0.004046150699
1782.000000,0.002709023671
1783.000000,0.004523337741
1784.000000,0.003470127883
1785.000000,0.00260619464
1786.000000,0.00335490169
1787.000000,0.003572295376
1788.000000,0.003563507797
1789.000000,0.00195767414
1790.000000,0.004262140725
1791.000000,0.002255523923
1792.000000,0.003062201466
1793.000000,0.004019522523
1794.000000,0.003412547346
1795.000000,0.0031608867
1796.000000,0.002827153457
1797.000000,0.003514582008
1798.000000,0.003981976406
1799.000000,0.002856577135
1800.000000,0.00342301727
1801.000000,0.002958389221
1802.000000,0.002930850823
1803.000000,0.001965893263
1804.000000,0.00332451417
1805.000000,0.003721042838
1806.000000,0.003087826273
1807.000000,0.003785890523
1808.000000,0.003278913851
1809.000000,0.00389134521
1810.000000,0.0032658864
1811.000000,0.002967140109
1812.000000,0.00289081669
1813.000000,0.003233714581
1814.000000,0.003349523137
1815.000000,0.002724008999
1816.000000,0.003091239583
1817.000000,0.002402738956
1818.000000,0.002397005508
1819.000000,0.003552459114
1820.000000,0.003388555929
1821.000000,0.003691302912
1822.000000,0.00325849446
1823.000000,0.003319638154
1824.000000,0.004241165125
1825.000000,0.002688832841
1826.000000,0.003340450657
1827.000000,0.004084958206
1828.000000,0.004350252893
1829.000000,0.003497145639
1830.000000,0.003105345681
1831.000000,0.002557029536
1832.000000,0.003074380182
1833.000000,0.003251547726
1834.000000,0.003172394158
1835.000000,0.00345285332
1836.000000,0.00348774362
1837.000000,0.002885492186
1838.000000,0.002639958232
1839.000000,0.002986144887
1840.000000,0.003404757299
1841.000000,0.004095630285
1842.000000,0.002207614482
1843.000000,0.00376703908
1844.000000,0.002982001414
1845.000000,0.00377866481
1846.000000,0.004231689416
1847.000000,0.003431193562
1848.000000,0.00248204942
1849.000000,0.002898486986
1850.000000,0.00334712777
1851.000000,0.002946374352
1852.000000,0.003095722216
1853.000000,0.002687616759
1854.000000,0.003004894442
1855.000000,0.002772055033
1856.000000,0.00362482667
1857.000000,0.003305865357
1858.000000,0.003554504988
1859.000000,0.002188101893
1860.000000,0.002867032434
1861.000000,0.002698140276
1862.000000,0.002876712246
1863.000000,0.002619588418
1864.000000,0.002707000135
1865.000000,0.004029284933
1866.000000,0.002966716116
1867.000000,0.002398655778
1868.000000,0.002950431091
1869.000000,0.00441280307
1870.000000,0.003525123568
1871.000000,0.002583967191
1872.000000,0.002973221685
1873.000000,0.003074529784
1874.000000,0.003135316298
1875.000000,0.002049869208
1876.000000,0.002568912411
1877.000000,0.00301496411
1878.000000,0.002121194558
1879.000000,0.003004862051
1880.000000,0.003150345398
1881.000000,0.003553870036
1882.000000,0.003718089044
1883.000000,0.003001092198
1884.000000,0.003236619694
1885.000000,0.003495629755
1886.000000,0.003688195477
1887.000000,0.003148589662
1888.000000,0.002674049308
1889.000000,0.003445335571
1890.000000,0.003594396421
1891.000000,0.00318927178
1892.000000,0.003433282716
1893.000000,0.004018467831
1894.000000,0.002815101317
1895.000000,0.002701186088
1896.000000,0.002480958604
1897.000000,0.003304450056
1898.000000,0.003647680882
1899.000000,0.002813180849
1900.000000,0.004143109094
1901.000000,0.002770037314
1902.000000,0.003259117521
1903.000000,0.003038436278
1904.000000,0.003898989219
1905.000000,0.002742786391
1906.000000,0.004050453438
1907.000000,0.003004171694
1908.000000,0.00233463806
1909.000000,0.002776987199
1910.000000,0.003011204091
1911.000000,0.004067794258
1912.000000,0.002827740888
1913.000000,0.003096805048
1914.000000,0.004293129338
1915.000000,0.003190521207
1916.000000,0.002738201632
1917.000000,0.002673950799
1918.000000,0.002201509857
1919.000000,0.003299525431
1920.000000,0.003789590426
1921.000000,0.002884010616
1922.000000,0.0024847706
1923.000000,0.003246845792
1924.000000,0.003091492839
1925.000000,0.003004920695
1926.000000,0.003341231681
1927.000000,0.003099740117
1928.000000,0.002869844663
1929.000000,0.003652550911
1930.000000,0.002010641912
1931.000000,0.002425363907
1932.000000,0.002912504047
1933.000000,0.002292672294
1934.000000,0.003935623314
1935.000000,0.0018078805
1936.000000,0.003469725243
1937.000000,0.003390516786
1938.000000,0.003259285931
1939.000000,0.003306614247
1940.000000,0.002733008245
1941.000000,0.002645560818
1942.000000,0.003875148594
1943.000000,0.002973502621
1944.000000,0.002214490654
1945.000000,0.002344618306
1946.000000,0.002169219225
1947.000000,0.003209845651
1948.000000,0.003714032458
1949.000000,0.002874814644
1950.000000,0.00313680357
1951.000000,0.002764152422
1952.000000,0.003568988145
1953.000000,0.003564657757
1954.000000,0.003594613187
1955.000000,0.004099511363
1956.000000,0.002356513762
1957.000000,0.003529508115
1958.000000,0.002175463576
1959.000000,0.003488007902
1960.000000,0.003543845709
1961.000000,0.00349449758
1962.000000,0.003542177935
1963.000000,0.003007126555
1964.000000,0.002719812575
1965.000000,0.003526685955
1966.000000,0.002727565523
1967.000000,0.003496405628
1968.000000,0.002602917755
1969.000000,0.003284764517
1970.000000,0.003256687181
1971.000000,0.00261236213
1972.000000,0.002908905514
1973.000000,0.003617642271
1974.000000,0.003111457202
1975.000000,0.003391913029
1976.000000,0.002779806015
1977.000000,0.003159137256
1978.000000,0.002252668611
1979.000000,0.002652007373
1980.000000,0.003808436457
1981.000000,0.0034060311
1982.000000,0.003101640767
1983.000000,0.00317245433
1984.000000,0.002323997543
1985.000000,0.00333106538
1986.000000,0.002390420258
1987.000000,0.002671918819
1988.000000,0.003484321376
1989.000000,0.002663964731
1990.000000,0.002789928818
1991.000000,0.003031349865
1992.000000,0.0031364419
1993.000000,0.003843482776
1994.000000,0.002101182954
1995.000000,0.002840152622
1996.000000,0.003407401925
1997.000000,0.002790406331
1998.000000,0.002842773672
1999.000000,0.002601868301
2000.000000,0.002888699147
