raman_shift_cm-1,intensity
200.000000,0.002546185833
201.000000,0.00223213218
202.000000,0.002879164288
203.000000,0.003281365199
204.000000,0.00371170257
205.000000,0.003094662694
206.000000,0.002696477394
207.000000,0.002556971372
208.000000,0.003479104093
209.000000,0.004011921382
210.000000,0.003193052474
211.000000,0.002287551013
212.000000,0.002453009043
213.000000,0.003991300285
214.000000,0.003151314863
215.000000,0.001987918194
216.000000,0.002979147463
217.000000,0.002330130794
218.000000,0.002651244673
219.000000,0.002736266809
220.000000,0.00260086979
221.000000,0.003362568069
222.000000,0.00299198086
223.000000,0.002675580039
224.000000,0.003276365961
225.000000,0.003529106043
226.000000,0.002042313821
227.000000,0.002875927407
228.000000,0.002440674462
229.000000,0.002926333142
230.000000,0.002255235042
231.000000,0.003043043154
232.000000,0.00300790194
233.000000,0.002847771596
234.000000,0.002400753567
235.000000,0.002792703408
236.000000,0.002374817963
237.000000,0.002216236043
238.000000,0.003166321425
239.000000,0.00236422744
240.000000,0.003734993472
241.000000,0.00346227518
242.000000,0.001830268125
243.000000,0.003195203023
244.000000,0.002369235158
245.000000,0.003051626049
246.000000,0.003058069959
247.000000,0.001836337735
248.000000,0.002891658087
249.000000,0.002878296339
250.000000,0.003610605308
251.000000,0.00232190236
252.000000,0.003476122637
253.000000,0.002371669632
254.000000,0.002833343783
255.000000,0.002527278027
256.000000,0.003903799598
257.000000,0.003374461715
258.000000,0.004495032646
259.000000,0.003418962083
260.000000,0.003541159114
261.000000,0.003538661565
262.000000,0.00266854088
263.000000,0.002991267369
264.000000,0.003845417709
265.000000,0.002795131064
266.000000,0.003147181647
267.000000,0.00302099853
268.000000,0.003400161426
269.000000,0.002814547597
270.000000,0.002942445061
271.000000,0.003179892487
272.000000,0.00309620114
273.000000,0.002514275293
274.000000,0.003573067385
275.000000,0.002253824147
276.000000,0.002312470538
277.000000,0.002263645416
278.000000,0.00361628599
279.000000,0.002818156585
280.000000,0.00245123045
281.000000,0.002352136657
282.000000,0.003288513704
283.000000,0.002401163964
284.000000,0.002270654451
285.000000,0.003404802756
286.000000,0.002316192642
287.000000,0.002841976161
288.000000,0.003031895094
289.000000,0.002768306428
290.000000,0.003003661775
291.000000,0.003841265885
292.000000,0.00272562318
293.000000,0.002279348207
294.000000,0.001932268286
295.000000,0.00291364664
296.000000,0.002825083112
297.000000,0.003196395266
298.000000,0.002757987555
299.000000,0.00274945385
300.000000,0.002603660978
301.000000,0.002724973236
302.000000,0.00313395242
303.000000,0.002809042492
304.000000,0.003098255304
305.000000,0.004181116193
306.000000,0.003326195498
307.000000,0.002090588104
308.000000,0.004080692934
309.000000,0.003247631144
310.000000,0.00247259023
311.000000,0.003584147565
312.000000,0.003049514695
313.000000,0.002669120195
314.000000,0.002658257648
315.000000,0.002441982669
316.000000,0.003068373167
317.000000,0.003682226381
318.000000,0.002844273579
319.000000,0.003292886927
320.000000,0.004167769336
321.000000,0.002309844182
322.000000,0.003195125372
323.000000,0.002856177979
324.000000,0.00240367586
325.000000,0.00242391046
326.000000,0.003031679369
327.000000,0.003301888199
328.000000,0.002721540206
329.000000,0.003074024326
330.000000,0.003475716266
331.000000,0.00321994112
332.000000,0.003564088459
333.000000,0.003319362855
334.000000,0.003335520471
335.000000,0.004140557001
336.000000,0.003417111329
337.000000,0.003120425447
338.000000,0.003469609451
339.000000,0.002490263994
340.000000,0.002840019665
341.000000,0.003520178806
342.000000,0.003422680553
343.000000,0.003974561128
344.000000,0.003050045836
345.000000,0.002164667394
346.000000,0.004214917736
347.000000,0.0037013959
348.000000,0.002407862012
349.000000,0.003871870213
350.000000,0.003064291705
351.000000,0.001954329525
352.000000,0.002792428383
353.000000,0.002739371299
354.000000,0.00400207676
355.000000,0.002569488344
356.000000,0.002893433497
357.000000,0.002879710091
358.000000,0.002818446891
359.000000,0.002496901958
360.000000,0.00317843533
361.000000,0.003694354683
362.000000,0.003422284278
363.000000,0.00248963028
364.000000,0.002356162649
365.000000,0.003119254622
366.000000,0.002623082322
367.000000,0.002669238681
368.000000,0.002038400708
369.000000,0.004221338368
370.000000,0.003599918251
371.000000,0.002463419609
372.000000,0.003595301839
373.000000,0.003856642597
374.000000,0.001612902774
375.000000,0.002719833385
376.000000,0.002816850434
377.000000,0.003440135248
378.000000,0.002977559766
379.000000,0.002912278356
380.000000,0.003015971821
381.000000,0.004165659814
382.000000,0.004350286007
383.000000,0.002736237698
384.000000,0.002495126066
385.000000,0.004671252609
386.000000,0.002463463085
387.000000,0.002708041453
388.000000,0.003075065736
389.000000,0.003343894013
390.000000,0.003672325721
391.000000,0.00328894785
392.000000,0.002529597354
393.000000,0.003358881415
394.000000,0.003204953147
395.000000,0.004183500104
396.000000,0.003046227982
397.000000,0.002251650365
398.000000,0.002427481688
399.000000,0.00392804691
400.000000,0.002731643269
401.000000,0.001791353693
402.000000,0.002707850897
403.000000,0.003057322689
404.000000,0.003772430885
405.000000,0.00244796506
406.000000,0.003459107337
407.000000,0.003536759715
408.000000,0.002638371867
409.000000,0.002946428216
410.000000,0.004123469088
411.000000,0.004094362445
412.000000,0.003574624907
413.000000,0.003260157354
414.000000,0.003745346681
415.000000,0.002976681151
416.000000,0.003004445165
417.000000,0.002544672769
418.000000,0.003065691251
419.000000,0.003013400933
420.000000,0.004730790934
421.000000,0.002947516051
422.000000,0.003827955059
423.000000,0.003858213678
424.000000,0.002952506733
425.000000,0.003768152601
426.000000,0.001756578638
427.000000,0.003122917311
428.000000,0.003581700017
429.000000,0.001624908376
430.000000,0.002370123168
431.000000,0.00370251459
432.000000,0.002913432339
433.000000,0.002408093329
434.000000,0.002844223922
435.000000,0.002743068167
436.000000,0.003505359813
437.000000,0.003343146471
438.000000,0.002902219169
439.000000,0.002671141806
440.000000,0.003039286027
441.000000,0.003868950981
442.000000,0.0032825345
443.000000,0.003457363102
444.000000,0.002983099802
445.000000,0.002297493098
446.000000,0.002647346119
447.000000,0.003466863716
448.000000,0.003137902708
449.000000,0.002532945565
450.000000,0.002104184351
451.000000,0.003144084271
452.000000,0.002873966252
453.000000,0.002867943418
454.000000,0.002881218264
455.000000,0.003250619809
456.000000,0.003257577819
457.000000,0.00365966341
458.000000,0.003640035504
459.000000,0.003883400648
460.000000,0.003567954904
461.000000,0.0028819926
462.000000,0.003051835543
463.000000,0.003382316218
464.000000,0.002899295064
465.000000,0.003416942983
466.000000,0.003780942332
467.000000,0.002606287878
468.000000,0.002024328926
469.000000,0.003807285657
470.000000,0.003101036653
471.000000,0.003517255897
472.000000,0.002290888106
473.000000,0.004134785202
474.000000,0.003537738067
475.000000,0.003018678253
476.000000,0.002883713826
477.000000,0.003164723112
478.000000,0.002996894145
479.000000,0.002930497657
480.000000,0.002425822198
481.000000,0.003859250934
482.000000,0.003077139662
483.000000,0.00314680729
484.000000,0.003158812976
485.000000,0.001686053877
486.000000,0.003421989729
487.000000,0.002908200983
488.000000,0.002933306488
489.000000,0.003150293985
490.000000,0.002524756994
491.000000,0.003617746665
492.000000,0.002693438164
493.000000,0.002569717789
494.000000,0.002595897575
495.000000,0.00321103309
496.000000,0.003565296174
497.000000,0.002760423608
498.000000,0.002211541245
499.000000,0.003759806703
500.000000,0.002481982387
501.000000,0.003842257243
502.000000,0.003092684495
503.000000,0.002706958805
504.000000,0.002743579982
505.000000,0.003407722048
506.000000,0.003666405948
507.000000,0.003014176884
508.000000,0.003704413438
509.000000,0.004391650115
510.000000,0.003013369293
511.000000,0.002449343724
512.000000,0.002508392979
513.000000,0.00230835557
514.000000,0.002761712815
515.000000,0.002713192775
516.000000,0.002353744903
517.000000,0.003471442078
518.000000,0.001584765085
519.000000,0.002363018018
520.000000,0.004371240204
521.000000,0.00378594995
522.000000,0.00347877999
523.000000,0.003441940384
524.000000,0.004234454696
525.000000,0.003494418325
526.000000,0.0032218042
527.000000,0.002438385318
528.000000,0.003136724111
529.000000,0.002742821786
530.000000,0.002762645863
531.000000,0.002761062375
532.000000,0.003167038991
533.000000,0.002999119978
534.000000,0.003724735377
535.000000,0.002407287397
536.000000,0.003106628698
537.000000,0.00433056477
538.000000,0.00324000942
539.000000,0.003941576851
540.000000,0.003908864269
541.000000,0.004021541185
542.000000,0.003678436282
543.000000,0.002409531124
544.000000,0.003083892377
545.000000,0.003021289678
546.000000,0.002324210711
547.000000,0.00298230935
548.000000,0.002515559017
549.000000,0.002271959569
550.000000,0.003406680923
551.000000,0.003260406939
552.000000,0.002880084828
553.000000,0.002729424306
554.000000,0.002983192277
555.000000,0.003079693317
556.000000,0.00307963311
557.000000,0.003302084011
558.000000,0.003081069144
559.000000,0.003585232964
560.000000,0.003677025733
561.000000,0.00358839722
562.000000,0.002985633576
563.000000,0.003025341105
564.000000,0.003669802104
565.000000,0.003302816343
566.000000,0.003409013719
567.000000,0.001951023297
568.000000,0.001841137328
569.000000,0.00368347132
570.000000,0.003695983431
571.000000,0.004353762312
572.000000,0.003968763793
573.000000,0.003688898741
574.000000,0.003587147466
575.000000,0.00274261518
576.000000,0.004156217688
577.000000,0.003288689861
578.000000,0.003982014954
579.000000,0.003830482535
580.000000,0.003906366378
581.000000,0.004314529847
582.000000,0.003521003272
583.000000,0.003623484048
584.000000,0.003385833256
585.000000,0.003721513151
586.000000,0.005001967955
587.000000,0.003838492143
588.000000,0.004831703598
589.000000,0.004683253723
590.000000,0.004699518812
591.000000,0.004825831788
592.000000,0.003823734049
593.000000,0.004758564669
594.000000,0.005600838221
595.000000,0.004352234292
596.000000,0.004882266053
597.000000,0.004653920343
598.000000,0.005437387217
599.000000,0.004801327091
600.000000,0.006649898882
601.000000,0.005722660381
602.000000,0.005331071589
603.000000,0.007696109579
604.000000,0.007626671268
605.000000,0.007856773348
606.000000,0.008464919909
607.000000,0.008653000364
608.000000,0.009615695372
609.000000,0.01127214569
610.000000,0.01274389037
611.000000,0.01446347711
612.000000,0.01621489216
613.000000,0.01862453492
614.000000,0.02244711477
615.000000,0.02796607706
616.000000,0.03417771446
617.000000,0.04034165604
618.000000,0.04798494395
619.000000,0.05540214112
620.000000,0.05763427589
621.000000,0.05507244377
622.000000,0.04748521888
623.000000,0.04032567881
624.000000,0.0330069926
625.000000,0.02742980419
626.000000,0.02155657686
627.000000,0.01967788231
628.000000,0.01627699293
629.000000,0.01417480944
630.000000,0.01149198316
631.000000,0.01083394586
632.000000,0.01056665832
633.000000,0.007939742111
634.000000,0.008345167734
635.000000,0.00798301886
636.000000,0.006646135962
637.000000,0.007129522119
638.000000,0.006081679395
639.000000,0.006711410141
640.000000,0.006023214533
641.000000,0.005609961073
642.000000,0.006481178266
643.000000,0.005596250949
644.000000,0.005726473342
645.000000,0.0040856956
646.000000,0.004288602965
647.000000,0.005069943518
648.000000,0.005012336338
649.000000,0.004345041692
650.000000,0.00476673823
651.000000,0.003588475782
652.000000,0.004286993907
653.000000,0.003408081858
654.000000,0.004247411507
655.000000,0.003699710362
656.000000,0.003560184951
657.000000,0.003936756083
658.000000,0.00495636128
659.000000,0.003218939294
660.000000,0.003431914763
661.000000,0.004404618809
662.000000,0.003479180354
663.000000,0.004770917199
664.000000,0.003816043832
665.000000,0.003713589454
666.000000,0.003852107748
667.000000,0.00466432117
668.000000,0.003992662823
669.000000,0.003891739533
670.000000,0.003716070425
671.000000,0.002609833066
672.000000,0.003002591639
673.000000,0.004413288484
674.000000,0.004002932455
675.000000,0.003801195226
676.000000,0.003868848809
677.000000,0.003148533167
678.000000,0.003668810914
679.000000,0.00291481203
680.000000,0.003683148027
681.000000,0.003010383077
682.000000,0.00330365269
683.000000,0.003697765334
684.000000,0.003222030912
685.000000,0.003801699155
686.000000,0.003680747537
687.000000,0.003617284121
688.000000,0.004192460598
689.000000,0.00250526198
690.000000,0.00242734125
691.000000,0.003753665298
692.000000,0.003945121085
693.000000,0.004585602717
694.000000,0.003827682241
695.000000,0.003869336689
696.000000,0.002836641334
697.000000,0.003817862834
698.000000,0.003768473145
699.000000,0.002726684714
700.000000,0.002821092801
701.000000,0.003291979575
702.000000,0.003531011611
703.000000,0.001586267836
704.000000,0.003398568937
705.000000,0.003494746166
706.000000,0.0032494833
707.000000,0.003516337577
708.000000,0.003630344293
709.000000,0.002748494981
710.000000,0.003607765277
711.000000,0.003207415886
712.000000,0.002791008488
713.000000,0.003486934432
714.000000,0.004257339546
715.000000,0.002486853598
716.000000,0.002372965765
717.000000,0.002375330108
718.000000,0.00456087636
719.000000,0.003223611294
720.000000,0.003342279681
721.000000,0.00290853914
722.000000,0.002819735632
723.000000,0.002170511455
724.000000,0.003495964159
725.000000,0.003554180906
726.000000,0.002214617552
727.000000,0.002781103125
728.000000,0.002966523529
729.000000,0.003404288186
730.000000,0.003573079878
731.000000,0.004109970681
732.000000,0.004260668015
733.000000,0.004090333847
734.000000,0.004262638939
735.000000,0.002763297743
736.000000,0.003140368946
737.000000,0.00417108503
738.000000,0.003667321875
739.000000,0.003515939569
740.000000,0.002326373958
741.000000,0.002410690532
742.000000,0.003981146768
743.000000,0.003760975194
744.000000,0.003392379965
745.000000,0.00333782879
746.000000,0.002565051691
747.000000,0.003843980282
748.000000,0.004261813269
749.000000,0.004647594589
750.000000,0.003711511941
751.000000,0.003582473422
752.000000,0.003071203359
753.000000,0.004492447199
754.000000,0.004811961753
755.000000,0.003447902305
756.000000,0.004024694306
757.000000,0.003940297912
758.000000,0.003579563175
759.000000,0.002464959744
760.000000,0.00379210775
761.000000,0.004426937705
762.000000,0.003247828069
763.000000,0.003670133389
764.000000,0.002264654166
765.000000,0.005081994067
766.000000,0.004688196996
767.000000,0.004500507083
768.000000,0.004405431561
769.000000,0.0042902181
770.000000,0.004743343665
771.000000,0.004735308503
772.000000,0.00491976183
773.000000,0.005214641796
774.000000,0.005498277724
775.000000,0.00656759863
776.000000,0.005008770026
777.000000,0.006318166459
778.000000,0.006109096604
779.000000,0.006176071606
780.000000,0.005877780897
781.000000,0.008185206942
782.000000,0.00783952584
783.000000,0.008711803306
784.000000,0.01032626471
785.000000,0.01045707604
786.000000,0.01241688998
787.000000,0.01392914964
788.000000,0.01636662457
789.000000,0.01879157201
790.000000,0.02037378466
791.000000,0.02451773697
792.000000,0.02714619173
793.000000,0.03028505508
794.000000,0.03227779317
795.000000,0.03368495404
796.000000,0.03167782378
797.000000,0.03036982677
798.000000,0.02791466174
799.000000,0.02380015468
800.000000,0.02211980196
801.000000,0.01774810582
802.000000,0.01602078521
803.000000,0.01369290759
804.000000,0.01203922421
805.000000,0.01044880592
806.000000,0.00973128498
807.000000,0.009144551061
808.000000,0.007960636671
809.000000,0.008360488585
810.000000,0.008226576214
811.000000,0.005953815394
812.000000,0.006999612767
813.000000,0.006287882103
814.000000,0.006041864277
815.000000,0.007132101398
816.000000,0.006164427609
817.000000,0.005454703618
818.000000,0.005199063429
819.000000,0.003646746672
820.000000,0.005283335757
821.000000,0.004252586624
822.000000,0.004704237792
823.000000,0.004563547817
824.000000,0.004997681166
825.000000,0.005564557023
826.000000,0.004865582464
827.000000,0.004976308459
828.000000,0.004012202226
829.000000,0.004374519667
830.000000,0.004514674088
831.000000,0.003142175123
832.000000,0.005194494866
833.000000,0.00349955262
834.000000,0.003126540866
835.000000,0.004845129868
836.000000,0.005106708885
837.000000,0.003382700702
838.000000,0.003411180378
839.000000,0.005627350554
840.000000,0.003801932402
841.000000,0.002520762563
842.000000,0.003326485158
843.000000,0.004880643412
844.000000,0.00405654506
845.000000,0.004096963321
846.000000,0.004366583786
847.000000,0.004023121935
848.000000,0.003403843802
849.000000,0.002633801734
850.000000,0.003849803719
851.000000,0.00290010183
852.000000,0.003527732614
853.000000,0.004610209705
854.000000,0.003869315836
855.000000,0.003572221388
856.000000,0.003568688192
857.000000,0.003961850981
858.000000,0.004070085325
859.000000,0.002718594449
860.000000,0.003616489245
861.000000,0.004531553327
862.000000,0.003948974708
863.000000,0.003031129447
864.000000,0.003078674442
865.000000,0.002244019936
866.000000,0.003003562819
867.000000,0.004443938003
868.000000,0.003433337173
869.000000,0.002958761393
870.000000,0.003124446312
871.000000,0.00340253202
872.000000,0.003403591455
873.000000,0.003253612585
874.000000,0.003003055439
875.000000,0.003847526836
876.000000,0.004389377289
877.000000,0.003122566469
878.000000,0.003138600884
879.000000,0.004179389203
880.000000,0.002584598098
881.000000,0.003109771824
882.000000,0.003238894181
883.000000,0.003568202199
884.000000,0.003303307842
885.000000,0.002937044027
886.000000,0.00365855316
887.000000,0.002759652925
888.000000,0.002428209424
889.000000,0.00225875382
890.000000,0.003931019894
891.000000,0.002439307244
892.000000,0.003755419907
893.000000,0.003893101316
894.000000,0.003978412206
895.000000,0.003391859969
896.000000,0.00317114192
897.000000,0.00355636313
898.000000,0.003152179449
899.000000,0.002740376551
900.000000,0.00427338613
901.000000,0.002985767862
902.000000,0.004608669101
903.000000,0.003843909542
904.000000,0.003266888807
905.000000,0.003809415773
906.000000,0.00429226943
907.000000,0.00273041307
908.000000,0.003008924214
909.000000,0.002942491406
910.000000,0.003680142356
911.000000,0.00383182672
912.000000,0.003614359901
913.000000,0.003167612785
914.000000,0.003296597845
915.000000,0.004337317703
916.000000,0.004304794049
917.000000,0.003722212148
918.000000,0.002865637097
919.000000,0.004042206111
920.000000,0.003848805635
921.000000,0.003839583653
922.000000,0.004740108062
923.000000,0.004206034258
924.000000,0.003140048446
925.000000,0.003159763022
926.000000,0.004584238295
927.000000,0.003893052488
928.000000,0.0043184309
929.000000,0.003737478337
930.000000,0.003247647405
931.000000,0.004031323671
932.000000,0.004828427982
933.000000,0.004114473209
934.000000,0.003254132197
935.000000,0.003768264099
936.000000,0.003680747442
937.000000,0.004110345644
938.000000,0.004646238373
939.000000,0.005246747836
940.000000,0.004227451683
941.000000,0.003864149338
942.000000,0.004199160022
943.000000,0.004193653428
944.000000,0.003961301374
945.000000,0.004265220887
946.000000,0.004287336429
947.000000,0.003618441902
948.000000,0.004695417587
949.000000,0.004190373014
950.000000,0.003861806271
951.000000,0.004795367027
952.000000,0.004257842375
953.000000,0.005651883445
954.000000,0.004946450814
955.000000,0.004764727594
956.000000,0.004327039947
957.000000,0.004604143956
958.000000,0.005430912111
959.000000,0.004583990308
960.000000,0.005536837037
961.000000,0.003905599604
962.000000,0.005383559575
963.000000,0.005856550536
964.000000,0.005679918045
965.000000,0.005593687331
966.000000,0.006333429827
967.000000,0.00535307828
968.000000,0.005429553367
969.000000,0.00625156774
970.000000,0.007094857521
971.000000,0.006832402383
972.000000,0.006677421334
973.000000,0.007219033463
974.000000,0.007575083413
975.000000,0.0068612529
976.000000,0.006255181813
977.000000,0.007705991671
978.000000,0.007848282878
979.000000,0.008878747486
980.000000,0.009051609639
981.000000,0.00988061
982.000000,0.01138515185
983.000000,0.01202325358
984.000000,0.0129342238
985.000000,0.01510985164
986.000000,0.01522145201
987.000000,0.01694133823
988.000000,0.01997179965
989.000000,0.02106683312
990.000000,0.02392774109
991.000000,0.02975164836
992.000000,0.0344594361
993.000000,0.04167397553
994.000000,0.05134094976
995.000000,0.06504191201
996.000000,0.08373705616
997.000000,0.1126996314
998.000000,0.1542471506
999.000000,0.2129039817
1000.000000,0.2754976819
1001.000000,0.3052569284
1002.000000,0.2759865131
1003.000000,0.2150530905
1004.000000,0.1549157413
1005.000000,0.1141814653
1006.000000,0.0857830205
1007.000000,0.06660866103
1008.000000,0.05223780937
1009.000000,0.04411636635
1010.000000,0.03708716147
1011.000000,0.03171995944
1012.000000,0.02797370446
1013.000000,0.02565683892
1014.000000,0.02412411842
1015.000000,0.02272620052
1016.000000,0.02269187379
1017.000000,0.02066116875
1018.000000,0.02122507427
1019.000000,0.02100745127
1020.000000,0.02263443649
1021.000000,0.02371913635
1022.000000,0.02548705287
1023.000000,0.02822399962
1024.000000,0.03306928617
1025.000000,0.04007794506
1026.000000,0.04992777828
1027.000000,0.06242162687
1028.000000,0.07898970945
1029.000000,0.101558984
1030.000000,0.1231943266
1031.000000,0.1324148593
1032.000000,0.122807119
1033.000000,0.1015086029
1034.000000,0.07861126758
1035.000000,0.05988473681
1036.000000,0.04577994061
1037.000000,0.03714512959
1038.000000,0.02942306807
1039.000000,0.02526250309
1040.000000,0.02175378473
1041.000000,0.01786107591
1042.000000,0.01632266561
1043.000000,0.01441393329
1044.000000,0.01432350941
1045.000000,0.01227778384
1046.000000,0.009898453708
1047.000000,0.01048596351
1048.000000,0.009782651283
1049.000000,0.008826902177
1050.000000,0.008218687917
1051.000000,0.008366980514
1052.000000,0.008024088335
1053.000000,0.007552247882
1054.000000,0.006396310978
1055.000000,0.006579295568
1056.000000,0.005558315038
1057.000000,0.005385121165
1058.000000,0.005758048375
1059.000000,0.005289398401
1060.000000,0.005518929214
1061.000000,0.007116121158
1062.000000,0.005792265501
1063.000000,0.004844171458
1064.000000,0.003967660796
1065.000000,0.004662650974
1066.000000,0.004211506366
1067.000000,0.003666585104
1068.000000,0.005343531769
1069.000000,0.004546490168
1070.000000,0.005033331747
1071.000000,0.006565616528
1072.000000,0.004813649644
1073.000000,0.00466847638
1074.000000,0.0047588288
1075.000000,0.004343160803
1076.000000,0.003963810003
1077.000000,0.004293885852
1078.000000,0.005072359811
1079.000000,0.004189464482
1080.000000,0.003497099316
1081.000000,0.003541828109
1082.000000,0.003645977637
1083.000000,0.004247396078
1084.000000,0.004508206982
1085.000000,0.004488041302
1086.000000,0.004896547672
1087.000000,0.004043750353
1088.000000,0.004655894438
1089.000000,0.004338397098
1090.000000,0.004557598113
1091.000000,0.003017841582
1092.000000,0.004867646164
1093.000000,0.003183381921
1094.000000,0.0034304163
1095.000000,0.004571661694
1096.000000,0.003868348893
1097.000000,0.005163034821
1098.000000,0.004196740242
1099.000000,0.003482826959
1100.000000,0.004195244156
1101.000000,0.003862757718
1102.000000,0.005041086385
1103.000000,0.005092277739
1104.000000,0.004562770055
1105.000000,0.003882282692
1106.000000,0.004186079178
1107.000000,0.004776565099
1108.000000,0.003676245468
1109.000000,0.003693559469
1110.000000,0.004697893389
1111.000000,0.004647169851
1112.000000,0.004084259783
1113.000000,0.004083845746
1114.000000,0.003095804276
1115.000000,0.005007078066
1116.000000,0.004254833644
1117.000000,0.003499400403
1118.000000,0.003716215248
1119.000000,0.003896694917
1120.000000,0.005501729752
1121.000000,0.004941121661
1122.000000,0.003775385542
1123.000000,0.005753281379
1124.000000,0.005507267275
1125.000000,0.004137512126
1126.000000,0.003254464578
1127.000000,0.005520094265
1128.000000,0.004676953724
1129.000000,0.005066128729
1130.000000,0.00495407813
1131.000000,0.006163389072
1132.000000,0.006449295443
1133.000000,0.006221107135
1134.000000,0.005841072898
1135.000000,0.006314677066
1136.000000,0.0067895812
1137.000000,0.005767997833
1138.000000,0.007809221609
1139.000000,0.007275450728
1140.000000,0.008102749524
1141.000000,0.008595571079
1142.000000,0.009736162573
1143.000000,0.01065419491
1144.000000,0.01234084092
1145.000000,0.01203320162
1146.000000,0.01323525626
1147.000000,0.01578316664
1148.000000,0.01773492551
1149.000000,0.02170843642
1150.000000,0.02453589106
1151.000000,0.02975922004
1152.000000,0.03557093199
1153.000000,0.04099850679
1154.000000,0.04475077557
1155.000000,0.0471530147
1156.000000,0.04552401258
1157.000000,0.03961365329
1158.000000,0.03559694156
1159.000000,0.0302968311
1160.000000,0.02549258376
1161.000000,0.02161103315
1162.000000,0.01912366822
1163.000000,0.0170860062
1164.000000,0.01529928371
1165.000000,0.01465031032
1166.000000,0.01345402729
1167.000000,0.01180246083
1168.000000,0.01123060123
1169.000000,0.01193150475
1170.000000,0.01093076563
1171.000000,0.01157143981
1172.000000,0.01208662303
1173.000000,0.01298519075
1174.000000,0.01352604381
1175.000000,0.01528852335
1176.000000,0.01580271553
1177.000000,0.01872782687
1178.000000,0.02091704116
1179.000000,0.02528322987
1180.000000,0.02993513896
1181.000000,0.03433282927
1182.000000,0.03747156668
1183.000000,0.04121376444
1184.000000,0.03907264088
1185.000000,0.03460735087
1186.000000,0.02888015016
1187.000000,0.02421298368
1188.000000,0.0206189704
1189.000000,0.01714528478
1190.000000,0.01534191789
1191.000000,0.01279044226
1192.000000,0.01072744773
1193.000000,0.01040823843
1194.000000,0.008720241718
1195.000000,0.008472472333
1196.000000,0.006634024205
1197.000000,0.007000187121
1198.000000,0.00711765414
1199.000000,0.00603020693
1200.000000,0.006098089599
1201.000000,0.006205643144
1202.000000,0.005663774915
1203.000000,0.006498737279
1204.000000,0.005095573194
1205.000000,0.004990375715
1206.000000,0.00486607801
1207.000000,0.003653387044
1208.000000,0.0038116239
1209.000000,0.004957072408
1210.000000,0.004350962631
1211.000000,0.00530458097
1212.000000,0.004350374044
1213.000000,0.004229259826
1214.000000,0.004889838599
1215.000000,0.004382309131
1216.000000,0.00512964477
1217.000000,0.003482950559
1218.000000,0.004339870751
1219.000000,0.004444132071
1220.000000,0.004332996039
1221.000000,0.00465730585
1222.000000,0.004552416207
1223.000000,0.003926646624
1224.000000,0.003542654482
1225.000000,0.004442930436
1226.000000,0.003861095741
1227.000000,0.004386943989
1228.000000,0.004604500639
1229.000000,0.003894927258
1230.000000,0.003215542105
1231.000000,0.003588312738
1232.000000,0.004200215967
1233.000000,0.003569660728
1234.000000,0.004407410348
1235.000000,0.003711293371
1236.000000,0.003755310806
1237.000000,0.003288052518
1238.000000,0.003593339242
1239.000000,0.004299574217
1240.000000,0.003424168307
1241.000000,0.003417961846
1242.000000,0.003138458558
1243.000000,0.004064922527
1244.000000,0.002670077302
1245.000000,0.003181219089
1246.000000,0.00411108654
1247.000000,0.004409527641
1248.000000,0.003411517779
1249.000000,0.004115802255
1250.000000,0.002335607189
1251.000000,0.003975627557
1252.000000,0.003688650019
1253.000000,0.002770614934
1254.000000,0.002429525252
1255.000000,0.003189448281
1256.000000,0.003643234684
1257.000000,0.00370324948
1258.000000,0.003543055702
1259.000000,0.003934999372
1260.000000,0.00388790135
1261.000000,0.002630335903
1262.000000,0.003227176863
1263.000000,0.003145674792
1264.000000,0.004066220242
1265.000000,0.003149079269
1266.000000,0.004046122377
1267.000000,0.003493348589
1268.000000,0.004845253073
1269.000000,0.003402415822
1270.000000,0.00343192792
1271.000000,0.003359323243
1272.000000,0.003512264452
1273.000000,0.004881380404
1274.000000,0.003115889461
1275.000000,0.002892070746
1276.000000,0.003294824345
1277.000000,0.003815164139
1278.000000,0.002814907266
1279.000000,0.003885259099
1280.000000,0.003863609612
1281.000000,0.003303197352
1282.000000,0.00324885032
1283.000000,0.002924860596
1284.000000,0.003232004128
1285.000000,0.002914643826
1286.000000,0.004141031943
1287.000000,0.004370341979
1288.000000,0.003220551409
1289.000000,0.003365359946
1290.000000,0.002247469171
1291.000000,0.003069767656
1292.000000,0.003590320261
1293.000000,0.003549734473
1294.000000,0.003458953189
1295.000000,0.003892428403
1296.000000,0.003438679945
1297.000000,0.00315047991
1298.000000,0.004345321035
1299.000000,0.002230988437
1300.000000,0.002687766242
1301.000000,0.002938848424
1302.000000,0.002943548903
1303.000000,0.00291603343
1304.000000,0.003245397597
1305.000000,0.002952031398
1306.000000,0.003345426625
1307.000000,0.003733594077
1308.000000,0.003396059831
1309.000000,0.003458983465
1310.000000,0.002818173809
1311.000000,0.002698660143
1312.000000,0.003205277364
1313.000000,0.003936604965
1314.000000,0.003607822138
1315.000000,0.004035163821
1316.000000,0.003980200354
1317.000000,0.004059464852
1318.000000,0.00290472888
1319.000000,0.004131884173
1320.000000,0.003845745185
1321.000000,0.004636610789
1322.000000,0.003749148344
1323.000000,0.003593724087
1324.000000,0.003323772586
1325.000000,0.003502359633
1326.000000,0.002417811934
1327.000000,0.003259683284
1328.000000,0.003389198604
1329.000000,0.004006948662
1330.000000,0.003025638003
1331.000000,0.003500313466
1332.000000,0.00451600378
1333.000000,0.003111449772
1334.000000,0.003935022086
1335.000000,0.003116142577
1336.000000,0.003378981817
1337.000000,0.003717880041
1338.000000,0.003973979956
1339.000000,0.003156825758
1340.000000,0.00284529172
1341.000000,0.004365546292
1342.000000,0.003575979238
1343.000000,0.003942902138
1344.000000,0.00401900539
1345.000000,0.003931382428
1346.000000,0.003329131429
1347.000000,0.003409335046
1348.000000,0.00256989874
1349.000000,0.00360924855
1350.000000,0.003228531316
1351.000000,0.003500814025
1352.000000,0.00463372377
1353.000000,0.003936979871
1354.000000,0.00356619271
1355.000000,0.002732709097
1356.000000,0.0039826832
1357.000000,0.004462084209
1358.000000,0.003075979671
1359.000000,0.003825669602
1360.000000,0.003274694967
1361.000000,0.003500924705
1362.000000,0.003383103376
1363.000000,0.002653978684
1364.000000,0.00331530997
1365.000000,0.00266889283
1366.000000,0.004461409459
1367.000000,0.004268439898
1368.000000,0.003688379917
1369.000000,0.003839621132
1370.000000,0.003720895979
1371.000000,0.003817267538
1372.000000,0.00382900458
1373.000000,0.003585260668
1374.000000,0.003642835782
1375.000000,0.002961271221
1376.000000,0.003179795675
1377.000000,0.003430095116
1378.000000,0.003928279596
1379.000000,0.003603401682
1380.000000,0.004968255227
1381.000000,0.003749135848
1382.000000,0.003670584389
1383.000000,0.004158066068
1384.000000,0.004532748163
1385.000000,0.005042059661
1386.000000,0.00454750868
1387.000000,0.003650181272
1388.000000,0.003923916038
1389.000000,0.004672382882
1390.000000,0.004233770856
1391.000000,0.004584414406
1392.000000,0.00410098862
1393.000000,0.005123232182
1394.000000,0.005068186377
1395.000000,0.004916459355
1396.000000,0.004385381127
1397.000000,0.003385972432
1398.000000,0.003585028728
1399.000000,0.004618484006
1400.000000,0.004860958653
1401.000000,0.002814657839
1402.000000,0.004305286867
1403.000000,0.005320866939
1404.000000,0.005267800088
1405.000000,0.004480653559
1406.000000,0.005218972816
1407.000000,0.004938236678
1408.000000,0.004873292848
1409.000000,0.005747136181
1410.000000,0.00585191565
1411.000000,0.004973865779
1412.000000,0.004834653637
1413.000000,0.004737759922
1414.000000,0.004796135661
1415.000000,0.006551230855
1416.000000,0.007016701247
1417.000000,0.006199589595
1418.000000,0.006867849713
1419.000000,0.006037846927
1420.000000,0.006606884543
1421.000000,0.007413668111
1422.000000,0.007311663056
1423.000000,0.007382205996
1424.000000,0.00673287074
1425.000000,0.007196130796
1426.000000,0.008184553824
1427.000000,0.008526064612
1428.000000,0.009282581953
1429.000000,0.009486927377
1430.000000,0.01033916763
1431.000000,0.01119082545
1432.000000,0.01224323955
1433.000000,0.01288093062
1434.000000,0.01355982723
1435.000000,0.01492225676
1436.000000,0.01701741909
1437.000000,0.0180063095
1438.000000,0.01948785552
1439.000000,0.02173773435
1440.000000,0.02518260172
1441.000000,0.02852515822
1442.000000,0.03266664751
1443.000000,0.03615319782
1444.000000,0.0422072678
1445.000000,0.04686740951
1446.000000,0.05300072319
1447.000000,0.05882400896
1448.000000,0.0647370393
1449.000000,0.06871457083
1450.000000,0.0694116116
1451.000000,0.0678128256
1452.000000,0.06353682981
1453.000000,0.05925743616
1454.000000,0.05295518229
1455.000000,0.04697680865
1456.000000,0.04106065244
1457.000000,0.03586292269
1458.000000,0.0317366686
1459.000000,0.02850190851
1460.000000,0.02562405422
1461.000000,0.02237347647
1462.000000,0.02030047179
1463.000000,0.01807415014
1464.000000,0.0164817978
1465.000000,0.01435971528
1466.000000,0.01447530945
1467.000000,0.01327435198
1468.000000,0.01288096592
1469.000000,0.01089319416
1470.000000,0.01064342884
1471.000000,0.009430318946
1472.000000,0.009580724569
1473.000000,0.008899864964
1474.000000,0.008949502943
1475.000000,0.008098218622
1476.000000,0.008225309897
1477.000000,0.007264886011
1478.000000,0.00762828266
1479.000000,0.00686170124
1480.000000,0.006562693525
1481.000000,0.006668402249
1482.000000,0.006649532316
1483.000000,0.005447030024
1484.000000,0.005233286563
1485.000000,0.00608803613
1486.000000,0.005817565168
1487.000000,0.004549139038
1488.000000,0.004633729514
1489.000000,0.005079751489
1490.000000,0.005622365775
1491.000000,0.005470887892
1492.000000,0.005861282259
1493.000000,0.005885474897
1494.000000,0.006517196275
1495.000000,0.004235919327
1496.000000,0.004996306475
1497.000000,0.005588110199
1498.000000,0.004187900549
1499.000000,0.004053806034
1500.000000,0.004949352207
1501.000000,0.00543534622
1502.000000,0.00549275725
1503.000000,0.003694269873
1504.000000,0.003993625889
1505.000000,0.004619324962
1506.000000,0.004343245569
1507.000000,0.004818484114
1508.000000,0.004689318504
1509.000000,0.005621653362
1510.000000,0.00454269685
1511.000000,0.004672949081
1512.000000,0.00459984849
1513.000000,0.005191646624
1514.000000,0.003890740427
1515.000000,0.004758979228
1516.000000,0.004079602547
1517.000000,0.003701297737
1518.000000,0.00521710287
1519.000000,0.004837496405
1520.000000,0.005350336352
1521.000000,0.00468913819
1522.000000,0.004926816118
1523.000000,0.004635897539
1524.000000,0.004900016569
1525.000000,0.004339206307
1526.000000,0.00559320874
1527.000000,0.004092733664
1528.000000,0.005629318118
1529.000000,0.004534219287
1530.000000,0.005182006647
1531.000000,0.004778520828
1532.000000,0.004986369098
1533.000000,0.005626734889
1534.000000,0.004870501436
1535.000000,0.004268305238
1536.000000,0.004999801993
1537.000000,0.005280660269
1538.000000,0.003503188252
1539.000000,0.005563979958
1540.000000,0.005682729569
1541.000000,0.004057319589
1542.000000,0.005065154624
1543.000000,0.005702602696
1544.000000,0.004607633314
1545.000000,0.005115146691
1546.000000,0.005243131575
1547.000000,0.005859084194
1548.000000,0.006279707812
1549.000000,0.005707828193
1550.000000,0.005874057623
1551.000000,0.006503392455
1552.000000,0.006408004143
1553.000000,0.006166605229
1554.000000,0.007172281614
1555.000000,0.005723988862
1556.000000,0.006836766097
1557.000000,0.006706225483
1558.000000,0.006886440716
1559.000000,0.007555292327
1560.000000,0.007744541871
1561.000000,0.009490919256
1562.000000,0.008774966451
1563.000000,0.009003566995
1564.000000,0.0102269693
1565.000000,0.01037008401
1566.000000,0.009263714513
1567.000000,0.01112528311
1568.000000,0.01229363272
1569.000000,0.01243462948
1570.000000,0.01407861524
1571.000000,0.01496011226
1572.000000,0.01705256653
1573.000000,0.01781604264
1574.000000,0.02002554637
1575.000000,0.02383392545
1576.000000,0.02801904487
1577.000000,0.03334200054
1578.000000,0.03819184351
1579.000000,0.04494242431
1580.000000,0.05396623124
1581.000000,0.06162440664
1582.000000,0.06929322706
1583.000000,0.07122248627
1584.000000,0.06866536097
1585.000000,0.06436980158
1586.000000,0.05783827402
1587.000000,0.05143632757
1588.000000,0.04689243
1589.000000,0.04357206925
1590.000000,0.04199882159
1591.000000,0.0415450441
1592.000000,0.04334194647
1593.000000,0.0462226257
1594.000000,0.05088352717
1595.000000,0.05809493401
1596.000000,0.06718044525
1597.000000,0.08174668449
1598.000000,0.1018810806
1599.000000,0.127984538
1600.000000,0.1562221823
1601.000000,0.1826739365
1602.000000,0.1936209864
1603.000000,0.1833297525
1604.000000,0.1556771462
1605.000000,0.1251061775
1606.000000,0.09973639984
1607.000000,0.07853663029
1608.000000,0.06265858484
1609.000000,0.05185732818
1610.000000,0.04189326403
1611.000000,0.03588175534
1612.000000,0.03065480687
1613.000000,0.02709076244
1614.000000,0.02263796888
1615.000000,0.0199366441
1616.000000,0.01833629606
1617.000000,0.01663281553
1618.000000,0.01533835439
1619.000000,0.01383681829
1620.000000,0.01324899827
1621.000000,0.0124853159
1622.000000,0.01141274626
1623.000000,0.009958767849
1624.000000,0.01066766095
1625.000000,0.008530456024
1626.000000,0.008847374751
1627.000000,0.009078633377
1628.000000,0.007801967981
1629.000000,0.008601130015
1630.000000,0.008665931231
1631.000000,0.008187579982
1632.000000,0.007255789227
1633.000000,0.0073529058
1634.000000,0.006252048437
1635.000000,0.006605833131
1636.000000,0.006462990487
1637.000000,0.006084917987
1638.000000,0.005972164586
1639.000000,0.005617825317
1640.000000,0.004441937776
1641.000000,0.00573359481
1642.000000,0.005571274852
1643.000000,0.006506584247
1644.000000,0.00560963385
1645.000000,0.005134988142
1646.000000,0.005532459762
1647.000000,0.005303249999
1648.000000,0.004846820924
1649.000000,0.004559344995
1650.000000,0.003843703707
1651.000000,0.004732422998
1652.000000,0.005572069214
1653.000000,0.003429551914
1654.000000,0.003924229944
1655.000000,0.004894816108
1656.000000,0.004511143328
1657.000000,0.004602134296
1658.000000,0.003196430007
1659.000000,0.003915492755
1660.000000,0.00453184795
1661.000000,0.004545283384
1662.000000,0.004334680221
1663.000000,0.003596672557
1664.000000,0.004415661334
1665.000000,0.003347491702
1666.000000,0.003470339098
1667.000000,0.003307951481
1668.000000,0.004840754761
1669.000000,0.003705586351
1670.000000,0.003960871693
1671.000000,0.002587805582
1672.000000,0.004537188981
1673.000000,0.004137186658
1674.000000,0.002847489821
1675.000000,0.002856378332
1676.000000,0.004792820549
1677.000000,0.003214435362
1678.000000,0.004865166222
1679.000000,0.003463790312
1680.000000,0.002239808972
1681.000000,0.004375779701
1682.000000,0.0039971768
1683.000000,0.004089625063
1684.000000,0.003361388976
1685.000000,0.00352391399
1686.000000,0.004212352258
1687.000000,0.00313193496
1688.000000,0.002432466606
1689.000000,0.004144394092
1690.000000,0.003215827804
1691.000000,0.004340820038
1692.000000,0.003275322556
1693.000000,0.003297511074
1694.000000,0.003392030081
1695.000000,0.002119080414
1696.000000,0.004228664351
1697.000000,0.003135663806
1698.000000,0.003386426891
1699.000000,0.004373914589
1700.000000,0.003555418714
1701.000000,0.004015340463
1702.000000,0.003671035186
1703.000000,0.003925400089
1704.000000,0.003620273797
1705.000000,0.004139647785
1706.000000,0.003312722047
1707.000000,0.003708726862
1708.000000,0.002999432219
1709.000000,0.004130646678
1710.000000,0.002100605233
1711.000000,0.003516994217
1712.000000,0.003615950416
1713.000000,0.00359840931
1714.000000,0.003382620947
1715.000000,0.004185940572
1716.000000,0.004646395234
1717.000000,0.003012043166
1718.000000,0.002217278108
1719.000000,0.002705513206
1720.000000,0.002865512314
1721.000000,0.003267033359
1722.000000,0.003310425912
1723.000000,0.003986851689
1724.000000,0.003077314253
1725.000000,0.003306955755
1726.000000,0.003390645632
1727.000000,0.002792249053
1728.000000,0.00312481134
1729.000000,0.004968209032
1730.000000,0.003251787259
1731.000000,0.002724489683
1732.000000,0.001990025099
1733.000000,0.003918789866
1734.000000,0.003097381406
1735.000000,0.002906141622
1736.000000,0.00475335731
1737.000000,0.004140933721
1738.000000,0.002247250759
1739.000000,0.003063873492
1740.000000,0.003869350822
1741.000000,0.00376797598
1742.000000,0.002593537298
1743.000000,0.004327533913
1744.000000,0.004368726976
1745.000000,0.002586757091
1746.000000,0.002188373259
1747.000000,0.00241068123
1748.000000,0.003644278598
1749.000000,0.003888800388
1750.000000,0.003348012111
1751.000000,0.002876052591
1752.000000,0.003175089221
1753.000000,0.003567126366
1754.000000,0.002495516244
1755.000000,0.002201859673
1756.000000,0.003168138457
1757.000000,0.003958710478
1758.000000,0.003328891003
1759.000000,0.003328197607
1760.000000,0.002803439095
1761.000000,0.003759566988
1762.000000,0.002177208568
1763.000000,0.003162143652
1764.000000,0.002841957131
1765.000000,0.003103567693
1766.000000,0.002636371843
1767.000000,0.003641320193
1768.000000,0.003141930213
1769.000000,0.002827318179
1770.000000,0.00348970731
1771.000000,0.003149824814
1772.000000,0.002866217298
1773.000000,0.002821403536
1774.000000,0.003641946016
1775.000000,0.002607042274
1776.000000,0.00303591435
1777.000000,0.003006018889
1778.000000,0.003353809311
1779.000000,0.003047087994
1780.000000,0.004458210172
1781.000000,0.002109441786
1782.000000,0.003513983013
1783.000000,0.003136398886
1784.000000,0.003820839388
1785.000000,0.002175724045
1786.000000,0.003882264733
1787.000000,0.002317645107
1788.000000,0.003562632528
1789.000000,0.003453128976
1790.000000,0.00316258463
1791.000000,0.002699277784
1792.000000,0.002650080563
1793.000000,0.003198317888
1794.000000,0.00268639753
1795.000000,0.001963613393
1796.000000,0.002048445521
1797.000000,0.003615101499
1798.000000,0.003628730542
1799.000000,0.003443000242
1800.000000,0.003161273332
1801.000000,0.003360858699
1802.000000,0.003429305085
1803.000000,0.003282439963
1804.000000,0.002654481366
1805.000000,0.002689188899
1806.000000,0.002436835171
1807.000000,0.00321994102
1808.000000,0.002532109734
1809.000000,0.003031967753
1810.000000,0.003917626594
1811.000000,0.002900177397
1812.000000,0.003709900509
1813.000000,0.004062959263
1814.000000,0.002027906384
1815.000000,0.002262095583
1816.000000,0.0034086524
1817.000000,0.002697465176
1818.000000,0.003445076722
1819.000000,0.003548358205
1820.000000,0.002813892265
1821.000000,0.003619469407
1822.000000,0.004170825293
1823.000000,0.003697045716
1824.000000,0.00259595099
1825.000000,0.003034358077
1826.000000,0.002798975404
1827.000000,0.004064329524
1828.000000,0.003005248903
1829.000000,0.002706261706
1830.000000,0.003149199249
1831.000000,0.003430226541
1832.000000,0.002894981226
1833.000000,0.00318480219
1834.000000,0.003121112692
1835.000000,0.003564697934
1836.000000,0.003705990829
1837.000000,0.003285385981
1838.000000,0.002839639965
1839.000000,0.003364568116
1840.000000,0.002584236857
1841.000000,0.003766378422
1842.000000,0.00333008385
1843.000000,0.003267462394
1844.000000,0.001662699778
1845.000000,0.004544759778
1846.000000,0.003995071084
1847.000000,0.003884523054
1848.000000,0.003197526756
1849.000000,0.003525602846
1850.000000,0.004840160609
1851.000000,0.002712632828
1852.000000,0.003572938214
1853.000000,0.003487111783
1854.000000,0.003211183402
1855.000000,0.003339805309
1856.000000,0.002539142119
1857.000000,0.00351895854
1858.000000,0.002343019749
1859.000000,0.004233601386
1860.000000,0.003613660848
1861.000000,0.002621629026
1862.000000,0.001875698746
1863.000000,0.003197766248
1864.000000,0.003440454619
1865.000000,0.002537468789
1866.000000,0.004144859068
1867.000000,0.003301040007
1868.000000,0.002859305928
1869.000000,0.002299215428
1870.000000,0.003067026494
1871.000000,0.003020153288
1872.000000,0.003530969283
1873.000000,0.003770772971
1874.000000,0.003158290021
1875.000000,0.003416845165
1876.000000,0.003996037777
1877.000000,0.003510723246
1878.000000,0.002983601733
1879.000000,0.003510623568
1880.000000,0.002824262167
1881.000000,0.003409209553
1882.000000,0.003167643933
1883.000000,0.002476208487
1884.000000,0.003498980095
1885.000000,0.00318596056
1886.000000,0.003574769517
1887.000000,0.002336118292
1888.000000,0.003799620598
1889.000000,0.003824795825
1890.000000,0.002920647983
1891.000000,0.00307154076
1892.000000,0.00315826574
1893.000000,0.003115669504
1894.000000,0.003629289783
1895.000000,0.002696614662
1896.000000,0.002432927716
1897.000000,0.00297657868
1898.000000,0.004262264576
1899.000000,0.002884586405
1900.000000,0.002515639465
1901.000000,0.002562223086
1902.000000,0.003213167501
1903.000000,0.00381840053
1904.000000,0.002666904692
1905.000000,0.003212812667
1906.000000,0.003235349677
1907.000000,0.00338555572
1908.000000,0.003191562591
1909.000000,0.003735456436
1910.000000,0.003515963964
1911.000000,0.002732073992
1912.000000,0.004559913213
1913.000000,0.002281267201
1914.000000,0.00230771294
1915.000000,0.003721992682
1916.000000,0.003210860426
1917.000000,0.002948976089
1918.000000,0.003218249682
1919.000000,0.003509507057
1920.000000,0.002841732614
1921.000000,0.002713440724
1922.000000,0.002464035765
1923.000000,0.002575517499
1924.000000,0.002611614575
1925.000000,0.003780646229
1926.000000,0.003258865579
1927.000000,0.003417301149
1928.000000,0.002750932964
1929.000000,0.003719302895
1930.000000,0.002149740598
1931.000000,0.003372740878
1932.000000,0.003504550991
1933.000000,0.002737810639
1934.000000,0.002468277578
1935.000000,0.003397316949
1936.000000,0.002656838279
1937.000000,0.002544745598
1938.000000,0.003068927866
1939.000000,0.002408592504
1940.000000,0.002998590453
1941.000000,0.004298884537
1942.000000,0.002817046268
1943.000000,0.003625299967
1944.000000,0.002445909932
1945.000000,0.003128996592
1946.000000,0.002915379066
1947.000000,0.002977531541
1948.000000,0.003532761002
1949.000000,0.004369198081
1950.000000,0.003000348163
1951.000000,0.003860500603
1952.000000,0.003286441871
1953.000000,0.003518311086
1954.000000,0.002793397829
1955.000000,0.002649712297
1956.000000,0.002953485656
1957.000000,0.002609242524
1958.000000,0.00306762361
1959.000000,0.002438040349
1960.000000,0.003075542193
1961.000000,0.003178399772
1962.000000,0.004163791041
1963.000000,0.0041082822
1964.000000,0.003378284688
1965.000000,0.002769544417
1966.000000,0.003437006852
1967.000000,0.00356246071
1968.000000,0.002953417013
1969.000000,0.002560734303
1970.000000,0.001994157449
1971.000000,0.003047513689
1972.000000,0.004226176661
1973.000000,0.002946224572
1974.000000,0.003302168518
1975.000000,0.003289908448
1976.000000,0.003361503913
1977.000000,0.003535293228
1978.000000,0.001864613002
1979.000000,0.002979693937
1980.000000,0.003296701246
1981.000000,0.00301635722
1982.000000,0.003801253488
1983.000000,0.002846960038
1984.000000,0.003625396108
1985.000000,0.004133311491
1986.000000,0.002920066997
1987.000000,0.003090117131
1988.000000,0.002897459298
1989.000000,0.003534459321
1990.000000,0.001787291559
1991.000000,0.002194434004
1992.000000,0.002897979636
1993.000000,0.003599795577
1994.000000,0.003431424414
1995.000000,0.002583657751
1996.000000,0.004042503474
1997.000000,0.003144062938
1998.000000,0.002701388019
1999.000000,0.003397129226
2000.000000,0.003862976213
