raman_shift_cm-1,intensity
200.000000,0.003665232654
201.000000,0.00410067846
202.000000,0.001494771745
203.000000,0.002948555708
204.000000,0.00364178957
205.000000,0.003845544433
206.000000,0.00342529368
207.000000,0.003932938505
208.000000,0.003206452097
209.000000,0.003363796379
210.000000,0.003139651332
211.000000,0.002385819334
212.000000,0.002522653084
213.000000,0.003260747036
214.000000,0.002683154403
215.000000,0.003797739922
216.000000,0.003810352225
217.000000,0.004115212441
218.000000,0.003016953841
219.000000,0.003865535974
220.000000,0.00248759282
221.000000,0.002541551628
222.000000,0.003081876923
223.000000,0.003202403187
224.000000,0.002070707687
225.000000,0.001991495484
226.000000,0.003246957201
227.000000,0.002514395777
228.000000,0.003760675327
229.000000,0.00327094327
230.000000,0.003218440864
231.000000,0.00315908937
232.000000,0.003572673675
233.000000,0.002941677895
234.000000,0.003687282393
235.000000,0.002717419316
236.000000,0.002898613281
237.000000,0.00262453752
238.000000,0.00339391177
239.000000,0.003055875969
240.000000,0.002515386884
241.000000,0.004239318911
242.000000,0.00281561869
243.000000,0.002964614495
244.000000,0.003271933309
245.000000,0.004086643411
246.000000,0.002945559702
247.000000,0.003458179865
248.000000,0.00309450266
249.000000,0.00215411192
250.000000,0.003511884238
251.000000,0.003649597742
252.000000,0.002890951836
253.000000,0.003026191475
254.000000,0.002131972524
255.000000,0.00211904103
256.000000,0.002800108934
257.000000,0.00341257685
258.000000,0.002753313865
259.000000,0.003211790555
260.000000,0.003618595332
261.000000,0.003093854218
262.000000,0.003382068281
263.000000,0.003907841186
264.000000,0.002286553937
265.000000,0.003484436927
266.000000,0.00190235799
267.000000,0.003296587178
268.000000,0.003159068658
269.000000,0.00270997298
270.000000,0.002388686057
271.000000,0.002999975962
272.000000,0.002790380061
273.000000,0.003096148152
274.000000,0.002491114436
275.000000,0.003365934722
276.000000,0.002414251832
277.000000,0.00285469423
278.000000,0.00280198311
279.000000,0.003801120602
280.000000,0.002137905603
281.000000,0.00278903898
282.000000,0.003750025327
283.000000,0.002642207223
284.000000,0.002292550703
285.000000,0.0032088973
286.000000,0.00286421252
287.000000,0.003541300223
288.000000,0.002485040273
289.000000,0.003154018709
290.000000,0.003440146618
291.000000,0.003662709496
292.000000,0.002373695673
293.000000,0.003896507202
294.000000,0.002497582198
295.000000,0.002129442346
296.000000,0.00246539397
297.000000,0.003133240807
298.000000,0.002846488861
299.000000,0.003305380347
300.000000,0.003338694047
301.000000,0.003232009408
302.000000,0.00288745778
303.000000,0.004132617525
304.000000,0.001707133168
305.000000,0.001997171763
306.000000,0.002736074262
307.000000,0.002285803088
308.000000,0.001503072953
309.000000,0.002563012846
310.000000,0.002590714126
311.000000,0.001568092796
312.000000,0.00355876115
313.000000,0.003823970975
314.000000,0.003785098161
315.000000,0.00273638757
316.000000,0.003131324097
317.000000,0.002368034791
318.000000,0.003167006653
319.000000,0.002637131152
320.000000,0.003289736621
321.000000,0.002836756708
322.000000,0.003665514838
323.000000,0.003540982008
324.000000,0.003789301748
325.000000,0.002077581069
326.000000,0.001948741204
327.000000,0.003287663395
328.000000,0.002696834625
329.000000,0.003283804593
330.000000,0.00322440348
331.000000,0.003153135971
332.000000,0.003598097731
333.000000,0.003379993448
334.000000,0.003329491549
335.000000,0.002507334091
336.000000,0.004083486564
337.000000,0.003121826448
338.000000,0.003712086082
339.000000,0.003242801501
340.000000,0.003810110068
341.000000,0.003138690909
342.000000,0.003177424782
343.000000,0.003129567232
344.000000,0.002620258902
345.000000,0.002702685493
346.000000,0.002958696223
347.000000,0.00297690883
348.000000,0.00245603841
349.000000,0.004466024185
350.000000,0.002457195094
351.000000,0.002863864513
352.000000,0.004519969376
353.000000,0.002651358393
354.000000,0.003509589533
355.000000,0.0034465491
356.000000,0.0029237707
357.000000,0.002189132838
358.000000,0.00211463737
359.000000,0.003044789312
360.000000,0.003303029279
361.000000,0.001752244243
362.000000,0.003142147551
363.000000,0.002656657563
364.000000,0.003589358499
365.000000,0.003156914624
366.000000,0.002568617848
367.000000,0.002796273297
368.000000,0.00308058174
369.000000,0.003864030945
370.000000,0.004888129761
371.000000,0.003272585663
372.000000,0.00313053261
373.000000,0.003481456751
374.000000,0.003080360416
375.000000,0.003480534307
376.000000,0.003335485118
377.000000,0.00310604735
378.000000,0.002628440291
379.000000,0.003204177113
380.000000,0.00365258896
381.000000,0.003155420307
382.000000,0.004022459651
383.000000,0.003679206827
384.000000,0.003034190773
385.000000,0.004160267982
386.000000,0.002437971583
387.000000,0.003820783244
388.000000,0.004234247937
389.000000,0.002965555259
390.000000,0.003057737714
391.000000,0.003685262345
392.000000,0.003983620608
393.000000,0.003390199702
394.000000,0.003271445813
395.000000,0.003680231533
396.000000,0.003285927943
397.000000,0.002402814998
398.000000,0.003017343249
399.000000,0.003121891308
400.000000,0.00222847789
401.000000,0.003371905547
402.000000,0.002684976779
403.000000,0.003578813232
404.000000,0.002235513148
405.000000,0.002583250713
406.000000,0.002254988644
407.000000,0.003905589639
408.000000,0.003899622477
409.000000,0.004016978014
410.000000,0.00402153352
411.000000,0.003678036807
412.000000,0.003672377592
413.000000,0.002112081621
414.000000,0.003332787082
415.000000,0.002834312261
416.000000,0.002942337014
417.000000,0.002396712966
418.000000,0.003927115118
419.000000,0.003232585272
420.000000,0.002242893079
421.000000,0.003443255727
422.000000,0.003085565834
423.000000,0.002498247537
424.000000,0.002938512806
425.000000,0.002646438342
426.000000,0.001724787957
427.000000,0.002181999299
428.000000,0.00339803369
429.000000,0.003294215042
430.000000,0.003244455323
431.000000,0.002368357159
432.000000,0.002713220435
433.000000,0.003111012315
434.000000,0.003487585032
435.000000,0.002564995132
436.000000,0.002434887195
437.000000,0.003759324791
438.000000,0.003113841659
439.000000,0.002844994239
440.000000,0.00262926309
441.000000,0.002679440456
442.000000,0.004029477633
443.000000,0.003659699201
444.000000,0.002825330036
445.000000,0.00232262605
446.000000,0.004085054982
447.000000,0.004023457943
448.000000,0.003803659144
449.000000,0.003585977199
450.000000,0.001944251942
451.000000,0.00230352424
452.000000,0.003421215636
453.000000,0.002910303594
454.000000,0.003236143833
455.000000,0.002766744518
456.000000,0.002688180262
457.000000,0.003417285748
458.000000,0.002843723673
459.000000,0.003083880327
460.000000,0.003239898613
461.000000,0.003226290499
462.000000,0.00378489826
463.000000,0.003911771194
464.000000,0.002265323895
465.000000,0.00292747767
466.000000,0.00269988638
467.000000,0.003544524061
468.000000,0.002447729644
469.000000,0.003558046908
470.000000,0.003513779114
471.000000,0.003440721646
472.000000,0.002507596675
473.000000,0.002964861934
474.000000,0.002444688666
475.000000,0.003334658956
476.000000,0.00367147666
477.000000,0.00218212299
478.000000,0.002600696282
479.000000,0.003000949656
480.000000,0.002780558658
481.000000,0.003999871344
482.000000,0.003014739643
483.000000,0.003255270031
484.000000,0.002435152297
485.000000,0.004034075893
486.000000,0.003206156148
487.000000,0.003573327988
488.000000,0.003160951869
489.000000,0.001833369552
490.000000,0.0021492085
491.000000,0.002336940953
492.000000,0.003397074224
493.000000,0.002807909045
494.000000,0.00337402184
495.000000,0.00329009496
496.000000,0.003268939379
497.000000,0.003673335216
498.000000,0.003231352449
499.000000,0.002134812635
500.000000,0.002715712134
501.000000,0.004125631352
502.000000,0.002482248248
503.000000,0.003949731014
504.000000,0.004126089993
505.000000,0.002774968813
506.000000,0.003341978825
507.000000,0.002292407957
508.000000,0.003602999054
509.000000,0.002671797189
510.000000,0.002353035941
511.000000,0.002907053942
512.000000,0.002870226628
513.000000,0.002795178624
514.000000,0.003267596503
515.000000,0.003049819902
516.000000,0.002754311052
517.000000,0.003726865899
518.000000,0.004615481448
519.000000,0.003199480446
520.000000,0.002738728819
521.000000,0.002567589468
522.000000,0.003522684878
523.000000,0.003015758889
524.000000,0.003181875203
525.000000,0.001974974716
526.000000,0.002496977729
527.000000,0.002481698374
528.000000,0.003752166266
529.000000,0.003024556106
530.000000,0.001694464948
531.000000,0.003483744096
532.000000,0.003878696728
533.000000,0.003985506307
534.000000,0.001517820807
535.000000,0.003299815651
536.000000,0.003699970724
537.000000,0.003580235707
538.000000,0.003077794146
539.000000,0.002139931826
540.000000,0.002967550834
541.000000,0.003038426391
542.000000,0.003583259179
543.000000,0.003627824512
544.000000,0.003101862001
545.000000,0.003763070307
546.000000,0.002622798082
547.000000,0.002853628994
548.000000,0.003251774687
549.000000,0.003621908417
550.000000,0.003089261339
551.000000,0.004030595575
552.000000,0.003544254863
553.000000,0.002733021147
554.000000,0.003363465944
555.000000,0.002785801927
556.000000,0.002749003291
557.000000,0.002477999858
558.000000,0.004187448618
559.000000,0.003903261737
560.000000,0.002402659927
561.000000,0.004046426806
562.000000,0.003966095567
563.000000,0.003180732168
564.000000,0.00371700266
565.000000,0.004775894431
566.000000,0.003610669299
567.000000,0.003706764396
568.000000,0.004143607608
569.000000,0.002861502452
570.000000,0.002739404912
571.000000,0.00267116577
572.000000,0.00349223807
573.000000,0.004084421403
574.000000,0.003064027989
575.000000,0.00277999802
576.000000,0.003759568875
577.000000,0.00344495748
578.000000,0.004062571989
579.000000,0.003654832476
580.000000,0.003656886342
581.000000,0.003753680563
582.000000,0.003864804546
583.000000,0.003305090741
584.000000,0.003253295746
585.000000,0.004934402235
586.000000,0.005890527994
587.000000,0.004762465331
588.000000,0.003169963496
589.000000,0.004237687525
590.000000,0.005010843931
591.000000,0.003402089917
592.000000,0.004175552385
593.000000,0.004323674546
594.000000,0.004130669634
595.000000,0.004303255122
596.000000,0.00555832046
597.000000,0.004834179557
598.000000,0.005148164038
599.000000,0.006522773721
600.000000,0.005209871848
601.000000,0.004835964005
602.000000,0.006689221493
603.000000,0.007872435945
604.000000,0.007211388903
605.000000,0.007771311238
606.000000,0.00741129948
607.000000,0.008346132207
608.000000,0.01067594724
609.000000,0.01163975844
610.000000,0.01259172468
611.000000,0.01356175862
612.000000,0.01541635771
613.000000,0.01832299722
614.000000,0.02190607154
615.000000,0.02772091709
616.000000,0.03289389617
617.000000,0.0403096002
618.000000,0.04875645493
619.000000,0.05512852184
620.000000,0.05729983968
621.000000,0.05500762438
622.000000,0.04833490903
623.000000,0.03943205837
624.000000,0.03330826205
625.000000,0.02708066954
626.000000,0.02238061313
627.000000,0.0190797531
628.000000,0.01577288344
629.000000,0.01466596208
630.000000,0.01211415905
631.000000,0.01096194611
632.000000,0.009973776354
633.000000,0.008789328706
634.000000,0.008560799058
635.000000,0.008027524477
636.000000,0.007450681757
637.000000,0.006217938273
638.000000,0.005737500997
639.000000,0.005607035651
640.000000,0.005707651691
641.000000,0.00434287503
642.000000,0.004758098932
643.000000,0.004395142065
644.000000,0.004524955624
645.000000,0.00423528723
646.000000,0.005159045192
647.000000,0.004826921428
648.000000,0.005035382127
649.000000,0.003772678192
650.000000,0.003817955562
651.000000,0.004035050606
652.000000,0.005148535997
653.000000,0.005101844951
654.000000,0.003662191385
655.000000,0.00436518474
656.000000,0.005234828559
657.000000,0.003278420191
658.000000,0.003745283672
659.000000,0.004607495766
660.000000,0.004227620827
661.000000,0.003161118523
662.000000,0.004648821227
663.000000,0.004299170248
664.000000,0.004099454068
665.000000,0.002911008764
666.000000,0.003538240002
667.000000,0.004412571527
668.000000,0.003895587008
669.000000,0.004063691035
670.000000,0.003404896554
671.000000,0.004461868355
672.000000,0.003391173546
673.000000,0.004079383591
674.000000,0.003705655072
675.000000,0.002917595134
676.000000,0.004382539564
677.000000,0.002717864222
678.000000,0.003023615783
679.000000,0.0035434778
680.000000,0.002602479328
681.000000,0.002352610927
682.000000,0.003361347639
683.000000,0.003167301671
684.000000,0.003251743826
685.000000,0.003713256184
686.000000,0.004766216259
687.000000,0.003147330529
688.000000,0.004867875432
689.000000,0.003533219277
690.000000,0.003324563469
691.000000,0.001749490285
692.000000,0.002449847738
693.000000,0.003524814937
694.000000,0.003697995717
695.000000,0.002856184851
696.000000,0.003536425659
697.000000,0.003891920879
698.000000,0.003007011016
699.000000,0.002367544795
700.000000,0.002750599709
701.000000,0.003157665132
702.000000,0.003509955252
703.000000,0.003804712643
704.000000,0.002777698547
705.000000,0.00335663612
706.000000,0.003179016428
707.000000,0.003356362251
708.000000,0.003999294128
709.000000,0.004117852306
710.000000,0.003050331766
711.000000,0.002972429498
712.000000,0.002923782173
713.000000,0.003024226747
714.000000,0.00309413998
715.000000,0.003243607722
716.000000,0.003044391951
717.000000,0.002704708233
718.000000,0.002649275212
719.000000,0.003391343692
720.000000,0.004831005057
721.000000,0.003700264865
722.000000,0.003759294998
723.000000,0.003583553683
724.000000,0.003280035559
725.000000,0.004587321231
726.000000,0.003197698259
727.000000,0.002804987707
728.000000,0.00265353999
729.000000,0.003515410712
730.000000,0.002809249856
731.000000,0.002890658817
732.000000,0.002900027387
733.000000,0.00263895703
734.000000,0.003540515519
735.000000,0.002436742351
736.000000,0.004832003794
737.000000,0.001803618409
738.000000,0.002638366677
739.000000,0.00352790188
740.000000,0.003754396653
741.000000,0.003309487528
742.000000,0.003702467113
743.000000,0.00365207118
744.000000,0.003639548859
745.000000,0.003933470084
746.000000,0.003746094405
747.000000,0.003558982517
748.000000,0.003554546456
749.000000,0.004193452675
750.000000,0.003572948993
751.000000,0.004051756326
752.000000,0.004686149346
753.000000,0.003994770591
754.000000,0.004519491136
755.000000,0.003564352624
756.000000,0.004022250601
757.000000,0.004201767163
758.000000,0.004072763607
759.000000,0.004264955451
760.000000,0.004868224388
761.000000,0.003880828952
762.000000,0.003720778584
763.000000,0.004379856254
764.000000,0.003368833046
765.000000,0.004307712395
766.000000,0.005110558771
767.000000,0.004471210718
768.000000,0.004901983052
769.000000,0.004909322825
770.000000,0.005519378583
771.000000,0.005231527187
772.000000,0.005196408715
773.000000,0.003235422994
774.000000,0.005111854618
775.000000,0.006066550193
776.000000,0.005795179024
777.000000,0.005709531803
778.000000,0.007027446926
779.000000,0.006326075348
780.000000,0.00709083001
781.000000,0.00822483522
782.000000,0.008116516298
783.000000,0.009262823564
784.000000,0.01002858728
785.000000,0.01038106309
786.000000,0.0120778522
787.000000,0.01374726288
788.000000,0.01548766659
789.000000,0.01883531964
790.000000,0.0208755296
791.000000,0.02357710575
792.000000,0.02636531245
793.000000,0.03001601244
794.000000,0.03319427991
795.000000,0.03303463286
796.000000,0.03285918315
797.000000,0.03048088071
798.000000,0.02688743504
799.000000,0.02338641465
800.000000,0.0212102361
801.000000,0.01716003048
802.000000,0.01621632612
803.000000,0.01324794483
804.000000,0.01290531781
805.000000,0.01086266662
806.000000,0.009981947614
807.000000,0.009787559952
808.000000,0.007820823978
809.000000,0.007840176319
810.000000,0.007101660059
811.000000,0.007160083408
812.000000,0.00691123482
813.000000,0.006329021966
814.000000,0.006001865202
815.000000,0.005391504189
816.000000,0.005786875417
817.000000,0.005095052916
818.000000,0.005150268404
819.000000,0.005037994302
820.000000,0.003979621446
821.000000,0.004001808538
822.000000,0.004710159667
823.000000,0.004473457771
824.000000,0.005153655624
825.000000,0.002863570994
826.000000,0.004381640748
827.000000,0.004847047097
828.000000,0.004190655629
829.000000,0.004552399986
830.000000,0.004048174859
831.000000,0.003958185914
832.000000,0.004493391677
833.000000,0.003137848856
834.000000,0.002535061978
835.000000,0.004133753462
836.000000,0.003891732273
837.000000,0.003859079522
838.000000,0.003937336123
839.000000,0.004117172786
840.000000,0.003442031791
841.000000,0.003982503075
842.000000,0.00386926444
843.000000,0.002976335274
844.000000,0.003557173177
845.000000,0.003795354233
846.000000,0.003145313417
847.000000,0.00422917296
848.000000,0.003413060345
849.000000,0.004063061478
850.000000,0.00444246082
851.000000,0.00267727186
852.000000,0.002759140604
853.000000,0.003896723323
854.000000,0.003423606851
855.000000,0.003838739811
856.000000,0.004558692585
857.000000,0.003227194022
858.000000,0.004028074381
859.000000,0.003352618007
860.000000,0.003115882925
861.000000,0.003780601986
862.000000,0.003647821409
863.000000,0.004135232692
864.000000,0.003673484431
865.000000,0.004006658524
866.000000,0.003794315637
867.000000,0.00245707468
868.000000,0.003259345178
869.000000,0.003281325548
870.000000,0.004007542878
871.000000,0.002842827937
872.000000,0.00358357645
873.000000,0.003222358905
874.000000,0.002379170242
875.000000,0.003377590928
876.000000,0.003850729606
877.000000,0.003248638401
878.000000,0.00402462017
879.000000,0.003700624957
880.000000,0.003656905813
881.000000,0.003164085695
882.000000,0.003373604392
883.000000,0.00375240785
884.000000,0.003487572747
885.000000,0.002737319264
886.000000,0.003372714791
887.000000,0.003717982209
888.000000,0.004155583355
889.000000,0.003988007211
890.000000,0.002897820073
891.000000,0.003906947218
892.000000,0.002527855833
893.000000,0.003105705995
894.000000,0.003010315147
895.000000,0.004415514469
896.000000,0.00391746866
897.000000,0.00368869134
898.000000,0.003142462358
899.000000,0.004263455221
900.000000,0.003376872132
901.000000,0.003813524086
902.000000,0.004198686355
903.000000,0.003361767631
904.000000,0.003872555948
905.000000,0.00236559803
906.000000,0.003908871055
907.000000,0.002549584802
908.000000,0.003822833657
909.000000,0.003757735425
910.000000,0.003878592505
911.000000,0.004989905886
912.000000,0.002113109602
913.000000,0.003892573095
914.000000,0.003388630959
915.000000,0.004090282098
916.000000,0.003834813143
917.000000,0.003720068227
918.000000,0.003365593031
919.000000,0.003251827498
920.000000,0.003903374734
921.000000,0.002795829736
922.000000,0.004360530862
923.000000,0.003382920123
924.000000,0.004018757705
925.000000,0.003044708513
926.000000,0.004047605278
927.000000,0.003647465928
928.000000,0.004267395382
929.000000,0.004556569363
930.000000,0.003511721932
931.000000,0.003918791648
932.000000,0.00402039168
933.000000,0.004769438837
934.000000,0.00313524879
935.000000,0.004294505349
936.000000,0.003947372469
937.000000,0.003260524573
938.000000,0.003808959016
939.000000,0.003631743593
940.000000,0.004725693876
941.000000,0.003522839501
942.000000,0.004732614249
943.000000,0.003874928078
944.000000,0.004592896079
945.000000,0.003191779006
946.000000,0.003797638692
947.000000,0.004391018868
948.000000,0.003784123908
949.000000,0.003441211853
950.000000,0.004434253696
951.000000,0.004940286222
952.000000,0.004526410088
953.000000,0.004446284528
954.000000,0.004874196554
955.000000,0.004434519659
956.000000,0.005309766386
957.000000,0.005486635721
958.000000,0.004130082884
959.000000,0.005603413504
960.000000,0.005468216414
961.000000,0.0053216945
962.000000,0.005659594462
963.000000,0.006208357627
964.000000,0.006618622921
965.000000,0.006558065477
966.000000,0.005568566366
967.000000,0.006662091238
968.000000,0.005007344976
969.000000,0.006721793059
970.000000,0.006790064091
971.000000,0.007157586195
972.000000,0.006251480922
973.000000,0.007902375413
974.000000,0.00807542886
975.000000,0.007734340235
976.000000,0.007091272546
977.000000,0.00851948337
978.000000,0.00823671133
979.000000,0.008286510242
980.000000,0.00934285055
981.000000,0.01181026355
982.000000,0.01023456625
983.000000,0.01175251217
984.000000,0.01305271158
985.000000,0.01466514879
986.000000,0.01488194136
987.000000,0.01656202161
988.000000,0.01972425798
989.000000,0.02187775575
990.000000,0.02562886596
991.000000,0.02824846615
992.000000,0.03417448027
993.000000,0.04185740087
994.000000,0.05102640647
995.000000,0.06382900738
996.000000,0.08411794161
997.000000,0.1116581476
998.000000,0.1545452995
999.000000,0.2134305129
1000.000000,0.2761008531
1001.000000,0.3060073294
1002.000000,0.2762037168
1003.000000,0.2125114327
1004.000000,0.1552967833
1005.000000,0.114345634
1006.000000,0.0865976062
1007.000000,0.06622404253
1008.000000,0.05214017521
1009.000000,0.04278013791
1010.000000,0.03736827908
1011.000000,0.03239411191
1012.000000,0.02739425785
1013.000000,0.02552909971
1014.000000,0.02432737165
1015.000000,0.02296983398
1016.000000,0.0209304905
1017.000000,0.02069307602
1018.000000,0.02105602049
1019.000000,0.02053133024
1020.000000,0.02110945948
1021.000000,0.02315387641
1022.000000,0.02649792601
1023.000000,0.02960263822
1024.000000,0.03374897225
1025.000000,0.03916561237
1026.000000,0.0478075507
1027.000000,0.06128363609
1028.000000,0.07969720063
1029.000000,0.1024555484
1030.000000,0.1226482547
1031.000000,0.1325534274
1032.000000,0.1217040713
1033.000000,0.09976841907
1034.000000,0.07845607164
1035.000000,0.05954726204
1036.000000,0.04626403861
1037.000000,0.03592553034
1038.000000,0.03085430033
1039.000000,0.02421067958
1040.000000,0.02150606857
1041.000000,0.01769142558
1042.000000,0.01610461459
1043.000000,0.0153537706
1044.000000,0.01325771579
1045.000000,0.01201235388
1046.000000,0.01151053336
1047.000000,0.01048422798
1048.000000,0.01031705392
1049.000000,0.008022378589
1050.000000,0.009216632836
1051.000000,0.008007769479
1052.000000,0.006965374423
1053.000000,0.007619035019
1054.000000,0.007288800511
1055.000000,0.006701296614
1056.000000,0.006990217003
1057.000000,0.005479194018
1058.000000,0.00508432771
1059.000000,0.005555192832
1060.000000,0.006416734721
1061.000000,0.005942372703
1062.000000,0.00550019513
1063.000000,0.005003803099
1064.000000,0.005273389139
1065.000000,0.005883029565
1066.000000,0.004759784956
1067.000000,0.00466012427
1068.000000,0.005200155553
1069.000000,0.005260524795
1070.000000,0.004891609283
1071.000000,0.005612601576
1072.000000,0.004817325567
1073.000000,0.004062493866
1074.000000,0.00327564198
1075.000000,0.005262826043
1076.000000,0.004418101257
1077.000000,0.004677033703
1078.000000,0.004719482202
1079.000000,0.005226239477
1080.000000,0.005013691591
1081.000000,0.004958271439
1082.000000,0.004509322524
1083.000000,0.004180909348
1084.000000,0.004457521891
1085.000000,0.00378525972
1086.000000,0.004478790965
1087.000000,0.004884095544
1088.000000,0.004658945307
1089.000000,0.004302098162
1090.000000,0.003672223456
1091.000000,0.003655380817
1092.000000,0.003738935571
1093.000000,0.003921328074
1094.000000,0.004422333274
1095.000000,0.004443100637
1096.000000,0.004487630312
1097.000000,0.004745107436
1098.000000,0.003548987458
1099.000000,0.004005344016
1100.000000,0.004449348891
1101.000000,0.004609452049
1102.000000,0.003729688828
1103.000000,0.003718929365
1104.000000,0.004829423887
1105.000000,0.004560436723
1106.000000,0.004427074239
1107.000000,0.003997587607
1108.000000,0.003606765672
1109.000000,0.004175274866
1110.000000,0.004393887508
1111.000000,0.004523846425
1112.000000,0.004761191852
1113.000000,0.004332721239
1114.000000,0.00503915583
1115.000000,0.004114727172
1116.000000,0.004547896637
1117.000000,0.004417311666
1118.000000,0.003341152027
1119.000000,0.003669483952
1120.000000,0.004177815982
1121.000000,0.00463006664
1122.000000,0.004790071358
1123.000000,0.005415977004
1124.000000,0.004705234451
1125.000000,0.004588852627
1126.000000,0.005055222338
1127.000000,0.004221538302
1128.000000,0.004931080105
1129.000000,0.00454930805
1130.000000,0.005309372676
1131.000000,0.004990329903
1132.000000,0.005310518463
1133.000000,0.006876226138
1134.000000,0.006593962455
1135.000000,0.007649812285
1136.000000,0.006529701522
1137.000000,0.006607928623
1138.000000,0.006589821258
1139.000000,0.007446266396
1140.000000,0.00689380431
1141.000000,0.008564349366
1142.000000,0.008853221203
1143.000000,0.009207600905
1144.000000,0.009930432838
1145.000000,0.01170102483
1146.000000,0.01353078141
1147.000000,0.01567599737
1148.000000,0.01714955482
1149.000000,0.02115844938
1150.000000,0.0252073229
1151.000000,0.03100875898
1152.000000,0.03523331952
1153.000000,0.04095492089
1154.000000,0.04421945333
1155.000000,0.04632532947
1156.000000,0.0443349247
1157.000000,0.04015300361
1158.000000,0.03568817914
1159.000000,0.03005727176
1160.000000,0.02654404552
1161.000000,0.02197336701
1162.000000,0.0193450792
1163.000000,0.01611697679
1164.000000,0.01452374837
1165.000000,0.01421438644
1166.000000,0.01243340516
1167.000000,0.01290355668
1168.000000,0.01118074952
1169.000000,0.01087564666
1170.000000,0.01248861403
1171.000000,0.01043720607
1172.000000,0.01147923953
1173.000000,0.01266385676
1174.000000,0.01356030006
1175.000000,0.01372789784
1176.000000,0.0173554697
1177.000000,0.01804383612
1178.000000,0.02015802631
1179.000000,0.02571385463
1180.000000,0.02957594544
1181.000000,0.03493698496
1182.000000,0.0395096557
1183.000000,0.04011210174
1184.000000,0.03843510189
1185.000000,0.03446889492
1186.000000,0.02980777296
1187.000000,0.02362079572
1188.000000,0.02120470254
1189.000000,0.01734271575
1190.000000,0.01395806559
1191.000000,0.01273071721
1192.000000,0.01154560683
1193.000000,0.01076214179
1194.000000,0.009601998623
1195.000000,0.009000175349
1196.000000,0.007620494553
1197.000000,0.007633182886
1198.000000,0.005170820146
1199.000000,0.007012730793
1200.000000,0.00607580079
1201.000000,0.006793724278
1202.000000,0.005254712987
1203.000000,0.005126751635
1204.000000,0.005265709345
1205.000000,0.005576234988
1206.000000,0.005150586914
1207.000000,0.005451040646
1208.000000,0.004755241665
1209.000000,0.005254577114
1210.000000,0.006223358635
1211.000000,0.005208228737
1212.000000,0.004763290939
1213.000000,0.003450038581
1214.000000,0.004645392274
1215.000000,0.004863391418
1216.000000,0.004055759759
1217.000000,0.004741720041
1218.000000,0.002758950342
1219.000000,0.003624684304
1220.000000,0.003436077394
1221.000000,0.004281613886
1222.000000,0.003441911588
1223.000000,0.003321046993
1224.000000,0.004754545523
1225.000000,0.002972418303
1226.000000,0.004122074237
1227.000000,0.004454617587
1228.000000,0.003609845702
1229.000000,0.003206661146
1230.000000,0.003618209801
1231.000000,0.003365564359
1232.000000,0.003218085848
1233.000000,0.003813814114
1234.000000,0.003637625449
1235.000000,0.005525284279
1236.000000,0.004415757934
1237.000000,0.003736043475
1238.000000,0.003951932371
1239.000000,0.004612993166
1240.000000,0.004297637034
1241.000000,0.00361375595
1242.000000,0.003101883198
1243.000000,0.004628521497
1244.000000,0.003548849923
1245.000000,0.003691372773
1246.000000,0.004357185289
1247.000000,0.003643309489
1248.000000,0.004302383245
1249.000000,0.003341049073
1250.000000,0.003621021725
1251.000000,0.003384158303
1252.000000,0.004756586686
1253.000000,0.002612369488
1254.000000,0.003363924678
1255.000000,0.002940136359
1256.000000,0.00302286523
1257.000000,0.002681417802
1258.000000,0.002957119172
1259.000000,0.004172843162
1260.000000,0.004309101386
1261.000000,0.003037069041
1262.000000,0.002687624066
1263.000000,0.003129563053
1264.000000,0.004399951143
1265.000000,0.003365899135
1266.000000,0.002121206374
1267.000000,0.003911697783
1268.000000,0.003323074181
1269.000000,0.00376360746
1270.000000,0.003635299419
1271.000000,0.00260579234
1272.000000,0.003999327247
1273.000000,0.003784131461
1274.000000,0.002972987898
1275.000000,0.002007580977
1276.000000,0.002671676841
1277.000000,0.002685640009
1278.000000,0.003782430367
1279.000000,0.003010935868
1280.000000,0.003096912262
1281.000000,0.003382135332
1282.000000,0.00309362953
1283.000000,0.003593680791
1284.000000,0.003547389729
1285.000000,0.003923742123
1286.000000,0.002613543245
1287.000000,0.003568043463
1288.000000,0.003191026715
1289.000000,0.004625651549
1290.000000,0.004237972571
1291.000000,0.003112615079
1292.000000,0.003930230273
1293.000000,0.002298222564
1294.000000,0.002720206672
1295.000000,0.003195522366
1296.000000,0.003516498007
1297.000000,0.00269169697
1298.000000,0.003377037517
1299.000000,0.004107889458
1300.000000,0.002388223877
1301.000000,0.002541664454
1302.000000,0.002203067582
1303.000000,0.004044212068
1304.000000,0.002707922428
1305.000000,0.003120962986
1306.000000,0.002819319992
1307.000000,0.003298332883
1308.000000,0.003152454592
1309.000000,0.003464605117
1310.000000,0.003456895615
1311.000000,0.004316893738
1312.000000,0.002788378492
1313.000000,0.003462270971
1314.000000,0.003309324834
1315.000000,0.002808731454
1316.000000,0.003862817277
1317.000000,0.004455236154
1318.000000,0.00269311225
1319.000000,0.004829138879
1320.000000,0.003270246502
1321.000000,0.00331002193
1322.000000,0.001794241381
1323.000000,0.003401806726
1324.000000,0.003290271953
1325.000000,0.00321219852
1326.000000,0.003771235192
1327.000000,0.003267444045
1328.000000,0.003596842446
1329.000000,0.002983902674
1330.000000,0.002698498613
1331.000000,0.003452297736
1332.000000,0.00373945053
1333.000000,0.003808878237
1334.000000,0.003459273462
1335.000000,0.002953508664
1336.000000,0.0034297079
1337.000000,0.003252636267
1338.000000,0.002655348091
1339.000000,0.003615149365
1340.000000,0.003312220507
1341.000000,0.002761298023
1342.000000,0.003249365822
1343.000000,0.003794783754
1344.000000,0.004344800251
1345.000000,0.00234832233
1346.000000,0.003231025978
1347.000000,0.003787974174
1348.000000,0.004160287624
1349.000000,0.003700163296
1350.000000,0.002859456208
1351.000000,0.003183192033
1352.000000,0.00346485981
1353.000000,0.003017701051
1354.000000,0.002861065412
1355.000000,0.002732331979
1356.000000,0.005055857683
1357.000000,0.003539288709
1358.000000,0.003385995999
1359.000000,0.003957668063
1360.000000,0.003584260128
1361.000000,0.003472242289
1362.000000,0.003708236832
1363.000000,0.00312454502
1364.000000,0.00335156421
1365.000000,0.004157509769
1366.000000,0.003990261309
1367.000000,0.00297597102
1368.000000,0.004546744298
1369.000000,0.003418320938
1370.000000,0.002712181118
1371.000000,0.004114019065
1372.000000,0.004091326593
1373.000000,0.003906683122
1374.000000,0.003142566926
1375.000000,0.004468891412
1376.000000,0.004077865162
1377.000000,0.003995256757
1378.000000,0.003939575587
1379.000000,0.004042910669
1380.000000,0.005178323373
1381.000000,0.003558941653
1382.000000,0.004063117183
1383.000000,0.004587594971
1384.000000,0.004404498049
1385.000000,0.003491614513
1386.000000,0.003915914582
1387.000000,0.003782818125
1388.000000,0.003164129191
1389.000000,0.00394882965
1390.000000,0.004672105129
1391.000000,0.004297057178
1392.000000,0.004825873742
1393.000000,0.004457616435
1394.000000,0.003800183067
1395.000000,0.004587128409
1396.000000,0.003259377954
1397.000000,0.005096572515
1398.000000,0.004154971541
1399.000000,0.005426205477
1400.000000,0.003650536783
1401.000000,0.003942848609
1402.000000,0.004314725389
1403.000000,0.004476707749
1404.000000,0.003739475622
1405.000000,0.003993223146
1406.000000,0.005119113285
1407.000000,0.004412632588
1408.000000,0.005508885
1409.000000,0.006058399935
1410.000000,0.004273119585
1411.000000,0.005027787618
1412.000000,0.006419466032
1413.000000,0.006141662943
1414.000000,0.004799860528
1415.000000,0.005977541903
1416.000000,0.0069027441
1417.000000,0.004761019783
1418.000000,0.00645406266
1419.000000,0.007077317099
1420.000000,0.006336044826
1421.000000,0.006475797628
1422.000000,0.007568185866
1423.000000,0.006427797736
1424.000000,0.008037068901
1425.000000,0.008782245118
1426.000000,0.008474821954
1427.000000,0.007896429406
1428.000000,0.01027538646
1429.000000,0.009835960437
1430.000000,0.01079984773
1431.000000,0.01061666166
1432.000000,0.01188058243
1433.000000,0.01350163241
1434.000000,0.01295783433
1435.000000,0.01427608766
1436.000000,0.01522090131
1437.000000,0.01838823979
1438.000000,0.02031841042
1439.000000,0.02180558314
1440.000000,0.02521906551
1441.000000,0.02821347654
1442.000000,0.03313093903
1443.000000,0.03562698928
1444.000000,0.04156681529
1445.000000,0.0468230707
1446.000000,0.05427317708
1447.000000,0.05946237073
1448.000000,0.06374382822
1449.000000,0.06840710062
1450.000000,0.06937253859
1451.000000,0.06756914302
1452.000000,0.06471908288
1453.000000,0.05928225752
1454.000000,0.05246558131
1455.000000,0.04683321428
1456.000000,0.04213500159
1457.000000,0.03698368253
1458.000000,0.0319080388
1459.000000,0.02802388217
1460.000000,0.02522572763
1461.000000,0.0223020557
1462.000000,0.01936981578
1463.000000,0.0185597987
1464.000000,0.01605318069
1465.000000,0.01602667428
1466.000000,0.01429951046
1467.000000,0.01334798155
1468.000000,0.01182356819
1469.000000,0.01133763604
1470.000000,0.01019810347
1471.000000,0.009713514081
1472.000000,0.008799421863
1473.000000,0.009816488474
1474.000000,0.007859034389
1475.000000,0.009192991355
1476.000000,0.008286374517
1477.000000,0.006988591626
1478.000000,0.008063486883
1479.000000,0.007279859791
1480.000000,0.006326133251
1481.000000,0.006759588743
1482.000000,0.006225740374
1483.000000,0.005800993989
1484.000000,0.006072319315
1485.000000,0.00613413658
1486.000000,0.005644929169
1487.000000,0.005702417173
1488.000000,0.006094339823
1489.000000,0.005446485131
1490.000000,0.005199480304
1491.000000,0.004564061545
1492.000000,0.005226498278
1493.000000,0.004911500277
1494.000000,0.004994637154
1495.000000,0.005548901101
1496.000000,0.005533458658
1497.000000,0.004982013336
1498.000000,0.004564674085
1499.000000,0.004953351281
1500.000000,0.00502158957
1501.000000,0.004939480187
1502.000000,0.003898562681
1503.000000,0.004914396034
1504.000000,0.004089175498
1505.000000,0.004857274722
1506.000000,0.004891806997
1507.000000,0.00471721141
1508.000000,0.00532663581
1509.000000,0.004591382195
1510.000000,0.004763669688
1511.000000,0.004024023875
1512.000000,0.004482876559
1513.000000,0.004401422072
1514.000000,0.004565404423
1515.000000,0.004419222115
1516.000000,0.003098775111
1517.000000,0.004999470036
1518.000000,0.004932228662
1519.000000,0.003264153365
1520.000000,0.004675439158
1521.000000,0.005133792328
1522.000000,0.004972892265
1523.000000,0.004968998174
1524.000000,0.004442096415
1525.000000,0.004257046627
1526.000000,0.005725532156
1527.000000,0.004855212101
1528.000000,0.005601484778
1529.000000,0.004596706446
1530.000000,0.005218345628
1531.000000,0.005180807764
1532.000000,0.005193942362
1533.000000,0.004014698118
1534.000000,0.006201722868
1535.000000,0.004998076266
1536.000000,0.004654294034
1537.000000,0.005069189257
1538.000000,0.003875458025
1539.000000,0.005818321021
1540.000000,0.004806323202
1541.000000,0.005262907411
1542.000000,0.005264905591
1543.000000,0.004164854163
1544.000000,0.005093396051
1545.000000,0.006118757799
1546.000000,0.004977067201
1547.000000,0.005686138978
1548.000000,0.006239068975
1549.000000,0.006687074629
1550.000000,0.005347545582
1551.000000,0.006593970046
1552.000000,0.006510644565
1553.000000,0.006572860704
1554.000000,0.006987111997
1555.000000,0.007027039469
1556.000000,0.006180224691
1557.000000,0.007268078104
1558.000000,0.006844865443
1559.000000,0.007662240056
1560.000000,0.007498966238
1561.000000,0.008958140273
1562.000000,0.008983969032
1563.000000,0.009123678541
1564.000000,0.008879721133
1565.000000,0.01005813985
1566.000000,0.009741037072
1567.000000,0.01056946936
1568.000000,0.01088934601
1569.000000,0.01335557493
1570.000000,0.01364590011
1571.000000,0.01582047119
1572.000000,0.01755238024
1573.000000,0.01943719226
1574.000000,0.02098837981
1575.000000,0.02508275073
1576.000000,0.02864898691
1577.000000,0.03186609729
1578.000000,0.03865172341
1579.000000,0.04498915331
1580.000000,0.05343942345
1581.000000,0.06242686396
1582.000000,0.06852414817
1583.000000,0.07233740064
1584.000000,0.07030605205
1585.000000,0.06539789514
1586.000000,0.05950274071
1587.000000,0.05310278922
1588.000000,0.04792887174
1589.000000,0.04489256616
1590.000000,0.04299227979
1591.000000,0.04114597044
1592.000000,0.04258071483
1593.000000,0.04613489301
1594.000000,0.05153966072
1595.000000,0.05764648215
1596.000000,0.06742498415
1597.000000,0.08283751162
1598.000000,0.1022029165
1599.000000,0.1288939935
1600.000000,0.1558811001
1601.000000,0.1836386538
1602.000000,0.1941020361
1603.000000,0.1807761577
1604.000000,0.155107864
1605.000000,0.125435093
1606.000000,0.09944346459
1607.000000,0.07853865419
1608.000000,0.06330245151
1609.000000,0.05140065837
1610.000000,0.0420406887
1611.000000,0.03683936381
1612.000000,0.03084826259
1613.000000,0.02610609354
1614.000000,0.02367666023
1615.000000,0.02068588028
1616.000000,0.01837479861
1617.000000,0.01647386814
1618.000000,0.01447653204
1619.000000,0.01358649145
1620.000000,0.01228535812
1621.000000,0.01094343451
1622.000000,0.01162262153
1623.000000,0.01081691402
1624.000000,0.009900691429
1625.000000,0.008829885708
1626.000000,0.008550584033
1627.000000,0.009540640403
1628.000000,0.007702778782
1629.000000,0.008391404697
1630.000000,0.007787118648
1631.000000,0.00760155319
1632.000000,0.006767870644
1633.000000,0.006684394232
1634.000000,0.006572313861
1635.000000,0.005765475789
1636.000000,0.007064161037
1637.000000,0.005588936725
1638.000000,0.006035550919
1639.000000,0.006850234213
1640.000000,0.00655183811
1641.000000,0.00518603185
1642.000000,0.005740321276
1643.000000,0.005946196303
1644.000000,0.004057162338
1645.000000,0.00637553259
1646.000000,0.005384790498
1647.000000,0.004811414494
1648.000000,0.004857698732
1649.000000,0.003494497812
1650.000000,0.005195290475
1651.000000,0.005664154134
1652.000000,0.004543228916
1653.000000,0.005564692782
1654.000000,0.004954339482
1655.000000,0.003690502149
1656.000000,0.004784205436
1657.000000,0.003184600394
1658.000000,0.003230392466
1659.000000,0.004706916909
1660.000000,0.004618215045
1661.000000,0.004187103435
1662.000000,0.004142783339
1663.000000,0.003251011075
1664.000000,0.004750512921
1665.000000,0.004100397351
1666.000000,0.00396159596
1667.000000,0.006222621983
1668.000000,0.004199661362
1669.000000,0.003993464457
1670.000000,0.005196671288
1671.000000,0.004146447613
1672.000000,0.003659593542
1673.000000,0.004855661111
1674.000000,0.003827638243
1675.000000,0.003414623958
1676.000000,0.003665997404
1677.000000,0.003872453304
1678.000000,0.004403343022
1679.000000,0.004603697297
1680.000000,0.003087445324
1681.000000,0.004561661325
1682.000000,0.003404612837
1683.000000,0.003493534267
1684.000000,0.002178451422
1685.000000,0.004732243414
1686.000000,0.004083721312
1687.000000,0.003582516395
1688.000000,0.003595965275
1689.000000,0.004280316444
1690.000000,0.003691323961
1691.000000,0.001869606282
1692.000000,0.003820401589
1693.000000,0.003628846441
1694.000000,0.003710495001
1695.000000,0.003653488982
1696.000000,0.004134646429
1697.000000,0.003162449013
1698.000000,0.004990653599
1699.000000,0.003666782543
1700.000000,0.003134318331
1701.000000,0.003626490077
1702.000000,0.002519904574
1703.000000,0.003452208587
1704.000000,0.003089322284
1705.000000,0.002935136435
1706.000000,0.004019489406
1707.000000,0.003692703953
1708.000000,0.002921214837
1709.000000,0.00312185433
1710.000000,0.00369392783
1711.000000,0.004873438974
1712.000000,0.003404812097
1713.000000,0.00337791228
1714.000000,0.003757197166
1715.000000,0.002699119311
1716.000000,0.003392127853
1717.000000,0.003884660723
1718.000000,0.003680760284
1719.000000,0.003644042695
1720.000000,0.002697073991
1721.000000,0.003449363996
1722.000000,0.004292573187
1723.000000,0.005045164333
1724.000000,0.004017832365
1725.000000,0.003090253892
1726.000000,0.003141508382
1727.000000,0.003303082929
1728.000000,0.004703913238
1729.000000,0.002586698262
1730.000000,0.003263770707
1731.000000,0.002384357864
1732.000000,0.003138625081
1733.000000,0.003204603008
1734.000000,0.003931578306
1735.000000,0.00386440833
1736.000000,0.003504422991
1737.000000,0.003201710841
1738.000000,0.003115007062
1739.000000,0.004358252233
1740.000000,0.003287932627
1741.000000,0.002681166049
1742.000000,0.002893750632
1743.000000,0.003365786865
1744.000000,0.002861004616
1745.000000,0.002381344834
1746.000000,0.003901089636
1747.000000,0.002904470572
1748.000000,0.003242950161
1749.000000,0.003374380611
1750.000000,0.003153286135
1751.000000,0.003207845063
1752.000000,0.001740974099
1753.000000,0.003326377791
1754.000000,0.003155352882
1755.000000,0.003042224158
1756.000000,0.003246240021
1757.000000,0.00463040048
1758.000000,0.004294061612
1759.000000,0.003732133019
1760.000000,0.004227024178
1761.000000,0.003022769113
1762.000000,0.003241928483
1763.000000,0.003562010967
1764.000000,0.003819037913
1765.000000,0.003774730137
1766.000000,0.0043889958
1767.000000,0.003191251373
1768.000000,0.004089587436
1769.000000,0.002885681952
1770.000000,0.00360078466
1771.000000,0.002673400833
1772.000000,0.004021138252
1773.000000,0.002936639095
1774.000000,0.004057636911
1775.000000,0.002098241289
1776.000000,0.004355811482
1777.000000,0.00323891843
1778.000000,0.003520511075
1779.000000,0.003423567018
1780.000000,0.002226587246
1781.000000,0.002877176042
1782.000000,0.002863680968
1783.000000,0.003177771962
1784.000000,0.002281195198
1785.000000,0.002835437042
1786.000000,0.003271050639
1787.000000,0.003906594817
1788.000000,0.003658785202
1789.000000,0.002500023818
1790.000000,0.00373974777
1791.000000,0.004181023275
1792.000000,0.003683651112
1793.000000,0.003004309838
1794.000000,0.002668408072
1795.000000,0.002954690783
1796.000000,0.004199985646
1797.000000,0.0026023735
1798.000000,0.001703373143
1799.000000,0.003755235417
1800.000000,0.002810693707
1801.000000,0.003162093621
1802.000000,0.002960770072
1803.000000,0.00387328116
1804.000000,0.002963286395
1805.000000,0.002755746738
1806.000000,0.002714964382
1807.000000,0.004264260005
1808.000000,0.004108788723
1809.000000,0.0029792494
1810.000000,0.00289959765
1811.000000,0.003137639406
1812.000000,0.003545448902
1813.000000,0.002691622825
1814.000000,0.004135332123
1815.000000,0.003370098908
1816.000000,0.001607033429
1817.000000,0.002556806344
1818.000000,0.003014591228
1819.000000,0.004657231615
1820.000000,0.00416429078
1821.000000,0.003322150764
1822.000000,0.002494072488
1823.000000,0.00313994075
1824.000000,0.003201617801
1825.000000,0.002903211672
1826.000000,0.00324937574
1827.000000,0.003594887131
1828.000000,0.002866786366
1829.000000,0.002461801923
1830.000000,0.00323797792
1831.000000,0.002198464707
1832.000000,0.002851622437
1833.000000,0.003840905085
1834.000000,0.003229893716
1835.000000,0.00237316953
1836.000000,0.003069411795
1837.000000,0.002925536831
1838.000000,0.003157846551
1839.000000,0.003697807776
1840.000000,0.002762359444
1841.000000,0.002322077296
1842.000000,0.004024872645
1843.000000,0.002553429617
1844.000000,0.003439999659
1845.000000,0.003320274528
1846.000000,0.00287681075
1847.000000,0.003418956138
1848.000000,0.003279752027
1849.000000,0.003192754082
1850.000000,0.003540417713
1851.000000,0.002650100967
1852.000000,0.003650757959
1853.000000,0.002568309394
1854.000000,0.003679741511
1855.000000,0.003898034178
1856.000000,0.00259581263
1857.000000,0.004282560653
1858.000000,0.00269631684
1859.000000,0.003044691596
1860.000000,0.002577495059
1861.000000,0.002898525965
1862.000000,0.003115563358
1863.000000,0.002700665785
1864.000000,0.003659105246
1865.000000,0.002589333241
1866.000000,0.003259138806
1867.000000,0.002413593039
1868.000000,0.002496668359
1869.000000,0.003120695396
1870.000000,0.003236012114
1871.000000,0.002827798373
1872.000000,0.003247279156
1873.000000,0.003329071529
1874.000000,0.002644437569
1875.000000,0.003073167654
1876.000000,0.002531032162
1877.000000,0.002259679686
1878.000000,0.002687074527
1879.000000,0.002915973822
1880.000000,0.003766322871
1881.000000,0.003366052554
1882.000000,0.003126490235
1883.000000,0.001752080764
1884.000000,0.002502592042
1885.000000,0.003359189713
1886.000000,0.003416127715
1887.000000,0.003063613474
1888.000000,0.002342744951
1889.000000,0.001888979488
1890.000000,0.002058633316
1891.000000,0.003166621767
1892.000000,0.003308532142
1893.000000,0.004154231942
1894.000000,0.002673892751
1895.000000,0.003275628852
1896.000000,0.002608878489
1897.000000,0.002957539697
1898.000000,0.003139405568
1899.000000,0.00276359969
1900.000000,0.003938238622
1901.000000,0.002428315649
1902.000000,0.003564987616
1903.000000,0.002957632805
1904.000000,0.002788624907
1905.000000,0.003712304116
1906.000000,0.002732174254
1907.000000,0.003269837586
1908.000000,0.003089647331
1909.000000,0.003519767765
1910.000000,0.002376342828
1911.000000,0.003262529253
1912.000000,0.003383499049
1913.000000,0.002702083179
1914.000000,0.00248539734
1915.000000,0.002472899953
1916.000000,0.003070588982
1917.000000,0.00262467933
1918.000000,0.003414239373
1919.000000,0.003016903604
1920.000000,0.002933770349
1921.000000,0.003063832588
1922.000000,0.00313006283
1923.000000,0.003154823443
1924.000000,0.003437599903
1925.000000,0.003781734441
1926.000000,0.003348571894
1927.000000,0.003399392322
1928.000000,0.004006424076
1929.000000,0.004011637905
1930.000000,0.003147403664
1931.000000,0.002463840286
1932.000000,0.003813519979
1933.000000,0.00262547202
1934.000000,0.002652919763
1935.000000,0.002622543837
1936.000000,0.002894161694
1937.000000,0.001701077503
1938.000000,0.002795578974
1939.000000,0.003780260813
1940.000000,0.004647624372
1941.000000,0.003394379176
1942.000000,0.003597367912
1943.000000,0.003652768761
1944.000000,0.002772018111
1945.000000,0.002549763506
1946.000000,0.003349684481
1947.000000,0.003807115976
1948.000000,0.00321161055
1949.000000,0.003341131828
1950.000000,0.003118783086
1951.000000,0.003054384369
1952.000000,0.002824792722
1953.000000,0.003790767981
1954.000000,0.003648929067
1955.000000,0.003065179859
1956.000000,0.003310667349
1957.000000,0.003517700115
1958.000000,0.003818421456
1959.000000,0.004319751359
1960.000000,0.004202737639
1961.000000,0.003163925844
1962.000000,0.003308468752
1963.000000,0.003000022163
1964.000000,0.003632303095
1965.000000,0.003823180761
1966.000000,0.002190673534
1967.000000,0.003233059077
1968.000000,0.004025916393
1969.000000,0.002303784004
1970.000000,0.004078587783
1971.000000,0.003837122165
1972.000000,0.002851874178
1973.000000,0.002553243712
1974.000000,0.004193348124
1975.000000,0.00292791726
1976.000000,0.002391960676
1977.000000,0.003188626914
1978.000000,0.002310186244
1979.000000,0.00253223485
1980.000000,0.004190691439
1981.000000,0.002867208177
1982.000000,0.00303177975
1983.000000,0.002121482155
1984.000000,0.00258459675
1985.000000,0.00372361197
1986.000000,0.003344581777
1987.000000,0.003730423404
1988.000000,0.00368185107
1989.000000,0.003229092527
1990.000000,0.002838841159
1991.000000,0.001778774339
1992.000000,0.003744749464
1993.000000,0.003150252218
1994.000000,0.004635516915
1995.000000,0.003002601927
1996.000000,0.003012578423
1997.000000,0.002795375769
1998.000000,0.002348200761
1999.000000,0.00309409597
2000.000000,0.003274970483
