raman_shift_cm-1,intensity
200.000000,0.003033114702
201.000000,0.00321230538
202.000000,0.002867458387
203.000000,0.002496379354
204.000000,0.002758900526
205.000000,0.002435673388
206.000000,0.003068989496
207.000000,0.003839746625
208.000000,0.002736575837
209.000000,0.002659419235
210.000000,0.003327973854
211.000000,0.003247996325
212.000000,0.00309666362
213.000000,0.002473064527
214.000000,0.003015728118
215.000000,0.00345203029
216.000000,0.002224177001
217.000000,0.002758041106
218.000000,0.001888966575
219.000000,0.00225731508
220.000000,0.001924929347
221.000000,0.002892310184
222.000000,0.002270838157
223.000000,0.003197319597
224.000000,0.003128450458
225.000000,0.002921606891
226.000000,0.001518971164
227.000000,0.002709975865
228.000000,0.003005181258
229.000000,0.003102679249
230.000000,0.002113294156
231.000000,0.002746977019
232.000000,0.002445561641
233.000000,0.002547800842
234.000000,0.003673586228
235.000000,0.002548745323
236.000000,0.003015435561
237.000000,0.003567558679
238.000000,0.002683812537
239.000000,0.002968009096
240.000000,0.003101850611
241.000000,0.003073827938
242.000000,0.002297945594
243.000000,0.003081436475
244.000000,0.003853781879
245.000000,0.002104280796
246.000000,0.003553256244
247.000000,0.003107795954
248.000000,0.002649815752
249.000000,0.004240494894
250.000000,0.003495129847
251.000000,0.002314235313
252.000000,0.003081239708
253.000000,0.003383670937
254.000000,0.002922895975
255.000000,0.003447803372
256.000000,0.002996689151
257.000000,0.003438556125
258.000000,0.003903007275
259.000000,0.002630220018
260.000000,0.003159410033
261.000000,0.002758259014
262.000000,0.003113919639
263.000000,0.002322620573
264.000000,0.002688708349
265.000000,0.002919459806
266.000000,0.00357879552
267.000000,0.003727277323
268.000000,0.002241023774
269.000000,0.002559546871
270.000000,0.003427552916
271.000000,0.001838604731
272.000000,0.002759415797
273.000000,0.002979803132
274.000000,0.003795285162
275.000000,0.003453648272
276.000000,0.002841680401
277.000000,0.002816881571
278.000000,0.002888259334
279.000000,0.003956265294
280.000000,0.002781405853
281.000000,0.00285637649
282.000000,0.003251602055
283.000000,0.002966716487
284.000000,0.002920759206
285.000000,0.002368904696
286.000000,0.003032821209
287.000000,0.002772803821
288.000000,0.003742067945
289.000000,0.003433297029
290.000000,0.003025671869
291.000000,0.00344273227
292.000000,0.002835813538
293.000000,0.003674003823
294.000000,0.003037419669
295.000000,0.003392023277
296.000000,0.00226370308
297.000000,0.003249750605
298.000000,0.002024735042
299.000000,0.001815863844
300.000000,0.002858073971
301.000000,0.002499695785
302.000000,0.003140406525
303.000000,0.004393253364
304.000000,0.002541133149
305.000000,0.002666356702
306.000000,0.003165806467
307.000000,0.003339094704
308.000000,0.00293618888
309.000000,0.002918543467
310.000000,0.003465587839
311.000000,0.003355809485
312.000000,0.002420581877
313.000000,0.002995385222
314.000000,0.003064437781
315.000000,0.002408458912
316.000000,0.003199906467
317.000000,0.002527057299
318.000000,0.003628992373
319.000000,0.003159929689
320.000000,0.003097793677
321.000000,0.002688329308
322.000000,0.002972900333
323.000000,0.001841679784
324.000000,0.002363419311
325.000000,0.003263202682
326.000000,0.001763358041
327.000000,0.003554761194
328.000000,0.001993930682
329.000000,0.003500955742
330.000000,0.00253645622
331.000000,0.003514660432
332.000000,0.003124652716
333.000000,0.002120691104
334.000000,0.003798196782
335.000000,0.003914289041
336.000000,0.003006826984
337.000000,0.002881691997
338.000000,0.00295052053
339.000000,0.002459829073
340.000000,0.003708524081
341.000000,0.002720411993
342.000000,0.003016617849
343.000000,0.002569990857
344.000000,0.0026708421
345.000000,0.002278677317
346.000000,0.003804967005
347.000000,0.002955532729
348.000000,0.003630030504
349.000000,0.003056682872
350.000000,0.002630764186
351.000000,0.002852337426
352.000000,0.002711911273
353.000000,0.003054185171
354.000000,0.00282364488
355.000000,0.002869196576
356.000000,0.002219966272
357.000000,0.002564377381
358.000000,0.004046199209
359.000000,0.002646415164
360.000000,0.002416105227
361.000000,0.003254032227
362.000000,0.003898412159
363.000000,0.002175924274
364.000000,0.002926004716
365.000000,0.002671217974
366.000000,0.001991713602
367.000000,0.003494650266
368.000000,0.00303827351
369.000000,0.003095615946
370.000000,0.002599878543
371.000000,0.003326849527
372.000000,0.002728567412
373.000000,0.002967446379
374.000000,0.002386462309
375.000000,0.002321761953
376.000000,0.003858245834
377.000000,0.002749088137
378.000000,0.003230244456
379.000000,0.003034526236
380.000000,0.00278951079
381.000000,0.002749524916
382.000000,0.003434947042
383.000000,0.002874097581
384.000000,0.002964911962
385.000000,0.003069721692
386.000000,0.003764933506
387.000000,0.003466567047
388.000000,0.003287464625
389.000000,0.002718068676
390.000000,0.00222560416
391.000000,0.003629589591
392.000000,0.003640045731
393.000000,0.002973738145
394.000000,0.003384980855
395.000000,0.003529491187
396.000000,0.003559721611
397.000000,0.003614313323
398.000000,0.002785556006
399.000000,0.003972275048
400.000000,0.002309923927
401.000000,0.003579569471
402.000000,0.003358437013
403.000000,0.003587339534
404.000000,0.004192959908
405.000000,0.003955719488
406.000000,0.002372828001
407.000000,0.002045927976
408.000000,0.003554766016
409.000000,0.002452166838
410.000000,0.00305613439
411.000000,0.003569510412
412.000000,0.002074602391
413.000000,0.001794272496
414.000000,0.00322108403
415.000000,0.003092043762
416.000000,0.002917686733
417.000000,0.003089237471
418.000000,0.002548314167
419.000000,0.002155546876
420.000000,0.002966808027
421.000000,0.002482490773
422.000000,0.002078422482
423.000000,0.003372749808
424.000000,0.003031723508
425.000000,0.003313845338
426.000000,0.002473870353
427.000000,0.002673705542
428.000000,0.002468824676
429.000000,0.002536917492
430.000000,0.003188808939
431.000000,0.00260018863
432.000000,0.003286404044
433.000000,0.003277026992
434.000000,0.004292201991
435.000000,0.002234823573
436.000000,0.003608413075
437.000000,0.003020426832
438.000000,0.003066332099
439.000000,0.002202345449
440.000000,0.002798680615
441.000000,0.003523697075
442.000000,0.00302708739
443.000000,0.003126054299
444.000000,0.002902740115
445.000000,0.003773423123
446.000000,0.003065899439
447.000000,0.001754570627
448.000000,0.002663241758
449.000000,0.001895125278
450.000000,0.001123454384
451.000000,0.002762445619
452.000000,0.003885084581
453.000000,0.003111153519
454.000000,0.00237743431
455.000000,0.002517631122
456.000000,0.003765319403
457.000000,0.003180146465
458.000000,0.00311478342
459.000000,0.003054347453
460.000000,0.003110315492
461.000000,0.003572775667
462.000000,0.00342123316
463.000000,0.003219113886
464.000000,0.002462075246
465.000000,0.003398391092
466.000000,0.00267943771
467.000000,0.00375071098
468.000000,0.002327641761
469.000000,0.003010811192
470.000000,0.003090020777
471.000000,0.00229772283
472.000000,0.004132800245
473.000000,0.00397614643
474.000000,0.002818616726
475.000000,0.003563208707
476.000000,0.003327441406
477.000000,0.001526804674
478.000000,0.00325200282
479.000000,0.003065235543
480.000000,0.003153211035
481.000000,0.002455716269
482.000000,0.002942878509
483.000000,0.00299871559
484.000000,0.003822366664
485.000000,0.003309438079
486.000000,0.003105802986
487.000000,0.004030767483
488.000000,0.002777029868
489.000000,0.00287798625
490.000000,0.00201978831
491.000000,0.004059472733
492.000000,0.003696554439
493.000000,0.003669186968
494.000000,0.003521152487
495.000000,0.003186022809
496.000000,0.003250747768
497.000000,0.002970616382
498.000000,0.003001122092
499.000000,0.003157790359
500.000000,0.004036742758
501.000000,0.003462539528
502.000000,0.00309427323
503.000000,0.00278216439
504.000000,0.00275024882
505.000000,0.004099096113
506.000000,0.003440860117
507.000000,0.003178150407
508.000000,0.002930777416
509.000000,0.002473242475
510.000000,0.003102520524
511.000000,0.003670631316
512.000000,0.002910200704
513.000000,0.003011672008
514.000000,0.00301741417
515.000000,0.003218532477
516.000000,0.002195563971
517.000000,0.003015107879
518.000000,0.002644660887
519.000000,0.003693935576
520.000000,0.002699761891
521.000000,0.003513558385
522.000000,0.004086444668
523.000000,0.002982392588
524.000000,0.00281165166
525.000000,0.003291816522
526.000000,0.003178142911
527.000000,0.002584029794
528.000000,0.003462734836
529.000000,0.004401776234
530.000000,0.003036068586
531.000000,0.00307259349
532.000000,0.002568995081
533.000000,0.003393712317
534.000000,0.002454439088
535.000000,0.002542478911
536.000000,0.003983220307
537.000000,0.002671615735
538.000000,0.003871930899
539.000000,0.004142915843
540.000000,0.003385705359
541.000000,0.003567336046
542.000000,0.004414296105
543.000000,0.003125399094
544.000000,0.00289193285
545.000000,0.00243954315
546.000000,0.003284913318
547.000000,0.004156089995
548.000000,0.003849262193
549.000000,0.002710539724
550.000000,0.002769226134
551.000000,0.002987425153
552.000000,0.003473974378
553.000000,0.003181744239
554.000000,0.003442141368
555.000000,0.003499697511
556.000000,0.003149539686
557.000000,0.003314003411
558.000000,0.003471756506
559.000000,0.003306442921
560.000000,0.003670245506
561.000000,0.00450408004
562.000000,0.003745226894
563.000000,0.003434127224
564.000000,0.002397689482
565.000000,0.003659399399
566.000000,0.002267478721
567.000000,0.002605621927
568.000000,0.003983767824
569.000000,0.003910564507
570.000000,0.0034121888
571.000000,0.002491049022
572.000000,0.003316255191
573.000000,0.003151637058
574.000000,0.003965467459
575.000000,0.004964544306
576.000000,0.003760598004
577.000000,0.003187247117
578.000000,0.002980009587
579.000000,0.003681344666
580.000000,0.003641278092
581.000000,0.003089502791
582.000000,0.003890652037
583.000000,0.003168497706
584.000000,0.004575165615
585.000000,0.004593298905
586.000000,0.004658677713
587.000000,0.003776907846
588.000000,0.004434058282
589.000000,0.004112627608
590.000000,0.004032575809
591.000000,0.00414456617
592.000000,0.003656945011
593.000000,0.003670724358
594.000000,0.005130156403
595.000000,0.004661777343
596.000000,0.005047395803
597.000000,0.005678099961
598.000000,0.004210265177
599.000000,0.004984934311
600.000000,0.005795134704
601.000000,0.006193186164
602.000000,0.006039893015
603.000000,0.007247761208
604.000000,0.007179124234
605.000000,0.006824463419
606.000000,0.007595095743
607.000000,0.009364825665
608.000000,0.01004212645
609.000000,0.009707805184
610.000000,0.01301970935
611.000000,0.01428118958
612.000000,0.01691717893
613.000000,0.01869898409
614.000000,0.02241445781
615.000000,0.02665685969
616.000000,0.03488345269
617.000000,0.04049494138
618.000000,0.04929166374
619.000000,0.05433469348
620.000000,0.05737356399
621.000000,0.05371931926
622.000000,0.04810770809
623.000000,0.04119639816
624.000000,0.03260713487
625.000000,0.02798651161
626.000000,0.02280261285
627.000000,0.01830973546
628.000000,0.01581585557
629.000000,0.01365539333
630.000000,0.01219032033
631.000000,0.01054140657
632.000000,0.009279021842
633.000000,0.008711936544
634.000000,0.007553871175
635.000000,0.006796483456
636.000000,0.007042530753
637.000000,0.007179984917
638.000000,0.00536767378
639.000000,0.005982009386
640.000000,0.005322277434
641.000000,0.00489400097
642.000000,0.005794086914
643.000000,0.004790832793
644.000000,0.005848248915
645.000000,0.004337761439
646.000000,0.004916283153
647.000000,0.0044361483
648.000000,0.004019764593
649.000000,0.004738174896
650.000000,0.00421029408
651.000000,0.004593600654
652.000000,0.004135455835
653.000000,0.003449603047
654.000000,0.003986538074
655.000000,0.004028598518
656.000000,0.004527881698
657.000000,0.00336243979
658.000000,0.003845014215
659.000000,0.002795664676
660.000000,0.004190996067
661.000000,0.003116522524
662.000000,0.002651254737
663.000000,0.003676368322
664.000000,0.004352815996
665.000000,0.002746122637
666.000000,0.002987271513
667.000000,0.003174691466
668.000000,0.002923347151
669.000000,0.003814239418
670.000000,0.003083267807
671.000000,0.003119569738
672.000000,0.003890749612
673.000000,0.003071191305
674.000000,0.003773970813
675.000000,0.002916706151
676.000000,0.002760630352
677.000000,0.002374919544
678.000000,0.004590760832
679.000000,0.003268193436
680.000000,0.003599263868
681.000000,0.003425632986
682.000000,0.003533069386
683.000000,0.003459591221
684.000000,0.004571919786
685.000000,0.002791343622
686.000000,0.002473360939
687.000000,0.00279638994
688.000000,0.002597045466
689.000000,0.003845677512
690.000000,0.003885546508
691.000000,0.002808842013
692.000000,0.002546790309
693.000000,0.003166923097
694.000000,0.004214983804
695.000000,0.001677047909
696.000000,0.003689135501
697.000000,0.00272211443
698.000000,0.003994138424
699.000000,0.002717015044
700.000000,0.003192632492
701.000000,0.002456307265
702.000000,0.00277376576
703.000000,0.004195693097
704.000000,0.003854784346
705.000000,0.003118553785
706.000000,0.002836352405
707.000000,0.002220150187
708.000000,0.003123658785
709.000000,0.003342602679
710.000000,0.003311368835
711.000000,0.003306498406
712.000000,0.002688782758
713.000000,0.003325734482
714.000000,0.003344033039
715.000000,0.004146238228
716.000000,0.004495288563
717.000000,0.003291315535
718.000000,0.002915076143
719.000000,0.003340227181
720.000000,0.003016692648
721.000000,0.002938967516
722.000000,0.003354370925
723.000000,0.002765552079
724.000000,0.003762914832
725.000000,0.003340051616
726.000000,0.003558077309
727.000000,0.003302689545
728.000000,0.00298060276
729.000000,0.002853717188
730.000000,0.003287974025
731.000000,0.003107221248
732.000000,0.003585641556
733.000000,0.00344980206
734.000000,0.002640395411
735.000000,0.003509629409
736.000000,0.002669877563
737.000000,0.0031169193
738.000000,0.003321165139
739.000000,0.002259871586
740.000000,0.003576031193
741.000000,0.003624173279
742.000000,0.003451234131
743.000000,0.003304837167
744.000000,0.003350184888
745.000000,0.003002944039
746.000000,0.003445299933
747.000000,0.003292865837
748.000000,0.003699868039
749.000000,0.002940083384
750.000000,0.003828683888
751.000000,0.003796385289
752.000000,0.00364990375
753.000000,0.003497492216
754.000000,0.004123239329
755.000000,0.002819436741
756.000000,0.004132191961
757.000000,0.00403725166
758.000000,0.004100397534
759.000000,0.00420263493
760.000000,0.003623948317
761.000000,0.003910866598
762.000000,0.004504644893
763.000000,0.004439329922
764.000000,0.004369030339
765.000000,0.003403631714
766.000000,0.004717050122
767.000000,0.005183185773
768.000000,0.005181998488
769.000000,0.004820397046
770.000000,0.003859246025
771.000000,0.005495884844
772.000000,0.004987147651
773.000000,0.00371715904
774.000000,0.00565701326
775.000000,0.0047453217
776.000000,0.005107514808
777.000000,0.005786524022
778.000000,0.007259399199
779.000000,0.006647021026
780.000000,0.007474516811
781.000000,0.008883050893
782.000000,0.009405894662
783.000000,0.009118496948
784.000000,0.009917651277
785.000000,0.01037014067
786.000000,0.01200556442
787.000000,0.01425479483
788.000000,0.01614981402
789.000000,0.01828037747
790.000000,0.02152762733
791.000000,0.02353900939
792.000000,0.0272126498
793.000000,0.03069750933
794.000000,0.03280620398
795.000000,0.03391344055
796.000000,0.03269465601
797.000000,0.03007319964
798.000000,0.02746781816
799.000000,0.0234048549
800.000000,0.01994719991
801.000000,0.01857029912
802.000000,0.01588616603
803.000000,0.01419330847
804.000000,0.01141159924
805.000000,0.01092061025
806.000000,0.009714195616
807.000000,0.008673819545
808.000000,0.00710304903
809.000000,0.007644704588
810.000000,0.007868391059
811.000000,0.007117604463
812.000000,0.006150462411
813.000000,0.006180049297
814.000000,0.006365035442
815.000000,0.004004227876
816.000000,0.005378549395
817.000000,0.005593714255
818.000000,0.005512409572
819.000000,0.005979435119
820.000000,0.005508675217
821.000000,0.0048971617
822.000000,0.004786474913
823.000000,0.00498460505
824.000000,0.004101393672
825.000000,0.004325232784
826.000000,0.004825448508
827.000000,0.005395011482
828.000000,0.004062837009
829.000000,0.004076766751
830.000000,0.004177012447
831.000000,0.004821786652
832.000000,0.003953978943
833.000000,0.004819237626
834.000000,0.003317855721
835.000000,0.003755736993
836.000000,0.003718722378
837.000000,0.004284025975
838.000000,0.004414267859
839.000000,0.002852438484
840.000000,0.003188202858
841.000000,0.003921443746
842.000000,0.003302939809
843.000000,0.002765095516
844.000000,0.004290314985
845.000000,0.003946978413
846.000000,0.003932027383
847.000000,0.003335336326
848.000000,0.004228452533
849.000000,0.00345269981
850.000000,0.004246284401
851.000000,0.003026986874
852.000000,0.003052017591
853.000000,0.003680518541
854.000000,0.003126082088
855.000000,0.003947801023
856.000000,0.003690460865
857.000000,0.002971421948
858.000000,0.003564701537
859.000000,0.003303511919
860.000000,0.004061000294
861.000000,0.003123782029
862.000000,0.003235613048
863.000000,0.004225045826
864.000000,0.004839715186
865.000000,0.004691942839
866.000000,0.003523272033
867.000000,0.003614088476
868.000000,0.00440298646
869.000000,0.00340253541
870.000000,0.002887619989
871.000000,0.003544081332
872.000000,0.003744090162
873.000000,0.002971834068
874.000000,0.002478937924
875.000000,0.002604358006
876.000000,0.003869522974
877.000000,0.003012056707
878.000000,0.003383538929
879.000000,0.003596829043
880.000000,0.00384205627
881.000000,0.003268315547
882.000000,0.003771083398
883.000000,0.0029360366
884.000000,0.003255438219
885.000000,0.002857961639
886.000000,0.004157852204
887.000000,0.003462082598
888.000000,0.003035422201
889.000000,0.003270740088
890.000000,0.003351964374
891.000000,0.003910000068
892.000000,0.002530556025
893.000000,0.002869978726
894.000000,0.003270228275
895.000000,0.005026139445
896.000000,0.004080777025
897.000000,0.003442391925
898.000000,0.003942493244
899.000000,0.004757098835
900.000000,0.00338245787
901.000000,0.00330762783
902.000000,0.004263198681
903.000000,0.003836604358
904.000000,0.003949076107
905.000000,0.003244984135
906.000000,0.004715820544
907.000000,0.004593246955
908.000000,0.003911626455
909.000000,0.003990105366
910.000000,0.002365110334
911.000000,0.003977459332
912.000000,0.003484839521
913.000000,0.00387147885
914.000000,0.004030012685
915.000000,0.0034229025
916.000000,0.002620238757
917.000000,0.003869542125
918.000000,0.003212143818
919.000000,0.003470586543
920.000000,0.003316757758
921.000000,0.003486857687
922.000000,0.002314306134
923.000000,0.004450268294
924.000000,0.00388344342
925.000000,0.004413934208
926.000000,0.004951265335
927.000000,0.003787955891
928.000000,0.002704895509
929.000000,0.003268308414
930.000000,0.003096968379
931.000000,0.003539309883
932.000000,0.003908081116
933.000000,0.002674165922
934.000000,0.004106175894
935.000000,0.003011942773
936.000000,0.004122588817
937.000000,0.003900950773
938.000000,0.00380246316
939.000000,0.003972900428
940.000000,0.003718723471
941.000000,0.003703105685
942.000000,0.003088276385
943.000000,0.004114620986
944.000000,0.005276241185
945.000000,0.005391851965
946.000000,0.005031464826
947.000000,0.004698717888
948.000000,0.003906724799
949.000000,0.005225127407
950.000000,0.004367609289
951.000000,0.004407449353
952.000000,0.004323908291
953.000000,0.004607983824
954.000000,0.004347249584
955.000000,0.004619064909
956.000000,0.00408061135
957.000000,0.004576963864
958.000000,0.006247901232
959.000000,0.004910897737
960.000000,0.004892552139
961.000000,0.005446245595
962.000000,0.005648174816
963.000000,0.004654712303
964.000000,0.005312080316
965.000000,0.006110164264
966.000000,0.005850228882
967.000000,0.005902777441
968.000000,0.006918993995
969.000000,0.005743281982
970.000000,0.006384857804
971.000000,0.006223393576
972.000000,0.007655405707
973.000000,0.005827626194
974.000000,0.006870279412
975.000000,0.007256445686
976.000000,0.008310878335
977.000000,0.008653546262
978.000000,0.009553419929
979.000000,0.008246888991
980.000000,0.01019427267
981.000000,0.0101935164
982.000000,0.01069316138
983.000000,0.01225956847
984.000000,0.01236523549
985.000000,0.01283176454
986.000000,0.01524661482
987.000000,0.0162407598
988.000000,0.01879407654
989.000000,0.02193576299
990.000000,0.02507600944
991.000000,0.02990518455
992.000000,0.03412689612
993.000000,0.04038819761
994.000000,0.05051276862
995.000000,0.06397214644
996.000000,0.08333956846
997.000000,0.1130960977
998.000000,0.154671403
999.000000,0.2118491998
1000.000000,0.2760789696
1001.000000,0.3058026666
1002.000000,0.2760993168
1003.000000,0.2135564462
1004.000000,0.1561270981
1005.000000,0.1137866484
1006.000000,0.08600217068
1007.000000,0.06623834989
1008.000000,0.05295335062
1009.000000,0.04362598759
1010.000000,0.03578878383
1011.000000,0.03165998378
1012.000000,0.0279812176
1013.000000,0.02558687589
1014.000000,0.02269291415
1015.000000,0.02312352335
1016.000000,0.02132003137
1017.000000,0.02008354604
1018.000000,0.0197607397
1019.000000,0.02103295965
1020.000000,0.02204676343
1021.000000,0.02314570892
1022.000000,0.02584260046
1023.000000,0.02858020702
1024.000000,0.03381436134
1025.000000,0.03945566788
1026.000000,0.0489911788
1027.000000,0.06253321649
1028.000000,0.08126961143
1029.000000,0.1012876755
1030.000000,0.1229669988
1031.000000,0.1320777707
1032.000000,0.1233274815
1033.000000,0.1004151816
1034.000000,0.07823479423
1035.000000,0.06030816254
1036.000000,0.04636196543
1037.000000,0.0367779148
1038.000000,0.03014665758
1039.000000,0.02409424921
1040.000000,0.02069350949
1041.000000,0.01841866847
1042.000000,0.01650327648
1043.000000,0.01451815901
1044.000000,0.01212684552
1045.000000,0.01174462579
1046.000000,0.01153667448
1047.000000,0.01058137001
1048.000000,0.009515618596
1049.000000,0.008445781784
1050.000000,0.008858720256
1051.000000,0.007695681402
1052.000000,0.006961171224
1053.000000,0.006849272858
1054.000000,0.007910232845
1055.000000,0.006909757595
1056.000000,0.007242254959
1057.000000,0.006047032714
1058.000000,0.006712690456
1059.000000,0.005616147537
1060.000000,0.005729847009
1061.000000,0.00718188582
1062.000000,0.006019453749
1063.000000,0.005139417026
1064.000000,0.00528339816
1065.000000,0.005432883378
1066.000000,0.005875067359
1067.000000,0.004768645332
1068.000000,0.003937941411
1069.000000,0.004746921184
1070.000000,0.004858736124
1071.000000,0.00485438813
1072.000000,0.005524511477
1073.000000,0.004869792549
1074.000000,0.005119598604
1075.000000,0.003921676538
1076.000000,0.00506476277
1077.000000,0.005764830295
1078.000000,0.00493137531
1079.000000,0.004584503
1080.000000,0.004492754774
1081.000000,0.005446459972
1082.000000,0.003784803505
1083.000000,0.004250677459
1084.000000,0.004571072548
1085.000000,0.004720158886
1086.000000,0.003988856188
1087.000000,0.004418759319
1088.000000,0.00404955242
1089.000000,0.0042740762
1090.000000,0.004108148664
1091.000000,0.003487917839
1092.000000,0.004151467081
1093.000000,0.004682587711
1094.000000,0.003563916378
1095.000000,0.003993933561
1096.000000,0.00453359798
1097.000000,0.003484798273
1098.000000,0.004235764507
1099.000000,0.003485721278
1100.000000,0.004806622057
1101.000000,0.005516822421
1102.000000,0.005344101094
1103.000000,0.003998226726
1104.000000,0.004580897229
1105.000000,0.004214645431
1106.000000,0.004211365296
1107.000000,0.005091448844
1108.000000,0.003376754791
1109.000000,0.004819513868
1110.000000,0.004169711587
1111.000000,0.00506426412
1112.000000,0.004348103855
1113.000000,0.003851795834
1114.000000,0.004447489082
1115.000000,0.004750195836
1116.000000,0.0043579233
1117.000000,0.004662597094
1118.000000,0.00409041207
1119.000000,0.003159156629
1120.000000,0.005029206149
1121.000000,0.004956156082
1122.000000,0.004677236434
1123.000000,0.004687492191
1124.000000,0.005334613273
1125.000000,0.004506720764
1126.000000,0.004435488623
1127.000000,0.004834999199
1128.000000,0.005761976058
1129.000000,0.004319756394
1130.000000,0.005994229907
1131.000000,0.005028503653
1132.000000,0.004904673424
1133.000000,0.006500242521
1134.000000,0.005881167827
1135.000000,0.005382565157
1136.000000,0.006208599326
1137.000000,0.007284228373
1138.000000,0.007788673564
1139.000000,0.007219822807
1140.000000,0.008199726768
1141.000000,0.00895259091
1142.000000,0.008814081941
1143.000000,0.01023695709
1144.000000,0.0110054986
1145.000000,0.01193562099
1146.000000,0.01349626299
1147.000000,0.01575724216
1148.000000,0.01816280948
1149.000000,0.02086985389
1150.000000,0.02478812639
1151.000000,0.03037840711
1152.000000,0.03516950338
1153.000000,0.0409629561
1154.000000,0.04539729292
1155.000000,0.04670653992
1156.000000,0.04616228954
1157.000000,0.0401776863
1158.000000,0.03589881559
1159.000000,0.03002039679
1160.000000,0.02680609213
1161.000000,0.02302905118
1162.000000,0.01792722807
1163.000000,0.01627320348
1164.000000,0.01553367583
1165.000000,0.0143024406
1166.000000,0.01329631315
1167.000000,0.01210852509
1168.000000,0.01195446883
1169.000000,0.01180810382
1170.000000,0.01129569329
1171.000000,0.01208257644
1172.000000,0.01043299745
1173.000000,0.01274105884
1174.000000,0.01258731988
1175.000000,0.01499271456
1176.000000,0.01593877578
1177.000000,0.01779002875
1178.000000,0.02154188489
1179.000000,0.02463144693
1180.000000,0.02932623952
1181.000000,0.03396926441
1182.000000,0.03904837775
1183.000000,0.04096715187
1184.000000,0.03949694472
1185.000000,0.03445813351
1186.000000,0.029946126
1187.000000,0.02443134284
1188.000000,0.02029093459
1189.000000,0.01747625324
1190.000000,0.01527647117
1191.000000,0.01250656744
1192.000000,0.01106471563
1193.000000,0.00993347319
1194.000000,0.009138998104
1195.000000,0.007787759858
1196.000000,0.008328738077
1197.000000,0.006956564774
1198.000000,0.007048468996
1199.000000,0.00591254775
1200.000000,0.006318840926
1201.000000,0.00607544439
1202.000000,0.005358920512
1203.000000,0.006630867369
1204.000000,0.005464018916
1205.000000,0.006157499674
1206.000000,0.005529568646
1207.000000,0.004432605983
1208.000000,0.004493155326
1209.000000,0.004888665841
1210.000000,0.004575249736
1211.000000,0.004488764794
1212.000000,0.004214459049
1213.000000,0.003232088431
1214.000000,0.004124933016
1215.000000,0.002869922221
1216.000000,0.004378387226
1217.000000,0.003670495489
1218.000000,0.003633551553
1219.000000,0.003892083013
1220.000000,0.004151000671
1221.000000,0.003089988699
1222.000000,0.002867056729
1223.000000,0.003247815626
1224.000000,0.002632188174
1225.000000,0.003252912431
1226.000000,0.004768054219
1227.000000,0.00315082405
1228.000000,0.004157256484
1229.000000,0.002918637207
1230.000000,0.003905108401
1231.000000,0.00351417447
1232.000000,0.003653333829
1233.000000,0.00401539665
1234.000000,0.004714812009
1235.000000,0.003759963037
1236.000000,0.003703667511
1237.000000,0.003029531364
1238.000000,0.003954205756
1239.000000,0.003442900071
1240.000000,0.004080615458
1241.000000,0.003542566377
1242.000000,0.004606696787
1243.000000,0.00235492953
1244.000000,0.003360855016
1245.000000,0.00406122159
1246.000000,0.003310863635
1247.000000,0.003036942889
1248.000000,0.003346053133
1249.000000,0.002667917157
1250.000000,0.003563269865
1251.000000,0.004954211964
1252.000000,0.00416781505
1253.000000,0.002804555431
1254.000000,0.002940537398
1255.000000,0.003217026699
1256.000000,0.004060025257
1257.000000,0.00295554636
1258.000000,0.00302963347
1259.000000,0.00397315592
1260.000000,0.003956543035
1261.000000,0.003206589341
1262.000000,0.002754560116
1263.000000,0.002490540039
1264.000000,0.002998989609
1265.000000,0.002073310452
1266.000000,0.003864252495
1267.000000,0.003030222867
1268.000000,0.003696199706
1269.000000,0.004528318601
1270.000000,0.00410686124
1271.000000,0.002704895854
1272.000000,0.003918752019
1273.000000,0.004090094457
1274.000000,0.002941339133
1275.000000,0.002814578571
1276.000000,0.003320436299
1277.000000,0.002420382824
1278.000000,0.004268208806
1279.000000,0.001932832545
1280.000000,0.002713051821
1281.000000,0.003215635435
1282.000000,0.003239821982
1283.000000,0.003475275035
1284.000000,0.003537500812
1285.000000,0.003244373463
1286.000000,0.004056471035
1287.000000,0.002083045139
1288.000000,0.003370188446
1289.000000,0.00293934734
1290.000000,0.00344873445
1291.000000,0.00350133187
1292.000000,0.002818993629
1293.000000,0.002981724371
1294.000000,0.003844537942
1295.000000,0.003577318531
1296.000000,0.002957509207
1297.000000,0.00459519953
1298.000000,0.004757397478
1299.000000,0.002486772166
1300.000000,0.003549209273
1301.000000,0.00487841022
1302.000000,0.003840190663
1303.000000,0.00350181045
1304.000000,0.003244022562
1305.000000,0.003044103916
1306.000000,0.00324272656
1307.000000,0.003039918064
1308.000000,0.003820881538
1309.000000,0.003133669763
1310.000000,0.003108854777
1311.000000,0.00265183468
1312.000000,0.003347003341
1313.000000,0.002839870188
1314.000000,0.003270786345
1315.000000,0.004008360038
1316.000000,0.003603026297
1317.000000,0.003688281661
1318.000000,0.003600574157
1319.000000,0.003423685065
1320.000000,0.003313365566
1321.000000,0.00320677028
1322.000000,0.00385129134
1323.000000,0.002743729462
1324.000000,0.004206081201
1325.000000,0.003421860222
1326.000000,0.002953146645
1327.000000,0.003112094076
1328.000000,0.003001787268
1329.000000,0.003508735443
1330.000000,0.002983105466
1331.000000,0.004106065201
1332.000000,0.002951078697
1333.000000,0.002056841949
1334.000000,0.002988441661
1335.000000,0.002222917051
1336.000000,0.003411938534
1337.000000,0.004077523748
1338.000000,0.003833872507
1339.000000,0.00264274184
1340.000000,0.002993461315
1341.000000,0.004527728088
1342.000000,0.003653277027
1343.000000,0.003468793404
1344.000000,0.00410710254
1345.000000,0.004953137447
1346.000000,0.004262367006
1347.000000,0.003571184539
1348.000000,0.003706487267
1349.000000,0.003870355544
1350.000000,0.003136042059
1351.000000,0.002873813832
1352.000000,0.003549336234
1353.000000,0.002954226023
1354.000000,0.003494493087
1355.000000,0.003596601739
1356.000000,0.00495567521
1357.000000,0.003041575535
1358.000000,0.003488663092
1359.000000,0.003471376209
1360.000000,0.00384219416
1361.000000,0.00421801813
1362.000000,0.003301755735
1363.000000,0.003112126611
1364.000000,0.002628745321
1365.000000,0.003069219657
1366.000000,0.003960507043
1367.000000,0.003676094909
1368.000000,0.003048751336
1369.000000,0.003447616386
1370.000000,0.003703393112
1371.000000,0.004000571926
1372.000000,0.003353446071
1373.000000,0.00357384383
1374.000000,0.002644281005
1375.000000,0.003060949798
1376.000000,0.004743811231
1377.000000,0.002468759882
1378.000000,0.00359979867
1379.000000,0.003952883939
1380.000000,0.003614024092
1381.000000,0.003372142147
1382.000000,0.003842083058
1383.000000,0.003896915788
1384.000000,0.00387246617
1385.000000,0.002814408613
1386.000000,0.003880249808
1387.000000,0.003479378337
1388.000000,0.003690863647
1389.000000,0.004184999496
1390.000000,0.004463183131
1391.000000,0.004647875514
1392.000000,0.003841171909
1393.000000,0.004730108481
1394.000000,0.004915988397
1395.000000,0.004931089994
1396.000000,0.005122963206
1397.000000,0.004240181614
1398.000000,0.004267068381
1399.000000,0.00491519075
1400.000000,0.003644993772
1401.000000,0.004646045231
1402.000000,0.004255929106
1403.000000,0.004412177082
1404.000000,0.003648292359
1405.000000,0.00422727706
1406.000000,0.004822162014
1407.000000,0.005445273851
1408.000000,0.005587542335
1409.000000,0.005029974695
1410.000000,0.005057521154
1411.000000,0.004771420593
1412.000000,0.005621455411
1413.000000,0.005346206479
1414.000000,0.005985378724
1415.000000,0.00681084011
1416.000000,0.005883752556
1417.000000,0.005161502202
1418.000000,0.005718705929
1419.000000,0.005549014365
1420.000000,0.005914007736
1421.000000,0.007648633263
1422.000000,0.007250109964
1423.000000,0.006475209245
1424.000000,0.008090349149
1425.000000,0.008795816131
1426.000000,0.008199305245
1427.000000,0.008432735002
1428.000000,0.009112201676
1429.000000,0.01002259318
1430.000000,0.01084295721
1431.000000,0.011858621
1432.000000,0.01266371573
1433.000000,0.01355009937
1434.000000,0.01469700031
1435.000000,0.01548087768
1436.000000,0.01556477978
1437.000000,0.01805009446
1438.000000,0.02024818726
1439.000000,0.02210543739
1440.000000,0.02557725461
1441.000000,0.0279970502
1442.000000,0.03141420645
1443.000000,0.03723901199
1444.000000,0.04183718441
1445.000000,0.04724570514
1446.000000,0.05374605326
1447.000000,0.05985577163
1448.000000,0.06470229223
1449.000000,0.06669363919
1450.000000,0.06909378155
1451.000000,0.06790382839
1452.000000,0.06391522374
1453.000000,0.05935189925
1454.000000,0.05392754968
1455.000000,0.04684884496
1456.000000,0.04078550724
1457.000000,0.0376284831
1458.000000,0.03174329653
1459.000000,0.02752064899
1460.000000,0.02522632561
1461.000000,0.02265260267
1462.000000,0.01970054172
1463.000000,0.01867636867
1464.000000,0.01627033124
1465.000000,0.01461001628
1466.000000,0.01407340036
1467.000000,0.01339519168
1468.000000,0.0116527813
1469.000000,0.01145260107
1470.000000,0.0105141461
1471.000000,0.01167068273
1472.000000,0.009013913025
1473.000000,0.009804605847
1474.000000,0.008522391911
1475.000000,0.008105114918
1476.000000,0.008282370752
1477.000000,0.008086477942
1478.000000,0.008041084843
1479.000000,0.00723220252
1480.000000,0.006451898476
1481.000000,0.006289046955
1482.000000,0.006737005408
1483.000000,0.006613392619
1484.000000,0.006953234288
1485.000000,0.006224184817
1486.000000,0.006482889386
1487.000000,0.006640583444
1488.000000,0.005718852179
1489.000000,0.004626049459
1490.000000,0.004719078262
1491.000000,0.004479173157
1492.000000,0.006225323711
1493.000000,0.004685106823
1494.000000,0.005870664079
1495.000000,0.005420430954
1496.000000,0.006043929278
1497.000000,0.00556292426
1498.000000,0.004849155604
1499.000000,0.004745898279
1500.000000,0.004876645616
1501.000000,0.004893202639
1502.000000,0.00443353165
1503.000000,0.004701717403
1504.000000,0.005661301898
1505.000000,0.003641196244
1506.000000,0.004797697805
1507.000000,0.004074444068
1508.000000,0.004713760559
1509.000000,0.005089613641
1510.000000,0.004534162527
1511.000000,0.0050211202
1512.000000,0.003587362793
1513.000000,0.005201740467
1514.000000,0.004164684434
1515.000000,0.004896894074
1516.000000,0.004628140242
1517.000000,0.00295950057
1518.000000,0.004060608338
1519.000000,0.004649932258
1520.000000,0.005455864833
1521.000000,0.004698059363
1522.000000,0.004686846341
1523.000000,0.003689533418
1524.000000,0.005411879736
1525.000000,0.005650225222
1526.000000,0.004593342326
1527.000000,0.004459658831
1528.000000,0.003635016377
1529.000000,0.005161501056
1530.000000,0.006278671769
1531.000000,0.005107742737
1532.000000,0.005463438605
1533.000000,0.005058043288
1534.000000,0.00417027358
1535.000000,0.005602459058
1536.000000,0.004091658193
1537.000000,0.004748447781
1538.000000,0.005086763156
1539.000000,0.0054975292
1540.000000,0.00526723096
1541.000000,0.005304517351
1542.000000,0.00467231529
1543.000000,0.00441833457
1544.000000,0.005300544128
1545.000000,0.004910356578
1546.000000,0.00463098032
1547.000000,0.004743143264
1548.000000,0.00530440306
1549.000000,0.004586194398
1550.000000,0.005001111814
1551.000000,0.004948389952
1552.000000,0.006173796716
1553.000000,0.006452886789
1554.000000,0.007572279153
1555.000000,0.005633892027
1556.000000,0.006315001145
1557.000000,0.007481547501
1558.000000,0.007031462102
1559.000000,0.007220102033
1560.000000,0.008729920709
1561.000000,0.007814506052
1562.000000,0.007678449792
1563.000000,0.007983609078
1564.000000,0.009434378963
1565.000000,0.009935801093
1566.000000,0.009522567057
1567.000000,0.01044412094
1568.000000,0.01216111303
1569.000000,0.01312728378
1570.000000,0.0135053669
1571.000000,0.01559632652
1572.000000,0.01716889715
1573.000000,0.01770386469
1574.000000,0.02099260847
1575.000000,0.0244148506
1576.000000,0.0275516226
1577.000000,0.0312836984
1578.000000,0.03821193956
1579.000000,0.04587506175
1580.000000,0.05442205204
1581.000000,0.06034319179
1582.000000,0.06986538842
1583.000000,0.07066874911
1584.000000,0.0704670653
1585.000000,0.06565038928
1586.000000,0.05905165252
1587.000000,0.0524012459
1588.000000,0.04669628959
1589.000000,0.04439757869
1590.000000,0.04177465129
1591.000000,0.04038929083
1592.000000,0.04484271988
1593.000000,0.04644772663
1594.000000,0.05192379408
1595.000000,0.0574892308
1596.000000,0.06925728797
1597.000000,0.08378841191
1598.000000,0.1034599461
1599.000000,0.127974658
1600.000000,0.1565609988
1601.000000,0.1830447601
1602.000000,0.1923888086
1603.000000,0.1813516957
1604.000000,0.1557690316
1605.000000,0.1249795789
1606.000000,0.09910576198
1607.000000,0.07843995034
1608.000000,0.0640699797
1609.000000,0.052033051
1610.000000,0.0424579842
1611.000000,0.03653342955
1612.000000,0.03016952253
1613.000000,0.02637758412
1614.000000,0.023892817
1615.000000,0.01998185063
1616.000000,0.01842040795
1617.000000,0.01601999204
1618.000000,0.01540192517
1619.000000,0.01506005139
1620.000000,0.01255538125
1621.000000,0.01222567339
1622.000000,0.0107544329
1623.000000,0.009909880654
1624.000000,0.009250660225
1625.000000,0.0103352083
1626.000000,0.01040723924
1627.000000,0.008853225693
1628.000000,0.007753239887
1629.000000,0.008269463068
1630.000000,0.007337746167
1631.000000,0.007744592262
1632.000000,0.007185853841
1633.000000,0.006950041736
1634.000000,0.006938054296
1635.000000,0.006031894387
1636.000000,0.005961313491
1637.000000,0.005006400016
1638.000000,0.00562710236
1639.000000,0.004898459908
1640.000000,0.005539470774
1641.000000,0.004930942134
1642.000000,0.005457651916
1643.000000,0.005566304676
1644.000000,0.004341983509
1645.000000,0.004617155718
1646.000000,0.004454388351
1647.000000,0.005392514757
1648.000000,0.005895971254
1649.000000,0.00531127579
1650.000000,0.004522253978
1651.000000,0.005552445447
1652.000000,0.003700076286
1653.000000,0.005458851221
1654.000000,0.004108499262
1655.000000,0.002779873844
1656.000000,0.006002539659
1657.000000,0.005311831415
1658.000000,0.003697904078
1659.000000,0.004380415813
1660.000000,0.004110961016
1661.000000,0.004264913245
1662.000000,0.003275305631
1663.000000,0.003724613047
1664.000000,0.004384740332
1665.000000,0.004206566281
1666.000000,0.004765331141
1667.000000,0.004063397909
1668.000000,0.005403024017
1669.000000,0.003532084406
1670.000000,0.004094555202
1671.000000,0.002761079475
1672.000000,0.003137710893
1673.000000,0.004670280805
1674.000000,0.003281871235
1675.000000,0.004148883187
1676.000000,0.003772828932
1677.000000,0.003162488034
1678.000000,0.003563747101
1679.000000,0.003446503403
1680.000000,0.003445987561
1681.000000,0.004177032902
1682.000000,0.00410052217
1683.000000,0.003345109478
1684.000000,0.003132122222
1685.000000,0.003834230832
1686.000000,0.003590479622
1687.000000,0.004256684107
1688.000000,0.005223571022
1689.000000,0.004120127369
1690.000000,0.00357983192
1691.000000,0.003485642386
1692.000000,0.003062275532
1693.000000,0.003021364007
1694.000000,0.002952624175
1695.000000,0.003308548195
1696.000000,0.003279517439
1697.000000,0.00397487035
1698.000000,0.003277557015
1699.000000,0.003389855659
1700.000000,0.002766460169
1701.000000,0.004481541368
1702.000000,0.003788328988
1703.000000,0.004552030359
1704.000000,0.003946927704
1705.000000,0.004356360759
1706.000000,0.003302449827
1707.000000,0.003876586014
1708.000000,0.005066643449
1709.000000,0.002694222951
1710.000000,0.004132364404
1711.000000,0.004439917801
1712.000000,0.0036648236
1713.000000,0.003865778709
1714.000000,0.004169441443
1715.000000,0.002989548536
1716.000000,0.003638658323
1717.000000,0.002847086884
1718.000000,0.002960058542
1719.000000,0.002990632411
1720.000000,0.003277577429
1721.000000,0.003450702491
1722.000000,0.003634308946
1723.000000,0.002477107031
1724.000000,0.004566133396
1725.000000,0.004053778855
1726.000000,0.003784329652
1727.000000,0.003111520001
1728.000000,0.00327286095
1729.000000,0.003661425815
1730.000000,0.003573125697
1731.000000,0.002279110253
1732.000000,0.003768441387
1733.000000,0.005106513093
1734.000000,0.002163668467
1735.000000,0.00391371429
1736.000000,0.00352400634
1737.000000,0.003223634799
1738.000000,0.004136107844
1739.000000,0.002554866034
1740.000000,0.003382744198
1741.000000,0.004183095694
1742.000000,0.00315388452
1743.000000,0.003013922168
1744.000000,0.003340264825
1745.000000,0.002991165285
1746.000000,0.004219934127
1747.000000,0.002699157681
1748.000000,0.003797303374
1749.000000,0.002479774775
1750.000000,0.00366561431
1751.000000,0.003184004743
1752.000000,0.001647630285
1753.000000,0.003239872277
1754.000000,0.002580637951
1755.000000,0.002963412327
1756.000000,0.004188120475
1757.000000,0.002541938691
1758.000000,0.002574821434
1759.000000,0.004120259574
1760.000000,0.003298100412
1761.000000,0.004178156064
1762.000000,0.003422040119
1763.000000,0.002673459094
1764.000000,0.00317635262
1765.000000,0.003976341432
1766.000000,0.003795648226
1767.000000,0.003211623053
1768.000000,0.003239226757
1769.000000,0.003137373555
1770.000000,0.002847032253
1771.000000,0.004398753742
1772.000000,0.003205664623
1773.000000,0.002499186714
1774.000000,0.002902223202
1775.000000,0.003645303428
1776.000000,0.003590976266
1777.000000,0.003107224082
1778.000000,0.002776605055
1779.000000,0.003203470914
1780.000000,0.002151019844
1781.000000,0.002379499475
1782.000000,0.003678236822
1783.000000,0.002885412645
1784.000000,0.003412596011
1785.000000,0.003933093414
1786.000000,0.003579540447
1787.000000,0.00318865618
1788.000000,0.00449171746
1789.000000,0.003586254452
1790.000000,0.002952058108
1791.000000,0.003623232932
1792.000000,0.003421126199
1793.000000,0.002637453862
1794.000000,0.003211060123
1795.000000,0.003062422123
1796.000000,0.001946108154
1797.000000,0.003055188701
1798.000000,0.002985377946
1799.000000,0.002888022337
1800.000000,0.0021399264
1801.000000,0.002937294889
1802.000000,0.003131048934
1803.000000,0.003217500942
1804.000000,0.002450387581
1805.000000,0.003543520189
1806.000000,0.002398495334
1807.000000,0.003011236166
1808.000000,0.003956374824
1809.000000,0.00271896706
1810.000000,0.002830306307
1811.000000,0.003809598475
1812.000000,0.002906590816
1813.000000,0.002959391872
1814.000000,0.003279017034
1815.000000,0.003790380768
1816.000000,0.001776626785
1817.000000,0.002626615202
1818.000000,0.002514997229
1819.000000,0.002466152398
1820.000000,0.002607651063
1821.000000,0.002616469307
1822.000000,0.00332040275
1823.000000,0.002584139373
1824.000000,0.003207989318
1825.000000,0.003379171201
1826.000000,0.002680191168
1827.000000,0.003210282534
1828.000000,0.004138780156
1829.000000,0.003326648631
1830.000000,0.002733939564
1831.000000,0.003086179413
1832.000000,0.002560688219
1833.000000,0.003291418541
1834.000000,0.003655039151
1835.000000,0.002618439134
1836.000000,0.002993329664
1837.000000,0.003806075975
1838.000000,0.002814424599
1839.000000,0.003235453121
1840.000000,0.002489190726
1841.000000,0.002614475479
1842.000000,0.002802370118
1843.000000,0.004427081302
1844.000000,0.002869786432
1845.000000,0.002796269645
1846.000000,0.002775546225
1847.000000,0.003014216594
1848.000000,0.003508135573
1849.000000,0.003226617155
1850.000000,0.004350789573
1851.000000,0.0032398908
1852.000000,0.003981937447
1853.000000,0.003276440907
1854.000000,0.00347378845
1855.000000,0.002239397396
1856.000000,0.003031401909
1857.000000,0.003065755244
1858.000000,0.002960362945
1859.000000,0.00180984237
1860.000000,0.003635599103
1861.000000,0.002871706503
1862.000000,0.002840447191
1863.000000,0.002949969788
1864.000000,0.002965691939
1865.000000,0.003347527964
1866.000000,0.002336604291
1867.000000,0.002540729605
1868.000000,0.003275693855
1869.000000,0.003187803824
1870.000000,0.002872827623
1871.000000,0.00275351656
1872.000000,0.002596127404
1873.000000,0.003062834911
1874.000000,0.003808315445
1875.000000,0.002459891362
1876.000000,0.00401352492
1877.000000,0.003604001802
1878.000000,0.002822642188
1879.000000,0.003566312449
1880.000000,0.002211775357
1881.000000,0.002051325822
1882.000000,0.002316821612
1883.000000,0.002846173624
1884.000000,0.002896466309
1885.000000,0.00278175581
1886.000000,0.003151290507
1887.000000,0.001805456631
1888.000000,0.003388729214
1889.000000,0.002235521195
1890.000000,0.00269170163
1891.000000,0.002840561501
1892.000000,0.002392560627
1893.000000,0.002262798894
1894.000000,0.002482063465
1895.000000,0.003080176444
1896.000000,0.003442131444
1897.000000,0.003426201565
1898.000000,0.002487319987
1899.000000,0.002609066876
1900.000000,0.002530967608
1901.000000,0.003355635688
1902.000000,0.001857746494
1903.000000,0.003829565825
1904.000000,0.002791715922
1905.000000,0.00261146775
1906.000000,0.003287180334
1907.000000,0.003704120088
1908.000000,0.003288284117
1909.000000,0.003715463352
1910.000000,0.003162152281
1911.000000,0.00382120518
1912.000000,0.003830174905
1913.000000,0.003020240798
1914.000000,0.003946262616
1915.000000,0.00317857982
1916.000000,0.003131352096
1917.000000,0.002523888579
1918.000000,0.002904455823
1919.000000,0.003546123731
1920.000000,0.002287315779
1921.000000,0.003468385949
1922.000000,0.00328681436
1923.000000,0.003243692965
1924.000000,0.001747788274
1925.000000,0.003013748177
1926.000000,0.003465869531
1927.000000,0.002615893433
1928.000000,0.003129285749
1929.000000,0.001642831295
1930.000000,0.003478490361
1931.000000,0.002675118286
1932.000000,0.003598244335
1933.000000,0.001963834419
1934.000000,0.003489793088
1935.000000,0.002930038849
1936.000000,0.003558615862
1937.000000,0.002514740629
1938.000000,0.002699424628
1939.000000,0.004421581735
1940.000000,0.00257149237
1941.000000,0.0026458079
1942.000000,0.002904069261
1943.000000,0.002454650679
1944.000000,0.003786744697
1945.000000,0.004108296878
1946.000000,0.002645521027
1947.000000,0.002029971416
1948.000000,0.00377448622
1949.000000,0.003735925002
1950.000000,0.003563018038
1951.000000,0.003764347867
1952.000000,0.002545471553
1953.000000,0.002966064082
1954.000000,0.002233916635
1955.000000,0.002213148979
1956.000000,0.003657402395
1957.000000,0.002661916164
1958.000000,0.004438647143
1959.000000,0.003110597105
1960.000000,0.002680101754
1961.000000,0.003545806447
1962.000000,0.004149654464
1963.000000,0.003357607797
1964.000000,0.002331873988
1965.000000,0.003287798473
1966.000000,0.003892387161
1967.000000,0.002766978858
1968.000000,0.002597917763
1969.000000,0.003675431788
1970.000000,0.003147494811
1971.000000,0.002399185304
1972.000000,0.002834122171
1973.000000,0.002607563292
1974.000000,0.003240665069
1975.000000,0.0031280998
1976.000000,0.003754480584
1977.000000,0.003488874515
1978.000000,0.002120032965
1979.000000,0.003306197159
1980.000000,0.003600953517
1981.000000,0.003335190533
1982.000000,0.003680667217
1983.000000,0.002729404138
1984.000000,0.002487606881
1985.000000,0.003619821402
1986.000000,0.002418164469
1987.000000,0.001759249046
1988.000000,0.003676524018
1989.000000,0.002623009799
1990.000000,0.0028745387
1991.000000,0.002216929268
1992.000000,0.002260346436
1993.000000,0.00236185657
1994.000000,0.002840863969
1995.000000,0.003280563755
1996.000000,0.001674166133
1997.000000,0.003510262975
1998.000000,0.002345567498
1999.000000,0.002415024181
2000.000000,0.003464935999
