raman_shift_cm-1,intensity
200.000000,0.002549694652
201.000000,0.003179502801
202.000000,0.002035821842
203.000000,0.003428510675
204.000000,0.00372207289
205.000000,0.00276094706
206.000000,0.003292840749
207.000000,0.003184777644
208.000000,0.002796238554
209.000000,0.002514433736
210.000000,0.001809808424
211.000000,0.003883333979
212.000000,0.003005323175
213.000000,0.004553094968
214.000000,0.003531722574
215.000000,0.00320151004
216.000000,0.002638371988
217.000000,0.003872951214
218.000000,0.002729539481
219.000000,0.003979980974
220.000000,0.002794683859
221.000000,0.003146648874
222.000000,0.002117742721
223.000000,0.004445971328
224.000000,0.00297826255
225.000000,0.002803037375
226.000000,0.003523354636
227.000000,0.002498307795
228.000000,0.003497468098
229.000000,0.002329918083
230.000000,0.003363709205
231.000000,0.0024066264
232.000000,0.001929173885
233.000000,0.002678003289
234.000000,0.002154056727
235.000000,0.003368946283
236.000000,0.003048878628
237.000000,0.003342711763
238.000000,0.003090975876
239.000000,0.002822969372
240.000000,0.003053096084
241.000000,0.003670077082
242.000000,0.002926036344
243.000000,0.002577481135
244.000000,0.002452390189
245.000000,0.002903047392
246.000000,0.002585149022
247.000000,0.004169317765
248.000000,0.002327071722
249.000000,0.00238555394
250.000000,0.002852794141
251.000000,0.003428555567
252.000000,0.002875732163
253.000000,0.002460398928
254.000000,0.002551429965
255.000000,0.002826201593
256.000000,0.003623735296
257.000000,0.002448673263
258.000000,0.002982733195
259.000000,0.002668628075
260.000000,0.003233414665
261.000000,0.003277179653
262.000000,0.002155696708
263.000000,0.004475637737
264.000000,0.003152483443
265.000000,0.002731661509
266.000000,0.002500106637
267.000000,0.002882305801
268.000000,0.003057849205
269.000000,0.00339720801
270.000000,0.003042271853
271.000000,0.003330434262
272.000000,0.002069530534
273.000000,0.002586082632
274.000000,0.002433114424
275.000000,0.00313851278
276.000000,0.003315317242
277.000000,0.002156684014
278.000000,0.002938575269
279.000000,0.003476704604
280.000000,0.00359100361
281.000000,0.002368305751
282.000000,0.003379140764
283.000000,0.003244022734
284.000000,0.002777824256
285.000000,0.004222647758
286.000000,0.002366847992
287.000000,0.00287364033
288.000000,0.003314686112
289.000000,0.003187318282
290.000000,0.002937894129
291.000000,0.003870336499
292.000000,0.003911677634
293.000000,0.003591004038
294.000000,0.003644702599
295.000000,0.003008520371
296.000000,0.002340248153
297.000000,0.004359381921
298.000000,0.002465313699
299.000000,0.004384611396
300.000000,0.002965656199
301.000000,0.003181929543
302.000000,0.002940580751
303.000000,0.003619578002
304.000000,0.002736720874
305.000000,0.00415285421
306.000000,0.0033651623
307.000000,0.003148246208
308.000000,0.002699897881
309.000000,0.003212298251
310.000000,0.003041516941
311.000000,0.004187826281
312.000000,0.003607492196
313.000000,0.002104405847
314.000000,0.003964871525
315.000000,0.001614949367
316.000000,0.003972214047
317.000000,0.001908631903
318.000000,0.003045020109
319.000000,0.003533919589
320.000000,0.003040184529
321.000000,0.002383696179
322.000000,0.003787834964
323.000000,0.001973561846
324.000000,0.002166048818
325.000000,0.003878988428
326.000000,0.002524817331
327.000000,0.003194401607
328.000000,0.003533732746
329.000000,0.002982036695
330.000000,0.003212831284
331.000000,0.003119121521
332.000000,0.003175589939
333.000000,0.003761657216
334.000000,0.003609552919
335.000000,0.003241909004
336.000000,0.003599785877
337.000000,0.002721157445
338.000000,0.002587287148
339.000000,0.002444499904
340.000000,0.003520143986
341.000000,0.004026543371
342.000000,0.003099442618
343.000000,0.001856848788
344.000000,0.002742240842
345.000000,0.003330610512
346.000000,0.003227817231
347.000000,0.003105556641
348.000000,0.003644787313
349.000000,0.00360751868
350.000000,0.00224220476
351.000000,0.003311624045
352.000000,0.002604594684
353.000000,0.00319042673
354.000000,0.003799519182
355.000000,0.004153489813
356.000000,0.003472333906
357.000000,0.002746470139
358.000000,0.002839624488
359.000000,0.003372389275
360.000000,0.002456589733
361.000000,0.00301100886
362.000000,0.003416263869
363.000000,0.003605305502
364.000000,0.002873465495
365.000000,0.003275270963
366.000000,0.003873330194
367.000000,0.003236822851
368.000000,0.002019556675
369.000000,0.003182492394
370.000000,0.003205054368
371.000000,0.002800060179
372.000000,0.003079961873
373.000000,0.002165229206
374.000000,0.003804958104
375.000000,0.00330862815
376.000000,0.002727658045
377.000000,0.003197108671
378.000000,0.003135228052
379.000000,0.002535538265
380.000000,0.001449675389
381.000000,0.001341360215
382.000000,0.00427400379
383.000000,0.002382638356
384.000000,0.002879604407
385.000000,0.003401355066
386.000000,0.002839544115
387.000000,0.00377534462
388.000000,0.002486616511
389.000000,0.003397178814
390.000000,0.001801552233
391.000000,0.003489193432
392.000000,0.003473153217
393.000000,0.003280266093
394.000000,0.003240927562
395.000000,0.00322140103
396.000000,0.00358050172
397.000000,0.003640013175
398.000000,0.002491953478
399.000000,0.003697833577
400.000000,0.002490622905
401.000000,0.003160708796
402.000000,0.002909689064
403.000000,0.003351593331
404.000000,0.002862580629
405.000000,0.003306632261
406.000000,0.002774741816
407.000000,0.002486056496
408.000000,0.003706812493
409.000000,0.003408895974
410.000000,0.003373935993
411.000000,0.003640796568
412.000000,0.002426896377
413.000000,0.003616134643
414.000000,0.002429490931
415.000000,0.003295436221
416.000000,0.002958831706
417.000000,0.003230559246
418.000000,0.003487201759
419.000000,0.003080447389
420.000000,0.00251354055
421.000000,0.003628225294
422.000000,0.0037776296
423.000000,0.003481747005
424.000000,0.003693853473
425.000000,0.002008126509
426.000000,0.003113743387
427.000000,0.00300200535
428.000000,0.001894265609
429.000000,0.003137036305
430.000000,0.003073974478
431.000000,0.002165229725
432.000000,0.002566996262
433.000000,0.003124529391
434.000000,0.003436193375
435.000000,0.003500313505
436.000000,0.002408970016
437.000000,0.002426561973
438.000000,0.002771184234
439.000000,0.003046016476
440.000000,0.002730254219
441.000000,0.002961483096
442.000000,0.003504987495
443.000000,0.003490277509
444.000000,0.003161767864
445.000000,0.002391818423
446.000000,0.00278394789
447.000000,0.003419717757
448.000000,0.003604797056
449.000000,0.003721021854
450.000000,0.002442816295
451.000000,0.00280282712
452.000000,0.002354298599
453.000000,0.001312195282
454.000000,0.00242659064
455.000000,0.002018311968
456.000000,0.003924812536
457.000000,0.003371631474
458.000000,0.002700504131
459.000000,0.003128025569
460.000000,0.003338351347
461.000000,0.004143596413
462.000000,0.003558168606
463.000000,0.004010280271
464.000000,0.003385041255
465.000000,0.003878094185
466.000000,0.003964109383
467.000000,0.003656777352
468.000000,0.003116351522
469.000000,0.003757314398
470.000000,0.002861959008
471.000000,0.003959949505
472.000000,0.002935819133
473.000000,0.00269191166
474.000000,0.0042376243
475.000000,0.002856182215
476.000000,0.003202873899
477.000000,0.002464967579
478.000000,0.002685103393
479.000000,0.002903038444
480.000000,0.002512823015
481.000000,0.003844510381
482.000000,0.00267410969
483.000000,0.002355074394
484.000000,0.0037836372
485.000000,0.003539590843
486.000000,0.001713970267
487.000000,0.002772874756
488.000000,0.003716221483
489.000000,0.002655185607
490.000000,0.002951688425
491.000000,0.002976056309
492.000000,0.001762102313
493.000000,0.002588797717
494.000000,0.003588138424
495.000000,0.003999662478
496.000000,0.003083306587
497.000000,0.003067236097
498.000000,0.003467730097
499.000000,0.003236796432
500.000000,0.003444940237
501.000000,0.002613326846
502.000000,0.003155593573
503.000000,0.003447685019
504.000000,0.003504535493
505.000000,0.002209115166
506.000000,0.003643302954
507.000000,0.00322011738
508.000000,0.003246081048
509.000000,0.002088163596
510.000000,0.003179499253
511.000000,0.002205860122
512.000000,0.001639922171
513.000000,0.003219512344
514.000000,0.003162244039
515.000000,0.003202201036
516.000000,0.003276427386
517.000000,0.003173303956
518.000000,0.003839018966
519.000000,0.003667786871
520.000000,0.004162503565
521.000000,0.004708758287
522.000000,0.003656879691
523.000000,0.003677218407
524.000000,0.0043431862
525.000000,0.002677287741
526.000000,0.003010586862
527.000000,0.003363849214
528.000000,0.002275528497
529.000000,0.003798226601
530.000000,0.004170569527
531.000000,0.002464291994
532.000000,0.002735018433
533.000000,0.003770691767
534.000000,0.004044983652
535.000000,0.002234369997
536.000000,0.003560524974
537.000000,0.003110906572
538.000000,0.002123708757
539.000000,0.002983573739
540.000000,0.002898072851
541.000000,0.0033073213
542.000000,0.003269231263
543.000000,0.00308502629
544.000000,0.003174128768
545.000000,0.003164926956
546.000000,0.003573383493
547.000000,0.003851093824
548.000000,0.003853330831
549.000000,0.00274356999
550.000000,0.002809006911
551.000000,0.002888431783
552.000000,0.004155783393
553.000000,0.003594365548
554.000000,0.002852057112
555.000000,0.002624613434
556.000000,0.002723807887
557.000000,0.003356188549
558.000000,0.002683289598
559.000000,0.003353104985
560.000000,0.004179468098
561.000000,0.003224064844
562.000000,0.003904276
563.000000,0.00248496375
564.000000,0.003628129823
565.000000,0.003601999133
566.000000,0.002884334509
567.000000,0.004285183283
568.000000,0.003465967485
569.000000,0.003071292744
570.000000,0.003326278074
571.000000,0.004094957905
572.000000,0.002713415694
573.000000,0.003650731118
574.000000,0.003003718287
575.000000,0.003742606615
576.000000,0.003312257037
577.000000,0.003612872981
578.000000,0.004143564585
579.000000,0.003741438469
580.000000,0.00408087688
581.000000,0.004204573008
582.000000,0.004066648994
583.000000,0.003998586601
584.000000,0.00393222281
585.000000,0.004338459234
586.000000,0.004732005363
587.000000,0.005172517813
588.000000,0.005185443322
589.000000,0.003595223713
590.000000,0.004444717471
591.000000,0.004644515284
592.000000,0.005172785587
593.000000,0.005181784137
594.000000,0.00379086946
595.000000,0.004944167171
596.000000,0.003888205229
597.000000,0.004790506166
598.000000,0.004696843053
599.000000,0.005089706105
600.000000,0.006643536862
601.000000,0.00563161169
602.000000,0.005967141713
603.000000,0.006703746379
604.000000,0.007699147025
605.000000,0.006531586837
606.000000,0.009136222245
607.000000,0.008421472779
608.000000,0.009165986404
609.000000,0.01093012324
610.000000,0.01261583621
611.000000,0.01555407937
612.000000,0.01665154323
613.000000,0.01857585042
614.000000,0.02247212961
615.000000,0.02676299895
616.000000,0.03375680105
617.000000,0.04110675569
618.000000,0.04814394024
619.000000,0.05541715545
620.000000,0.05626859952
621.000000,0.05444694124
622.000000,0.04778892375
623.000000,0.04025388523
624.000000,0.03237803014
625.000000,0.02791722533
626.000000,0.02202464126
627.000000,0.01885640884
628.000000,0.01682794585
629.000000,0.01489754551
630.000000,0.01292824733
631.000000,0.00951466886
632.000000,0.009589165465
633.000000,0.008678376471
634.000000,0.007754117786
635.000000,0.007093927684
636.000000,0.006732075057
637.000000,0.006996513077
638.000000,0.006003515485
639.000000,0.005161839199
640.000000,0.004755071775
641.000000,0.005562674956
642.000000,0.004234938751
643.000000,0.005519693012
644.000000,0.0046411685
645.000000,0.004496924979
646.000000,0.004816690492
647.000000,0.00435094275
648.000000,0.004897489864
649.000000,0.003604879597
650.000000,0.003204334621
651.000000,0.005412575481
652.000000,0.004263807888
653.000000,0.002543021535
654.000000,0.005071510714
655.000000,0.003141045306
656.000000,0.005190243907
657.000000,0.005004155453
658.000000,0.004400221279
659.000000,0.003834385115
660.000000,0.0032720936
661.000000,0.004345209526
662.000000,0.003498258947
663.000000,0.004370107982
664.000000,0.003519559473
665.000000,0.002712382744
666.000000,0.003219781037
667.000000,0.003661293308
668.000000,0.003308184727
669.000000,0.003673033649
670.000000,0.003013388265
671.000000,0.004534167964
672.000000,0.003226165411
673.000000,0.003845491045
674.000000,0.002505663895
675.000000,0.004008416049
676.000000,0.004432383267
677.000000,0.003851406185
678.000000,0.003330016573
679.000000,0.00290739657
680.000000,0.003827834904
681.000000,0.00380422308
682.000000,0.002657706841
683.000000,0.003449276192
684.000000,0.003761138125
685.000000,0.002955253509
686.000000,0.003788809389
687.000000,0.003252695877
688.000000,0.00428996382
689.000000,0.002637804406
690.000000,0.003718957882
691.000000,0.003470190259
692.000000,0.002259685604
693.000000,0.002828147249
694.000000,0.00286987133
695.000000,0.00394789897
696.000000,0.003165069574
697.000000,0.0033745138
698.000000,0.003467344732
699.000000,0.004936307386
700.000000,0.003229220428
701.000000,0.004542314204
702.000000,0.003257812757
703.000000,0.002415560317
704.000000,0.002875045806
705.000000,0.002615890228
706.000000,0.003143171172
707.000000,0.002482603874
708.000000,0.002814313844
709.000000,0.004523287886
710.000000,0.003513076497
711.000000,0.003571394922
712.000000,0.004469375227
713.000000,0.002373480379
714.000000,0.003715328829
715.000000,0.003090084725
716.000000,0.003357651739
717.000000,0.002966837115
718.000000,0.003453821252
719.000000,0.00413110668
720.000000,0.004115652418
721.000000,0.003541390317
722.000000,0.003892004958
723.000000,0.002678585659
724.000000,0.001637097354
725.000000,0.004037782098
726.000000,0.004641205435
727.000000,0.003701033162
728.000000,0.003052088129
729.000000,0.003459361348
730.000000,0.00417423752
731.000000,0.00273785993
732.000000,0.003494543627
733.000000,0.003828694815
734.000000,0.002845392753
735.000000,0.004738162428
736.000000,0.003975645281
737.000000,0.004496963124
738.000000,0.002852348824
739.000000,0.003645618269
740.000000,0.004451456539
741.000000,0.003810308924
742.000000,0.004313309381
743.000000,0.002447842334
744.000000,0.003526667134
745.000000,0.002390040569
746.000000,0.003309664341
747.000000,0.003804728896
748.000000,0.003580571747
749.000000,0.002908124303
750.000000,0.003870010985
751.000000,0.004108342065
752.000000,0.00367974613
753.000000,0.004255037411
754.000000,0.004482991387
755.000000,0.004573753316
756.000000,0.003653806997
757.000000,0.004204858956
758.000000,0.003547928958
759.000000,0.003921991749
760.000000,0.004666469929
761.000000,0.004004833939
762.000000,0.003849966012
763.000000,0.003823249805
764.000000,0.004558267703
765.000000,0.005289969526
766.000000,0.004952718107
767.000000,0.004345614528
768.000000,0.005058828861
769.000000,0.005254337166
770.000000,0.00568211445
771.000000,0.004523063459
772.000000,0.005461349337
773.000000,0.005002235933
774.000000,0.005104372911
775.000000,0.006401871564
776.000000,0.006219394932
777.000000,0.006216739297
778.000000,0.007314800001
779.000000,0.006973164951
780.000000,0.006781468125
781.000000,0.008380894713
782.000000,0.007891028411
783.000000,0.008660195517
784.000000,0.009815231251
785.000000,0.01103795967
786.000000,0.01296872943
787.000000,0.0137891343
788.000000,0.01482079673
789.000000,0.01787730384
790.000000,0.0211235622
791.000000,0.02393799809
792.000000,0.02718093151
793.000000,0.0295314124
794.000000,0.03222900039
795.000000,0.03362638146
796.000000,0.03282357174
797.000000,0.0297658265
798.000000,0.02682069114
799.000000,0.02343120423
800.000000,0.02150261115
801.000000,0.01777491722
802.000000,0.01575987067
803.000000,0.01351576747
804.000000,0.01188939937
805.000000,0.01106521091
806.000000,0.01061869916
807.000000,0.00885070389
808.000000,0.009168243209
809.000000,0.007815087873
810.000000,0.007765580202
811.000000,0.008382998233
812.000000,0.007880363015
813.000000,0.006365020139
814.000000,0.005959185817
815.000000,0.005577779628
816.000000,0.005884135149
817.000000,0.004142399656
818.000000,0.004679984062
819.000000,0.004875641636
820.000000,0.004367266233
821.000000,0.004112203881
822.000000,0.005387286796
823.000000,0.003633740982
824.000000,0.004168068696
825.000000,0.004001325139
826.000000,0.003999132188
827.000000,0.003587556207
828.000000,0.004619032764
829.000000,0.00403748475
830.000000,0.005107721424
831.000000,0.003192399601
832.000000,0.004047089315
833.000000,0.003164644838
834.000000,0.004039232416
835.000000,0.004571506784
836.000000,0.003151516967
837.000000,0.004407523206
838.000000,0.003294606711
839.000000,0.003072422704
840.000000,0.003936719923
841.000000,0.004169011033
842.000000,0.003780652335
843.000000,0.003870378253
844.000000,0.003645892906
845.000000,0.003344345848
846.000000,0.002341185172
847.000000,0.003400522722
848.000000,0.003186105612
849.000000,0.00392960237
850.000000,0.003088664323
851.000000,0.004789600139
852.000000,0.003940606014
853.000000,0.00330441781
854.000000,0.003945547019
855.000000,0.003393172484
856.000000,0.004311033626
857.000000,0.003274520429
858.000000,0.004388389525
859.000000,0.002875315895
860.000000,0.003576849062
861.000000,0.00346877065
862.000000,0.0029626337
863.000000,0.003305398157
864.000000,0.003503108327
865.000000,0.002776093977
866.000000,0.002975491233
867.000000,0.003780513925
868.000000,0.003021521389
869.000000,0.004435875842
870.000000,0.004432399966
871.000000,0.003194512788
872.000000,0.003691383394
873.000000,0.003796097787
874.000000,0.003908139664
875.000000,0.00315147282
876.000000,0.003921223688
877.000000,0.003152243798
878.000000,0.003413440547
879.000000,0.00422307191
880.000000,0.003422895909
881.000000,0.002892790835
882.000000,0.003128843052
883.000000,0.003668535561
884.000000,0.003017138491
885.000000,0.002892021267
886.000000,0.003569726252
887.000000,0.002912133005
888.000000,0.00474810285
889.000000,0.003082314757
890.000000,0.003903614924
891.000000,0.002609553624
892.000000,0.003292108699
893.000000,0.003991691855
894.000000,0.003823855722
895.000000,0.003891126508
896.000000,0.003161730521
897.000000,0.003628127469
898.000000,0.003396405605
899.000000,0.002671429364
900.000000,0.004213970097
901.000000,0.003121487201
902.000000,0.00339492979
903.000000,0.004058201488
904.000000,0.003943841303
905.000000,0.005117238031
906.000000,0.003516425422
907.000000,0.004435550919
908.000000,0.003510266449
909.000000,0.003600878993
910.000000,0.004240021969
911.000000,0.003999270549
912.000000,0.003304904833
913.000000,0.003565141938
914.000000,0.003733904146
915.000000,0.004652466063
916.000000,0.00318540993
917.000000,0.003792284929
918.000000,0.004031864545
919.000000,0.003760030187
920.000000,0.00338277955
921.000000,0.004202880833
922.000000,0.003153167274
923.000000,0.004893007387
924.000000,0.002157360023
925.000000,0.002580739241
926.000000,0.003864265555
927.000000,0.004169141772
928.000000,0.004077221838
929.000000,0.0034601266
930.000000,0.003742965799
931.000000,0.003863529348
932.000000,0.003336344043
933.000000,0.003661046214
934.000000,0.003337208093
935.000000,0.0046303808
936.000000,0.004205150256
937.000000,0.003715207741
938.000000,0.00377527696
939.000000,0.00375215396
940.000000,0.003863665764
941.000000,0.004244462462
942.000000,0.003896142297
943.000000,0.003835887656
944.000000,0.00440513718
945.000000,0.004110037371
946.000000,0.004246032705
947.000000,0.004329414027
948.000000,0.004213100656
949.000000,0.003691450173
950.000000,0.004263064227
951.000000,0.005183511065
952.000000,0.003994810833
953.000000,0.004066765911
954.000000,0.004364867115
955.000000,0.004447699107
956.000000,0.005577030266
957.000000,0.004629322419
958.000000,0.005581085197
959.000000,0.005441678161
960.000000,0.005482702834
961.000000,0.005517961934
962.000000,0.005444604563
963.000000,0.005651248328
964.000000,0.006179341182
965.000000,0.004339724859
966.000000,0.005914125847
967.000000,0.006541726441
968.000000,0.005598415885
969.000000,0.006133316334
970.000000,0.006860651312
971.000000,0.005485634013
972.000000,0.006943419158
973.000000,0.00635014296
974.000000,0.007419106763
975.000000,0.007805180977
976.000000,0.008063039934
977.000000,0.007683073709
978.000000,0.008722350258
979.000000,0.008817339963
980.000000,0.009931223986
981.000000,0.01014869392
982.000000,0.01059054328
983.000000,0.01250510798
984.000000,0.01218961943
985.000000,0.01378241131
986.000000,0.01612973056
987.000000,0.01736743898
988.000000,0.01971617017
989.000000,0.02111801014
990.000000,0.02500004065
991.000000,0.02842743297
992.000000,0.03318981259
993.000000,0.04167382856
994.000000,0.0503601976
995.000000,0.06460949324
996.000000,0.08352003235
997.000000,0.1131947732
998.000000,0.1554450489
999.000000,0.2124822472
1000.000000,0.2751162225
1001.000000,0.3043460875
1002.000000,0.2756698963
1003.000000,0.2134018558
1004.000000,0.1553379782
1005.000000,0.1142087926
1006.000000,0.08522369339
1007.000000,0.06599509761
1008.000000,0.05234673044
1009.000000,0.04247380349
1010.000000,0.03670336446
1011.000000,0.03227040105
1012.000000,0.02886971969
1013.000000,0.02556810784
1014.000000,0.02275031711
1015.000000,0.02193623509
1016.000000,0.02134850649
1017.000000,0.02014557379
1018.000000,0.02056137662
1019.000000,0.02081092494
1020.000000,0.02161005368
1021.000000,0.02295785772
1022.000000,0.02597378866
1023.000000,0.0292927167
1024.000000,0.03422519988
1025.000000,0.03973557418
1026.000000,0.04905866392
1027.000000,0.06091044725
1028.000000,0.07990573777
1029.000000,0.1027394478
1030.000000,0.1228026163
1031.000000,0.1329116273
1032.000000,0.1225666743
1033.000000,0.1014404795
1034.000000,0.07897896207
1035.000000,0.05946227778
1036.000000,0.0464149751
1037.000000,0.03690784604
1038.000000,0.03031138207
1039.000000,0.02614903244
1040.000000,0.02158830768
1041.000000,0.0187470454
1042.000000,0.01652734328
1043.000000,0.01423529508
1044.000000,0.01384543289
1045.000000,0.01233270903
1046.000000,0.01152730408
1047.000000,0.01040001879
1048.000000,0.008732989528
1049.000000,0.009301091504
1050.000000,0.008096050229
1051.000000,0.007491740086
1052.000000,0.00928706928
1053.000000,0.007885440826
1054.000000,0.006785652073
1055.000000,0.007276485906
1056.000000,0.007210809726
1057.000000,0.006471394909
1058.000000,0.005906071622
1059.000000,0.006571864696
1060.000000,0.006282984943
1061.000000,0.006100196712
1062.000000,0.004546746895
1063.000000,0.005706176793
1064.000000,0.006579094752
1065.000000,0.00457836242
1066.000000,0.004898454366
1067.000000,0.004582801931
1068.000000,0.004677694689
1069.000000,0.004821430683
1070.000000,0.00607106782
1071.000000,0.004602106892
1072.000000,0.005700898048
1073.000000,0.004101279311
1074.000000,0.005012432
1075.000000,0.004551482435
1076.000000,0.004286266594
1077.000000,0.004673113193
1078.000000,0.005279386913
1079.000000,0.004673503292
1080.000000,0.004804096228
1081.000000,0.004424638163
1082.000000,0.004641673382
1083.000000,0.004572318797
1084.000000,0.004802821541
1085.000000,0.004206495062
1086.000000,0.003901699685
1087.000000,0.003960869815
1088.000000,0.003932420707
1089.000000,0.004541770826
1090.000000,0.003714582335
1091.000000,0.004627936879
1092.000000,0.004326779882
1093.000000,0.004936916526
1094.000000,0.004289861744
1095.000000,0.004808585171
1096.000000,0.004414920602
1097.000000,0.004259329647
1098.000000,0.003960342553
1099.000000,0.004427726869
1100.000000,0.00419723599
1101.000000,0.003762052004
1102.000000,0.003844204362
1103.000000,0.002971019674
1104.000000,0.004855355599
1105.000000,0.004849509519
1106.000000,0.00387593113
1107.000000,0.003404772442
1108.000000,0.004593401198
1109.000000,0.004873117789
1110.000000,0.004194232646
1111.000000,0.003825980907
1112.000000,0.005017524418
1113.000000,0.004806146216
1114.000000,0.00491528783
1115.000000,0.005466095419
1116.000000,0.004327448823
1117.000000,0.004481523589
1118.000000,0.005637070741
1119.000000,0.004967662928
1120.000000,0.005999431887
1121.000000,0.002969189478
1122.000000,0.003668845443
1123.000000,0.005005936622
1124.000000,0.004994965723
1125.000000,0.004087267885
1126.000000,0.00428823163
1127.000000,0.004406764873
1128.000000,0.005413530188
1129.000000,0.004272061478
1130.000000,0.005159389285
1131.000000,0.004917959374
1132.000000,0.00371296031
1133.000000,0.005871489184
1134.000000,0.007019123894
1135.000000,0.006001842323
1136.000000,0.006842652566
1137.000000,0.00670883372
1138.000000,0.006910286235
1139.000000,0.006424220281
1140.000000,0.007800607093
1141.000000,0.007253249436
1142.000000,0.008775836389
1143.000000,0.01005673176
1144.000000,0.01107701613
1145.000000,0.011718426
1146.000000,0.01364679167
1147.000000,0.01503873332
1148.000000,0.01856055691
1149.000000,0.02047060952
1150.000000,0.02667625473
1151.000000,0.03018540158
1152.000000,0.03497438922
1153.000000,0.04150537974
1154.000000,0.04410833887
1155.000000,0.04709812343
1156.000000,0.0444095755
1157.000000,0.04070394798
1158.000000,0.03507722773
1159.000000,0.02974510106
1160.000000,0.02533185205
1161.000000,0.02211268466
1162.000000,0.01891184433
1163.000000,0.01796298808
1164.000000,0.0151752745
1165.000000,0.0121977966
1166.000000,0.01238241544
1167.000000,0.01195253137
1168.000000,0.0118340543
1169.000000,0.01174278405
1170.000000,0.01051281258
1171.000000,0.0115406279
1172.000000,0.01122593397
1173.000000,0.01235620893
1174.000000,0.01298200828
1175.000000,0.01511124697
1176.000000,0.01662997777
1177.000000,0.01919358931
1178.000000,0.02078568095
1179.000000,0.02480768933
1180.000000,0.02983816193
1181.000000,0.03451153345
1182.000000,0.03862143753
1183.000000,0.04091570919
1184.000000,0.04015152547
1185.000000,0.03468047644
1186.000000,0.03020077883
1187.000000,0.02349455607
1188.000000,0.02150047895
1189.000000,0.01839546835
1190.000000,0.01468455784
1191.000000,0.01234583369
1192.000000,0.01152112436
1193.000000,0.008961037127
1194.000000,0.009207205268
1195.000000,0.007205813721
1196.000000,0.00860752478
1197.000000,0.007112522851
1198.000000,0.006256492767
1199.000000,0.005079303629
1200.000000,0.006917888747
1201.000000,0.00584331213
1202.000000,0.005230561114
1203.000000,0.00608374248
1204.000000,0.004379376935
1205.000000,0.00570060452
1206.000000,0.005704867927
1207.000000,0.004634432342
1208.000000,0.005416720527
1209.000000,0.005621676445
1210.000000,0.004069280586
1211.000000,0.004020411971
1212.000000,0.004870219144
1213.000000,0.004769431364
1214.000000,0.003783576509
1215.000000,0.002311297552
1216.000000,0.00321523121
1217.000000,0.004842777069
1218.000000,0.00375704826
1219.000000,0.003449979019
1220.000000,0.004205306069
1221.000000,0.002882711149
1222.000000,0.005256361932
1223.000000,0.00271262335
1224.000000,0.003735598667
1225.000000,0.004056747771
1226.000000,0.004174271989
1227.000000,0.003108933797
1228.000000,0.0035503743
1229.000000,0.004360655027
1230.000000,0.003797533045
1231.000000,0.004109777625
1232.000000,0.003777592675
1233.000000,0.003786239305
1234.000000,0.00313274521
1235.000000,0.002924519034
1236.000000,0.003457807587
1237.000000,0.002933816857
1238.000000,0.004461076744
1239.000000,0.004019781095
1240.000000,0.004320718302
1241.000000,0.002664659383
1242.000000,0.002765727784
1243.000000,0.003936565795
1244.000000,0.003631346286
1245.000000,0.003662378364
1246.000000,0.004100936548
1247.000000,0.002899606035
1248.000000,0.002732914469
1249.000000,0.00297391435
1250.000000,0.004741484438
1251.000000,0.003440734805
1252.000000,0.002993369982
1253.000000,0.004330455993
1254.000000,0.003989465446
1255.000000,0.003970783338
1256.000000,0.00381508765
1257.000000,0.003304031676
1258.000000,0.004494864638
1259.000000,0.003928619819
1260.000000,0.002704825317
1261.000000,0.002734094133
1262.000000,0.003021743403
1263.000000,0.003924551764
1264.000000,0.003033902642
1265.000000,0.003241025152
1266.000000,0.003120803045
1267.000000,0.00343943844
1268.000000,0.004135732887
1269.000000,0.003130392289
1270.000000,0.003399063175
1271.000000,0.004422383519
1272.000000,0.0024636491
1273.000000,0.003580391611
1274.000000,0.003504716576
1275.000000,0.00334312594
1276.000000,0.003996066185
1277.000000,0.004699889802
1278.000000,0.003389880724
1279.000000,0.003357845053
1280.000000,0.00376866506
1281.000000,0.002675424552
1282.000000,0.003167038675
1283.000000,0.003566336756
1284.000000,0.003510324469
1285.000000,0.002936619979
1286.000000,0.004036552794
1287.000000,0.002692425086
1288.000000,0.002955409677
1289.000000,0.002768594095
1290.000000,0.003606111853
1291.000000,0.003860386764
1292.000000,0.003311300202
1293.000000,0.004068549217
1294.000000,0.003125433146
1295.000000,0.003429572568
1296.000000,0.003504922226
1297.000000,0.003353355997
1298.000000,0.003480513291
1299.000000,0.002762409836
1300.000000,0.002119111884
1301.000000,0.003045421393
1302.000000,0.003147640005
1303.000000,0.003231640311
1304.000000,0.002748569157
1305.000000,0.002623268186
1306.000000,0.004583690185
1307.000000,0.00382707951
1308.000000,0.003578683575
1309.000000,0.003478943123
1310.000000,0.002997907388
1311.000000,0.003298333807
1312.000000,0.004067597614
1313.000000,0.003986589631
1314.000000,0.003045151998
1315.000000,0.003095053516
1316.000000,0.003073505917
1317.000000,0.002966777597
1318.000000,0.003942402029
1319.000000,0.003782076752
1320.000000,0.003586536616
1321.000000,0.003038053463
1322.000000,0.004155374834
1323.000000,0.003417703476
1324.000000,0.001901201443
1325.000000,0.004167836161
1326.000000,0.003547340479
1327.000000,0.003056013729
1328.000000,0.00420084211
1329.000000,0.002007668903
1330.000000,0.003024304995
1331.000000,0.003831177007
1332.000000,0.002993586216
1333.000000,0.004651974427
1334.000000,0.004623217218
1335.000000,0.003608225151
1336.000000,0.003576893546
1337.000000,0.004483651981
1338.000000,0.003830302283
1339.000000,0.00283048205
1340.000000,0.003311387043
1341.000000,0.002941990036
1342.000000,0.003841512271
1343.000000,0.003586274773
1344.000000,0.004330235509
1345.000000,0.003648062348
1346.000000,0.003037154297
1347.000000,0.002830995366
1348.000000,0.004418081353
1349.000000,0.004283262603
1350.000000,0.003017932469
1351.000000,0.002638680701
1352.000000,0.002587395957
1353.000000,0.004138075682
1354.000000,0.003323389457
1355.000000,0.004645457145
1356.000000,0.00331548343
1357.000000,0.003395701401
1358.000000,0.003431567103
1359.000000,0.003962546306
1360.000000,0.00465082183
1361.000000,0.003043411424
1362.000000,0.004096963152
1363.000000,0.004476753924
1364.000000,0.003553711556
1365.000000,0.003423302735
1366.000000,0.004329601745
1367.000000,0.003318695361
1368.000000,0.003526331077
1369.000000,0.003136914677
1370.000000,0.003408363198
1371.000000,0.003897827384
1372.000000,0.003970480635
1373.000000,0.003627421978
1374.000000,0.003828697168
1375.000000,0.003004190105
1376.000000,0.005051955376
1377.000000,0.003164619564
1378.000000,0.004142313709
1379.000000,0.003369011597
1380.000000,0.003862971143
1381.000000,0.002659295508
1382.000000,0.003477911062
1383.000000,0.003170641651
1384.000000,0.004129156938
1385.000000,0.004013383359
1386.000000,0.003420546828
1387.000000,0.003406480331
1388.000000,0.00427275116
1389.000000,0.003754910049
1390.000000,0.004432482016
1391.000000,0.004281717132
1392.000000,0.003857807278
1393.000000,0.004007916297
1394.000000,0.003093116986
1395.000000,0.004233200999
1396.000000,0.004144592913
1397.000000,0.004312001263
1398.000000,0.005252888192
1399.000000,0.004502818016
1400.000000,0.004477762551
1401.000000,0.004518247501
1402.000000,0.004321008544
1403.000000,0.005490134411
1404.000000,0.004679772691
1405.000000,0.005531240731
1406.000000,0.005264771664
1407.000000,0.004471546298
1408.000000,0.005128662332
1409.000000,0.005757900953
1410.000000,0.004961898036
1411.000000,0.005331771876
1412.000000,0.00525742587
1413.000000,0.005387694649
1414.000000,0.006099721855
1415.000000,0.005276730393
1416.000000,0.00572071966
1417.000000,0.006170307429
1418.000000,0.004670646131
1419.000000,0.00624672134
1420.000000,0.00670100893
1421.000000,0.007102199075
1422.000000,0.006730163736
1423.000000,0.006828312914
1424.000000,0.008225072989
1425.000000,0.007627221916
1426.000000,0.008685607474
1427.000000,0.008892732355
1428.000000,0.008869150854
1429.000000,0.009569729786
1430.000000,0.009988050605
1431.000000,0.01174547908
1432.000000,0.01205177794
1433.000000,0.01180707084
1434.000000,0.01499475684
1435.000000,0.01592695385
1436.000000,0.01725815012
1437.000000,0.01758993477
1438.000000,0.01976917744
1439.000000,0.02199645469
1440.000000,0.02592058313
1441.000000,0.02827963232
1442.000000,0.03216139946
1443.000000,0.03624483891
1444.000000,0.04062356906
1445.000000,0.04767200957
1446.000000,0.05455845804
1447.000000,0.05907912383
1448.000000,0.06398909066
1449.000000,0.06780025211
1450.000000,0.06915078219
1451.000000,0.06732334669
1452.000000,0.06422466308
1453.000000,0.05905597385
1454.000000,0.05232728564
1455.000000,0.04741804975
1456.000000,0.04122006407
1457.000000,0.03573326325
1458.000000,0.0320541212
1459.000000,0.02923839417
1460.000000,0.02594135211
1461.000000,0.02309577144
1462.000000,0.0208227851
1463.000000,0.01881221964
1464.000000,0.01702913779
1465.000000,0.01572013757
1466.000000,0.01520968059
1467.000000,0.01273071636
1468.000000,0.0125607239
1469.000000,0.01046498431
1470.000000,0.01100108374
1471.000000,0.01084101216
1472.000000,0.009269031974
1473.000000,0.01003758054
1474.000000,0.008021593492
1475.000000,0.009151462178
1476.000000,0.007735363013
1477.000000,0.007812006705
1478.000000,0.007085836255
1479.000000,0.007452364285
1480.000000,0.006751739804
1481.000000,0.007324184293
1482.000000,0.006478064542
1483.000000,0.006452704441
1484.000000,0.005995757542
1485.000000,0.006264639352
1486.000000,0.005599245388
1487.000000,0.005618541795
1488.000000,0.004823828801
1489.000000,0.005273703336
1490.000000,0.00522389029
1491.000000,0.005287039675
1492.000000,0.005328029543
1493.000000,0.004298301566
1494.000000,0.005638685593
1495.000000,0.006439869781
1496.000000,0.005061154006
1497.000000,0.003813870707
1498.000000,0.005417221615
1499.000000,0.004900355783
1500.000000,0.00473289694
1501.000000,0.004913741607
1502.000000,0.004795799434
1503.000000,0.004629041518
1504.000000,0.005064514948
1505.000000,0.004857963312
1506.000000,0.004491415872
1507.000000,0.005085076005
1508.000000,0.005401508601
1509.000000,0.005403318112
1510.000000,0.004021162094
1511.000000,0.004640805754
1512.000000,0.004967517705
1513.000000,0.004684816345
1514.000000,0.004508905269
1515.000000,0.005272550373
1516.000000,0.00478005731
1517.000000,0.004852240416
1518.000000,0.003671592867
1519.000000,0.0037192337
1520.000000,0.004277654049
1521.000000,0.004690631201
1522.000000,0.005142886929
1523.000000,0.004128738685
1524.000000,0.005558721015
1525.000000,0.004728670592
1526.000000,0.004352783942
1527.000000,0.005130324632
1528.000000,0.005530807264
1529.000000,0.004731651476
1530.000000,0.004739756875
1531.000000,0.004904219176
1532.000000,0.005228750998
1533.000000,0.004658110904
1534.000000,0.004800773993
1535.000000,0.004956442335
1536.000000,0.00480562114
1537.000000,0.005147135965
1538.000000,0.004553449747
1539.000000,0.00384355565
1540.000000,0.004751768353
1541.000000,0.004892609804
1542.000000,0.006304381814
1543.000000,0.005872106979
1544.000000,0.00553643957
1545.000000,0.005083459258
1546.000000,0.004750307319
1547.000000,0.005142014149
1548.000000,0.00592659299
1549.000000,0.005645086187
1550.000000,0.005217903053
1551.000000,0.006069502218
1552.000000,0.005681408363
1553.000000,0.006493486185
1554.000000,0.007518646774
1555.000000,0.007080032955
1556.000000,0.005255513744
1557.000000,0.007622034206
1558.000000,0.006863881667
1559.000000,0.007600288722
1560.000000,0.007922185423
1561.000000,0.008180597254
1562.000000,0.007325770692
1563.000000,0.009551557074
1564.000000,0.008680867443
1565.000000,0.009228728213
1566.000000,0.0105113691
1567.000000,0.01148286956
1568.000000,0.01151779216
1569.000000,0.01184882905
1570.000000,0.01416893732
1571.000000,0.01507109333
1572.000000,0.01735875014
1573.000000,0.01954178399
1574.000000,0.02046363567
1575.000000,0.02342996101
1576.000000,0.02782541206
1577.000000,0.03208291783
1578.000000,0.03942887323
1579.000000,0.0455255938
1580.000000,0.0535839879
1581.000000,0.06185517761
1582.000000,0.06923429333
1583.000000,0.07165754877
1584.000000,0.07044070564
1585.000000,0.06455112295
1586.000000,0.05896636923
1587.000000,0.05213341259
1588.000000,0.04711595636
1589.000000,0.04372500212
1590.000000,0.04296887141
1591.000000,0.04175864018
1592.000000,0.04342575041
1593.000000,0.04612773903
1594.000000,0.05118191464
1595.000000,0.05773375927
1596.000000,0.06762249518
1597.000000,0.08268480633
1598.000000,0.1026381895
1599.000000,0.1275327596
1600.000000,0.15733013
1601.000000,0.1836238052
1602.000000,0.1925811101
1603.000000,0.1833447786
1604.000000,0.156378047
1605.000000,0.1258180663
1606.000000,0.09996724133
1607.000000,0.07734522168
1608.000000,0.06305862219
1609.000000,0.05153320308
1610.000000,0.04282600859
1611.000000,0.03612035816
1612.000000,0.03178456411
1613.000000,0.02704387793
1614.000000,0.02301865232
1615.000000,0.01989900439
1616.000000,0.01804798801
1617.000000,0.01662717901
1618.000000,0.01549710169
1619.000000,0.01410520664
1620.000000,0.01319378369
1621.000000,0.01177731285
1622.000000,0.01108524453
1623.000000,0.01086635862
1624.000000,0.009880755203
1625.000000,0.009081793231
1626.000000,0.008730892716
1627.000000,0.008863289177
1628.000000,0.007887172394
1629.000000,0.007674442499
1630.000000,0.008649535286
1631.000000,0.007203291797
1632.000000,0.007144270887
1633.000000,0.00746551955
1634.000000,0.007629186551
1635.000000,0.00680902698
1636.000000,0.005441776003
1637.000000,0.007495217409
1638.000000,0.005358723671
1639.000000,0.005063473849
1640.000000,0.005144408813
1641.000000,0.006394007655
1642.000000,0.005375964912
1643.000000,0.004152355342
1644.000000,0.00633348022
1645.000000,0.004169274337
1646.000000,0.006157028968
1647.000000,0.003418252416
1648.000000,0.004795033122
1649.000000,0.004818933811
1650.000000,0.004377602029
1651.000000,0.004630467226
1652.000000,0.005262701026
1653.000000,0.004679842189
1654.000000,0.004943001192
1655.000000,0.00453290446
1656.000000,0.004529164299
1657.000000,0.004020063364
1658.000000,0.004289249528
1659.000000,0.004830916721
1660.000000,0.00491566494
1661.000000,0.003509826107
1662.000000,0.003800026488
1663.000000,0.004248333525
1664.000000,0.004033245079
1665.000000,0.003591011766
1666.000000,0.002811045872
1667.000000,0.00419185189
1668.000000,0.003574829
1669.000000,0.005210419317
1670.000000,0.004656315313
1671.000000,0.004184773405
1672.000000,0.003111821969
1673.000000,0.003441844367
1674.000000,0.004533165038
1675.000000,0.00336574524
1676.000000,0.003671746897
1677.000000,0.004065993772
1678.000000,0.004152931058
1679.000000,0.003552748466
1680.000000,0.004059365994
1681.000000,0.002726512793
1682.000000,0.003715684034
1683.000000,0.003629628032
1684.000000,0.004703219253
1685.000000,0.003930396932
1686.000000,0.002308093102
1687.000000,0.004579334342
1688.000000,0.005278240833
1689.000000,0.003966215143
1690.000000,0.004034317049
1691.000000,0.004566223373
1692.000000,0.003584424122
1693.000000,0.003550650297
1694.000000,0.003717931027
1695.000000,0.001550716015
1696.000000,0.003204095958
1697.000000,0.003940779471
1698.000000,0.003890133114
1699.000000,0.002587886889
1700.000000,0.003353779148
1701.000000,0.003154434066
1702.000000,0.003046030859
1703.000000,0.004040993166
1704.000000,0.002929399465
1705.000000,0.003321534651
1706.000000,0.003836585333
1707.000000,0.00287789272
1708.000000,0.003413535136
1709.000000,0.002815580302
1710.000000,0.003392049427
1711.000000,0.003329134378
1712.000000,0.003773384211
1713.000000,0.003102979969
1714.000000,0.003200158911
1715.000000,0.002392808077
1716.000000,0.002972777491
1717.000000,0.002722230221
1718.000000,0.002556670888
1719.000000,0.003117666322
1720.000000,0.003327484011
1721.000000,0.003287537231
1722.000000,0.003994304593
1723.000000,0.002986766267
1724.000000,0.002868413098
1725.000000,0.002011304954
1726.000000,0.003992576044
1727.000000,0.003734454555
1728.000000,0.003692869493
1729.000000,0.002837523392
1730.000000,0.002929406799
1731.000000,0.002948998134
1732.000000,0.002500897965
1733.000000,0.003513626396
1734.000000,0.003222581543
1735.000000,0.004021160014
1736.000000,0.00339051943
1737.000000,0.003149562379
1738.000000,0.003673226887
1739.000000,0.003701047788
1740.000000,0.002607408722
1741.000000,0.00228332247
1742.000000,0.002549786614
1743.000000,0.00381520672
1744.000000,0.003639048145
1745.000000,0.004067494175
1746.000000,0.003292587688
1747.000000,0.003480701009
1748.000000,0.003008775887
1749.000000,0.00443623541
1750.000000,0.003662512357
1751.000000,0.004181524997
1752.000000,0.003536820658
1753.000000,0.002777286029
1754.000000,0.003839151384
1755.000000,0.002313645585
1756.000000,0.00371968232
1757.000000,0.003156156668
1758.000000,0.003469102018
1759.000000,0.002499151158
1760.000000,0.003266986915
1761.000000,0.002837174005
1762.000000,0.002701429638
1763.000000,0.0040638086
1764.000000,0.00352539165
1765.000000,0.002984948168
1766.000000,0.002808742843
1767.000000,0.002977228685
1768.000000,0.003303687637
1769.000000,0.003399153808
1770.000000,0.003254471306
1771.000000,0.002157269123
1772.000000,0.003205493459
1773.000000,0.003337674765
1774.000000,0.003640055411
1775.000000,0.003170780613
1776.000000,0.003091313572
1777.000000,0.003225736296
1778.000000,0.002859680587
1779.000000,0.004431256963
1780.000000,0.002720646119
1781.000000,0.002592726634
1782.000000,0.0033409935
1783.000000,0.003330162401
1784.000000,0.003557402211
1785.000000,0.003062633487
1786.000000,0.002827387681
1787.000000,0.002636806946
1788.000000,0.003165893973
1789.000000,0.003322766848
1790.000000,0.003131942548
1791.000000,0.002421417705
1792.000000,0.002369522549
1793.000000,0.003818894193
1794.000000,0.003170417192
1795.000000,0.003046177889
1796.000000,0.004229564541
1797.000000,0.003703617201
1798.000000,0.002351717887
1799.000000,0.002964875321
1800.000000,0.003724937104
1801.000000,0.003524085864
1802.000000,0.003331183693
1803.000000,0.004101860218
1804.000000,0.0023455655
1805.000000,0.003644546323
1806.000000,0.002840627284
1807.000000,0.003883800303
1808.000000,0.003122317366
1809.000000,0.002188344243
1810.000000,0.003307050847
1811.000000,0.001642900848
1812.000000,0.003821534487
1813.000000,0.003358138896
1814.000000,0.003873119916
1815.000000,0.003342312102
1816.000000,0.00327700218
1817.000000,0.004041240398
1818.000000,0.003651329503
1819.000000,0.002292184201
1820.000000,0.002850917307
1821.000000,0.004062454365
1822.000000,0.002444739752
1823.000000,0.002392916476
1824.000000,0.002645787958
1825.000000,0.002242698693
1826.000000,0.003212873468
1827.000000,0.003003339802
1828.000000,0.003728079544
1829.000000,0.002947479386
1830.000000,0.004084720182
1831.000000,0.002942041786
1832.000000,0.003662644748
1833.000000,0.003827602811
1834.000000,0.003343810726
1835.000000,0.002995692513
1836.000000,0.00230416537
1837.000000,0.002446952882
1838.000000,0.003437069959
1839.000000,0.002868215179
1840.000000,0.00346565676
1841.000000,0.002682031423
1842.000000,0.003101559932
1843.000000,0.003138567278
1844.000000,0.003538529055
1845.000000,0.002882426761
1846.000000,0.003528053354
1847.000000,0.002099284169
1848.000000,0.002317549538
1849.000000,0.003150922885
1850.000000,0.002996349824
1851.000000,0.003375012907
1852.000000,0.002113223795
1853.000000,0.003260709893
1854.000000,0.00206457182
1855.000000,0.003881442702
1856.000000,0.002649615307
1857.000000,0.002813402612
1858.000000,0.003430817086
1859.000000,0.003312985129
1860.000000,0.00276220679
1861.000000,0.002981606623
1862.000000,0.004115953802
1863.000000,0.00252801982
1864.000000,0.004027147497
1865.000000,0.002777066116
1866.000000,0.002378004667
1867.000000,0.003878221712
1868.000000,0.003494483758
1869.000000,0.003175421437
1870.000000,0.003739673904
1871.000000,0.003034663633
1872.000000,0.002862543785
1873.000000,0.003474613527
1874.000000,0.003320693735
1875.000000,0.002750878617
1876.000000,0.003916396936
1877.000000,0.003424535306
1878.000000,0.004147804897
1879.000000,0.005254365211
1880.000000,0.002422483534
1881.000000,0.003520024463
1882.000000,0.003413465004
1883.000000,0.002481196162
1884.000000,0.00349634964
1885.000000,0.001644632263
1886.000000,0.002438831147
1887.000000,0.00362729765
1888.000000,0.002305143567
1889.000000,0.002729512123
1890.000000,0.003070666819
1891.000000,0.00233373207
1892.000000,0.00269618393
1893.000000,0.003309036092
1894.000000,0.003148479857
1895.000000,0.002947595411
1896.000000,0.003879905703
1897.000000,0.002970628281
1898.000000,0.003553500345
1899.000000,0.00314649747
1900.000000,0.002274022088
1901.000000,0.002534569866
1902.000000,0.003417117814
1903.000000,0.002239588853
1904.000000,0.003218111317
1905.000000,0.003489419453
1906.000000,0.002434639559
1907.000000,0.002003284374
1908.000000,0.003756531467
1909.000000,0.004131064449
1910.000000,0.003235676339
1911.000000,0.004125603997
1912.000000,0.003451550067
1913.000000,0.002767265113
1914.000000,0.003191864649
1915.000000,0.003507456288
1916.000000,0.001163604
1917.000000,0.003256920792
1918.000000,0.003846823333
1919.000000,0.003530140666
1920.000000,0.002887350975
1921.000000,0.002907531257
1922.000000,0.001958644154
1923.000000,0.003587607129
1924.000000,0.001759424221
1925.000000,0.003553485986
1926.000000,0.003320502545
1927.000000,0.002840929517
1928.000000,0.003393905191
1929.000000,0.003664337544
1930.000000,0.002776034584
1931.000000,0.002267968743
1932.000000,0.003633296016
1933.000000,0.00302721002
1934.000000,0.003240599873
1935.000000,0.002423600142
1936.000000,0.003932639027
1937.000000,0.00361837765
1938.000000,0.002268945037
1939.000000,0.001962970447
1940.000000,0.003228685419
1941.000000,0.002963272652
1942.000000,0.002683172802
1943.000000,0.002632649127
1944.000000,0.003009873879
1945.000000,0.003156352151
1946.000000,0.00317954929
1947.000000,0.004098570217
1948.000000,0.004019563948
1949.000000,0.001696651562
1950.000000,0.003612168784
1951.000000,0.003909281018
1952.000000,0.00209954745
1953.000000,0.00269125092
1954.000000,0.002802820357
1955.000000,0.003536788963
1956.000000,0.003318939317
1957.000000,0.003260488455
1958.000000,0.003200363336
1959.000000,0.003649652234
1960.000000,0.003278907804
1961.000000,0.002498900881
1962.000000,0.002498027029
1963.000000,0.002684396591
1964.000000,0.004178522026
1965.000000,0.003312610714
1966.000000,0.003527376618
1967.000000,0.00412268475
1968.000000,0.003327218295
1969.000000,0.00188626619
1970.000000,0.00327783488
1971.000000,0.00272717081
1972.000000,0.002760539676
1973.000000,0.002655472108
1974.000000,0.002995816231
1975.000000,0.002347178674
1976.000000,0.003671522834
1977.000000,0.003475451487
1978.000000,0.003350783527
1979.000000,0.003312043061
1980.000000,0.002442679888
1981.000000,0.003609993258
1982.000000,0.002489438853
1983.000000,0.002091801451
1984.000000,0.00287785338
1985.000000,0.00316314434
1986.000000,0.003195582008
1987.000000,0.003737991158
1988.000000,0.002852501921
1989.000000,0.003830587523
1990.000000,0.004040902154
1991.000000,0.003309250023
1992.000000,0.002471428033
1993.000000,0.00391107856
1994.000000,0.003112563091
1995.000000,0.003200566137
1996.000000,0.002230866282
1997.000000,0.001994800883
1998.000000,0.004057717395
1999.000000,0.003583268812
2000.000000,0.002635102939
