pixel_index,raman_shift_cm-1,intensity
0,200.0,-0.0027915061168896802
1,201.0,-0.0027260478288650006
2,202.0,-0.002661233363470646
3,203.0,-0.0025970602413042
4,204.0,-0.002533525311002995
5,205.0,-0.002470626331769809
6,206.0,-0.0024083601647577977
7,207.0,-0.0023467245816722656
8,208.0,-0.0022857166822315895
9,209.0,-0.0022253335723888016
10,210.0,-0.002165573042552975
11,211.0,-0.0021064319850502846
12,212.0,-0.0020479082027257092
13,213.0,-0.0019899986003280175
14,214.0,-0.0019327007670353756
15,215.0,-0.0018760120721445534
16,216.0,-0.0018199296650642626
17,217.0,-0.0017644511535366014
18,218.0,-0.001709573925402267
19,219.0,-0.0016552951485939008
20,220.0,-0.001601612449357566
21,221.0,-0.001548523234017944
22,222.0,-0.0014960246889716652
23,223.0,-0.0014441142328327715
24,224.0,-0.0013927895164260018
25,225.0,-0.001342047744552034
26,226.0,-0.001291886354208959
27,227.0,-0.0012423030145855996
28,228.0,-0.0011932949488267198
29,229.0,-0.0011448596122545123
30,230.0,-0.0010969944662858752
31,231.0,-0.0010496972045017925
32,232.0,-0.00100296484833653
33,233.0,-0.000956795329603238
34,234.0,-0.0009111856818789632
35,235.0,-0.0008661336230302721
36,236.0,-0.0008216366509024806
37,237.0,-0.0007776922693889231
38,238.0,-0.0007342979884243977
39,239.0,-0.0006914510979023987
40,240.0,-0.0006491493458966151
41,241.0,-0.0006073902604261377
42,242.0,-0.0005661711494487697
43,243.0,-0.0005254897790825201
44,244.0,-0.0004853434692947658
45,245.0,-0.0004457299981997768
46,246.0,-0.00040664669774782966
47,247.0,-0.0003680911319467576
48,248.0,-0.00033006087077916006
49,249.0,-0.0002925537162718491
50,250.0,-0.0002555670242610368
51,251.0,-0.00021909838261378135
52,252.0,-0.00018314515906926978
53,253.0,-0.00014770540553634638
54,254.0,-0.00011277650163049446
55,255.0,-7.835583289544794e-05
56,256.0,-4.4441469024540896e-05
57,257.0,-1.1030581321810916e-05
58,258.0,2.1879200848440813e-05
59,259.0,5.429001614431648e-05
60,260.0,8.620422340512084e-05
61,261.0,0.00011762440165795699
62,262.0,0.00014855267189633334
63,263.0,0.0001789918274669853
64,264.0,0.00020894375154422958
65,265.0,0.00023841077359293736
66,266.0,0.0002673956693751622
67,267.0,0.0002959005305765581
68,268.0,0.0003239274430412272
69,269.0,0.0003514791650064893
70,270.0,0.0003785577706532493
71,271.0,0.00040516555441689225
72,272.0,0.0004313050309938793
73,273.0,0.00045697825712034647
74,274.0,0.00048218750980684336
75,275.0,0.0005069355124210597
76,276.0,0.0005312238521621874
77,277.0,0.0005550554669040526
78,278.0,0.0005784321583652793
79,279.0,0.0006013564007243382
80,280.0,0.0006238304363220212
81,281.0,0.0006458567278201504
82,282.0,0.000667437053904135
83,283.0,0.0006885740918218888
84,284.0,0.0007092698348581781
85,285.0,0.0007295264966454974
86,286.0,0.0007493465111707245
87,287.0,0.0007687320806296317
88,288.0,0.000787685175433657
89,289.0,0.0008062082124445988
90,290.0,0.0008243033767531926
91,291.0,0.0008419730738378416
92,292.0,0.0008592190252671245
93,293.0,0.000876043625162724
94,294.0,0.0008924492619779069
95,295.0,0.0009084378663521433
96,296.0,0.0009240118154219286
97,297.0,0.0009391730285232908
98,298.0,0.0009539238715025794
99,299.0,0.0009682664784950565
100,300.0,0.0009822029780075347
101,301.0,0.0009957354929251174
102,302.0,0.0010088661405177593
103,303.0,0.0010215970324470342
104,304.0,0.0010339305008487739
105,305.0,0.0010458686461876654
106,306.0,0.00105741333726388
107,307.0,0.0010685668894479384
108,308.0,0.0010793313864591505
109,309.0,0.0010897089064483864
110,310.0,0.0010997015220047153
111,311.0,0.0011093115262381073
112,312.0,0.001118540754557967
113,313.0,0.0011273912629079256
114,314.0,0.001135865553848553
115,315.0,0.001143965220107759
116,316.0,0.0011516927531957579
117,317.0,0.0011590497348034703
118,318.0,0.001166038645417442
119,319.0,0.001172661507870315
120,320.0,0.0011789201134234947
121,321.0,0.0011848167000018976
122,322.0,0.001190353047896588
123,323.0,0.0011955316101514638
124,324.0,0.0012003543821898573
125,325.0,0.0012048229018211034
126,326.0,0.001208939831779536
127,327.0,0.0012127066989707463
128,328.0,0.0012161257030865325
129,329.0,0.0012191990383834555
130,330.0,0.001221928215461391
131,331.0,0.0012243156438024724
132,332.0,0.0012263632753215044
133,333.0,0.0012280730565246633
134,334.0,0.0012294469285162634
135,335.0,0.001230486827005309
136,336.0,0.001231194908388258
137,337.0,0.0012315730976035818
138,338.0,0.001231623088138421
139,339.0,0.0012313470202633698
140,340.0,0.001230747028887103
141,341.0,0.00122982501748695
142,342.0,0.0012285826581155137
143,343.0,0.0012270220696355468
144,344.0,0.001225145139498459
145,345.0,0.0012229539759030334
146,346.0,0.00122045045565
147,347.0,0.0012176364502248034
148,348.0,0.0012145135997281187
149,349.0,0.0012110844432628757
150,350.0,0.0012073503842563661
151,351.0,0.0012033134990753493
152,352.0,0.001198975632728539
153,353.0,0.00119433885102532
154,354.0,0.001189404762354257
155,355.0,0.0011841756480701002
156,356.0,0.0011786531060439852
157,357.0,0.0011728389549744596
158,358.0,0.001166735460470063
159,359.0,0.0011603442046758123
160,360.0,0.0011536669905840543
161,361.0,0.0011467058420411044
162,362.0,0.0011394627776778494
163,363.0,0.0011319393587643882
164,364.0,0.0011241375935208005
165,365.0,0.0011160592588956761
166,366.0,0.0011077061266488602
167,367.0,0.0010990804155102097
168,368.0,0.001090183434729921
169,369.0,0.0010810176187696734
170,370.0,0.0010715842665487728
171,371.0,0.0010618855761352951
172,372.0,0.0010519230622203256
173,373.0,0.0010416989125810175
174,374.0,0.0010312146316308786
175,375.0,0.0010204721708066899
176,376.0,0.0010094734764231358
177,377.0,0.0009982200375272489
178,378.0,0.0009867140162854373
179,379.0,0.0009749568915337915
180,380.0,0.0009629505891649702
181,381.0,0.0009506970299827938
182,382.0,0.0009381981297089389
183,383.0,0.0009254551207614028
184,384.0,0.0009124703608695132
185,385.0,0.0008992452983963232
186,386.0,0.0008857820548773888
187,387.0,0.0008720820685712957
188,388.0,0.0008581472248465053
189,389.0,0.0008439794040359475
190,390.0,0.0008295802553675887
191,391.0,0.0008149516491232456
192,392.0,0.0008000954505691333
193,393.0,0.0007850130678105283
194,394.0,0.0007697065821784818
195,395.0,0.0007541778439325921
196,396.0,0.0007384282461912991
197,397.0,0.0007224596292429562
198,398.0,0.0007062740544763357
199,399.0,0.0006898731261591519
200,400.0,0.0006732584435969315
201,401.0,0.000656432053291587
202,402.0,0.000639395544644044
203,403.0,0.0006221505021129309
204,404.0,0.000604698957373317
205,405.0,0.0005870424850192137
206,406.0,0.0005691828807984341
207,407.0,0.0005511221616190918
208,408.0,0.0005328614351761918
209,409.0,0.0005144031607186978
210,410.0,0.0004957486622197052
211,411.0,0.00047689971091530723
212,412.0,0.00045785829923539043
213,413.0,0.00043862573650601676
214,414.0,0.0004192042314884164
215,415.0,0.00039959530985326965
216,416.0,0.0003798009445677377
217,417.0,0.0003598224255217599
218,418.0,0.0003396617159910865
219,419.0,0.00031932077441573157
220,420.0,0.00029880132833060014
221,421.0,0.0002781048743722188
222,422.0,0.0002572331304373763
223,423.0,0.00023618826176594106
224,424.0,0.0002149715244911728
225,425.0,0.00019358507425477398
226,426.0,0.00017203060975729264
227,427.0,0.00015030982491685425
228,428.0,0.0001284244088757848
229,429.0,0.00010637604600742806
230,430.0,8.416686807463655e-05
231,431.0,6.179854993253852e-05
232,432.0,3.927253561102183e-05
233,433.0,1.659116870175961e-05
234,434.0,-6.2443423196485125e-06
235,435.0,-2.9231663326432856e-05
236,436.0,-5.2369595294612615e-05
237,437.0,-7.565558745957501e-05
238,438.0,-9.908845022229559e-05
239,439.0,-0.0001226660943819435
240,440.0,-0.0001463868875856265
241,441.0,-0.00017024875001751648
242,442.0,-0.00019424983262031662
243,443.0,-0.0002183885170886527
244,444.0,-0.00024266273763417698
245,445.0,-0.00026707065920712183
246,446.0,-0.0002916106774895948
247,447.0,-0.00031628051458481676
248,448.0,-0.00034107857546660344
249,449.0,-0.00036600281759258704
250,450.0,-0.00039105120304957326
251,451.0,-0.00041622215069903675
252,452.0,-0.000441513405790153
253,453.0,-0.0004669231703334433
254,454.0,-0.000492449424865962
255,455.0,-0.0005180901545205985
256,456.0,-0.0005438435750955813
257,457.0,-0.0005697074548195796
258,458.0,-0.0005956797925732269
259,459.0,-0.0006217585918064772
260,460.0,-0.0006479416344557164
261,461.0,-0.0006742271591654504
262,462.0,-0.0007006129569772707
263,463.0,-0.0007270965973994264
264,464.0,-0.0007536763327041559
265,465.0,-0.0007803499675409609
266,466.0,-0.0008071150850058919
267,467.0,-0.0008339694987870371
268,468.0,-0.000860911027081701
269,469.0,-0.0008879374925898768
270,470.0,-0.0009150467225075661
271,471.0,-0.0009422358702919095
272,472.0,-0.0009695029981868703
273,473.0,-0.0009968457207603595
274,474.0,-0.0010242616570495635
275,475.0,-0.0010517479784023255
276,476.0,-0.0010793025388505333
277,477.0,-0.0011069225186473618
278,478.0,-0.0011346057807167938
279,479.0,-0.0011623492881146225
280,480.0,-0.001190150460478105
281,481.0,-0.001218006721867209
282,482.0,-0.001245915048605907
283,483.0,-0.001273873099655541
284,484.0,-0.0013018776340761329
285,485.0,-0.0013299256413997402
286,486.0,-0.0013580145676999192
287,487.0,-0.0013861409591287264
288,488.0,-0.0014143018183664713
289,489.0,-0.0014424941524627966
290,490.0,-0.0014707145206780702
291,491.0,-0.0014989594866286996
292,492.0,-0.001527225844356517
293,493.0,-0.0015555101661701909
294,494.0,-0.001583808576562331
295,495.0,-0.0016121176565071008
296,496.0,-0.0016404335391492567
297,497.0,-0.0016687523619498376
298,498.0,-0.0016970700406032312
299,499.0,-0.0017253827211825567
300,500.0,-0.0017536861019051314
301,501.0,-0.0017819756592016543
302,502.0,-0.0018102473259376307
303,503.0,-0.0018384961349506613
304,504.0,-0.0018667175754998786
305,505.0,-0.001894906462879139
306,506.0,-0.0019230580687904335
307,507.0,-0.0019511669909572894
308,508.0,-0.0019792278313459284
309,509.0,-0.0020072349700828345
310,510.0,-0.0020351827915238824
311,511.0,-0.002063065006019826
312,512.0,-0.0020908755542135005
313,513.0,-0.0021186079288053185
314,514.0,-0.002146255400622365
315,515.0,-0.002173811018612151
316,516.0,-0.002201267609835386
317,517.0,-0.002228617327307704
318,518.0,-0.0022558527803730913
319,519.0,-0.002282965226088726
320,520.0,-0.002309946603902931
321,521.0,-0.002336787500963881
322,522.0,-0.002363479186797521
323,523.0,-0.002390011352540481
324,524.0,-0.0024163741456175976
325,525.0,-0.002442556813279247
326,526.0,-0.002468548380822595
327,527.0,-0.002494336747280932
328,528.0,-0.0025199098157971654
329,529.0,-0.0025452548153889814
330,530.0,-0.0025703580748661363
331,531.0,-0.002595205248899973
332,532.0,-0.0026197815440926354
333,533.0,-0.002644071040742371
334,534.0,-0.0026680573710650144
335,535.0,-0.002691722588807031
336,536.0,-0.002715048299619109
337,537.0,-0.002738014982821389
338,538.0,-0.002760601991396707
339,539.0,-0.002782787325908186
340,540.0,-0.0028045478605681125
341,541.0,-0.002825858891079604
342,542.0,-0.002846694360705903
343,543.0,-0.002867026634187565
344,544.0,-0.0028868262716598043
345,545.0,-0.0029060618025697764
346,546.0,-0.002924699725670019
347,547.0,-0.002942704735087609
348,548.0,-0.0029600385899375635
349,549.0,-0.0029766610186201282
350,550.0,-0.002992528362357867
351,551.0,-0.003007594479493382
352,552.0,-0.0030218093890261697
353,553.0,-0.0030351199488340866
354,554.0,-0.003047468951362689
355,555.0,-0.0030587946714663345
356,556.0,-0.0030690308664014974
357,557.0,-0.003078106323668169
358,558.0,-0.0030859441827748657
359,559.0,-0.0030924608048519247
360,560.0,-0.0030975666769488415
361,561.0,-0.0031011643773433853
362,562.0,-0.0031031483494587224
363,563.0,-0.00310340377147663
364,564.0,-0.003101805878102671
365,565.0,-0.0030982195084073654
366,566.0,-0.0030924959407550336
367,567.0,-0.0030844740231772572
368,568.0,-0.003073976556149452
369,569.0,-0.0030608098404322722
370,570.0,-0.003044760738076165
371,571.0,-0.0030255957681106084
372,572.0,-0.0030030565850165435
373,573.0,-0.0029768588483394774
374,574.0,-0.0029466879272379443
375,575.0,-0.0029121950571839783
376,576.0,-0.0028729925923596097
377,577.0,-0.002828649710205293
378,578.0,-0.002778685629131826
379,579.0,-0.002722562374080192
380,580.0,-0.0026596775420815112
381,581.0,-0.0025893532245240417
382,582.0,-0.0025108265119526386
383,583.0,-0.0024232350251951543
384,584.0,-0.0023256010900324095
385,585.0,-0.0022168138771841155
386,586.0,-0.002095605890393227
387,587.0,-0.0019605280980543095
388,588.0,-0.0018099155696478851
389,589.0,-0.0016418508514142068
390,590.0,-0.0014541153599968459
391,591.0,-0.0012441321851961455
392,592.0,-0.0010088971367687462
393,593.0,-0.0007448901226108174
394,594.0,-0.00044796911908555673
395,595.0,-0.0001132365600735084
396,596.0,0.0002651284114602415
397,597.0,0.0006940801941957601
398,598.0,0.0011819734981992445
399,599.0,0.0017389026850747537
400,600.0,0.0023771369643598244
401,601.0,0.0031116801578218336
402,602.0,0.003960993238508291
403,603.0,0.004947934807105091
404,604.0,0.006100979189679381
405,605.0,0.007455802361149644
406,606.0,0.009057325672748721
407,607.0,0.010962326352134748
408,608.0,0.01324267785136633
409,609.0,0.015989175731836777
410,610.0,0.01931557651284442
411,611.0,0.023361721590403648
412,612.0,0.028292956900041473
413,613.0,0.03428973522729276
414,614.0,0.04151532305313263
415,615.0,0.05004114074837281
416,616.0,0.059704487039892146
417,617.0,0.0698947004609362
418,618.0,0.07935453684969801
419,619.0,0.08624812758270116
420,620.0,0.088779085727584
421,621.0,0.0861775310005417
422,622.0,0.07921334478792685
423,623.0,0.06968291602896624
424,624.0,0.05942211422364807
425,625.0,0.04968818531463496
426,626.0,0.04109179187136238
427,627.0,0.033795636721851215
428,628.0,0.02772830105026915
429,629.0,0.022726519026409833
430,630.0,0.018609840324222093
431,631.0,0.015212919885250038
432,632.0,0.012395917642835756
433,633.0,0.010045078407184159
434,634.0,0.008069608398716833
435,635.0,0.006397635269135367
436,636.0,0.004972383346880235
437,637.0,0.0037489323848651328
438,638.0,0.002691608416835353
439,639.0,0.001771937769157835
440,640.0,0.0009670638502767135
441,641.0,0.00025852656614757795
442,642.0,-0.0003686761214234719
443,643.0,-0.0009268120902724242
444,644.0,-0.0014259741439330196
445,645.0,-0.0018745158862465202
446,646.0,-0.002279390383272372
447,647.0,-0.0026464164808637815
448,648.0,-0.0029804910900682264
449,649.0,-0.003285754448710555
450,650.0,-0.0035657250887857856
451,651.0,-0.0038234060921942107
452,652.0,-0.0040613730343164334
453,653.0,-0.004281842485049035
454,654.0,-0.0044867312407215814
455,655.0,-0.00467770199145154
456,656.0,-0.004856203336597732
457,657.0,-0.005023500757171895
458,658.0,-0.005180703744957589
459,659.0,-0.005328788410108149
460,660.0,-0.005468616019375911
461,661.0,-0.005600947917124418
462,662.0,-0.005726460672416884
463,663.0,-0.0058457551220515375
464,664.0,-0.005959367674356986
465,665.0,-0.00606777799577139
466,666.0,-0.006171415567040978
467,667.0,-0.006270666239418707
468,668.0,-0.006365877660482883
469,669.0,-0.0064573626652710174
470,670.0,-0.006545404928174348
471,671.0,-0.006630260319387578
472,672.0,-0.006712161652498917
473,673.0,-0.0067913202670160195
474,674.0,-0.006867928741271809
475,675.0,-0.006942162248873937
476,676.0,-0.007014181271610876
477,677.0,-0.0070841322776732316
478,678.0,-0.00715214975633166
479,679.0,-0.007218356670082212
480,680.0,-0.007282866263247875
481,681.0,-0.00734578296627648
482,682.0,-0.0074072021696575995
483,683.0,-0.007467212936828761
484,684.0,-0.0075258964216362466
485,685.0,-0.007583328581241013
486,686.0,-0.0076395790457319335
487,687.0,-0.007694712700651205
488,688.0,-0.0077487894609120445
489,689.0,-0.007801865401171853
490,690.0,-0.007853992077597521
491,691.0,-0.007905218110391363
492,692.0,-0.007955588279479805
493,693.0,-0.00800514420273534
494,694.0,-0.008053925466349742
495,695.0,-0.008101968042295179
496,696.0,-0.008149306549078188
497,697.0,-0.0081959724431243
498,698.0,-0.008241995827380152
499,699.0,-0.008287404547002277
500,700.0,-0.00833222509365492
501,701.0,-0.008376481701198878
502,702.0,-0.008420197928217552
503,703.0,-0.008463394849401609
504,704.0,-0.008506093542378891
505,705.0,-0.008548312826947334
506,706.0,-0.0085900708476007
507,707.0,-0.00863138439529363
508,708.0,-0.008672270037815254
509,709.0,-0.008712742311174275
510,710.0,-0.008752815980352699
511,711.0,-0.008792504230690648
512,712.0,-0.008831819798260162
513,713.0,-0.008870774969858523
514,714.0,-0.008909380678697136
515,715.0,-0.008947647860851534
516,716.0,-0.008985586777026265
517,717.0,-0.009023207012548379
518,718.0,-0.009060517703436799
519,719.0,-0.00909752731031963
520,720.0,-0.009134244296655493
521,721.0,-0.009170676224422936
522,722.0,-0.00920683043234166
523,723.0,-0.009242714035865908
524,724.0,-0.009278333701102062
525,725.0,-0.009313695644801397
526,726.0,-0.009348805860430106
527,727.0,-0.009383669892086095
528,728.0,-0.009418293286644666
529,729.0,-0.009452681141599655
530,730.0,-0.009486838331132983
531,731.0,-0.009520769506107753
532,732.0,-0.009554478867985723
533,733.0,-0.009587971073124778
534,734.0,-0.009621249650239931
535,735.0,-0.009654318582928983
536,736.0,-0.009687181631437732
537,737.0,-0.009719841880501165
538,738.0,-0.009752302643641185
539,739.0,-0.009784567463159683
540,740.0,-0.009816638753675729
541,741.0,-0.009848519610727366
542,742.0,-0.009880212680384406
543,743.0,-0.00991172061139437
544,744.0,-0.009943045603023257
545,745.0,-0.009974190083277124
546,746.0,-0.010005156256743586
547,747.0,-0.010035946330660987
548,748.0,-0.010066562062759654
549,749.0,-0.010097005439483378
550,750.0,-0.010127278223830723
551,751.0,-0.01015738195534834
552,752.0,-0.010187318628352461
553,753.0,-0.010217089561541909
554,754.0,-0.010246696076219716
555,755.0,-0.010276139948438375
556,756.0,-0.010305422052537202
557,757.0,-0.010334543717591568
558,758.0,-0.010363506275254397
559,759.0,-0.010392310833673472
560,760.0,-0.010420958277484595
561,761.0,-0.01044944971995724
562,762.0,-0.010477785824759563
563,763.0,-0.010505967710255934
564,764.0,-0.010533996271272343
565,765.0,-0.010561871953013396
566,766.0,-0.010589595881436284
567,767.0,-0.010617168280711253
568,768.0,-0.01064459005574784
569,769.0,-0.010671861661807395
570,770.0,-0.010698983556649175
571,771.0,-0.010725956426599192
572,772.0,-0.010752780734391657
573,773.0,-0.010779456493086257
574,774.0,-0.010805984622517703
575,775.0,-0.010832364914604957
576,776.0,-0.010858598068028542
577,777.0,-0.010884684105691956
578,778.0,-0.010910623505094714
579,779.0,-0.010936416067946163
580,780.0,-0.010962062276614606
581,781.0,-0.010987561937664415
582,782.0,-0.011012915538305842
583,783.0,-0.011038122663855699
584,784.0,-0.011063183806339565
585,785.0,-0.011088098555876329
586,786.0,-0.01111286718320396
587,787.0,-0.0111374892832167
588,788.0,-0.011161965131414386
589,789.0,-0.011186294327440007
590,790.0,-0.011210476925452666
591,791.0,-0.011234512755893322
592,792.0,-0.011258401199401734
593,793.0,-0.011282142317190226
594,794.0,-0.011305735946732526
595,795.0,-0.011329181701757663
596,796.0,-0.011352479198318874
597,797.0,-0.011375628054787035
598,798.0,-0.011398627891844164
599,799.0,-0.011421478332476547
600,800.0,-0.011444179001968369
601,801.0,-0.01146672952789459
602,802.0,-0.011489129087962853
603,803.0,-0.011511377540386168
604,804.0,-0.011533474067420982
605,805.0,-0.011555418079663884
606,806.0,-0.011577209216045301
607,807.0,-0.011598846665594789
608,808.0,-0.01162032984566219
609,809.0,-0.01164165772368318
610,810.0,-0.011662830173628572
611,811.0,-0.011683845941313538
612,812.0,-0.011704704679075065
613,813.0,-0.01172540513715711
614,814.0,-0.011745946520160372
615,815.0,-0.011766328260959046
616,816.0,-0.011786549116390696
617,817.0,-0.011806608523705135
618,818.0,-0.011826505018025991
619,819.0,-0.011846237814876223
620,820.0,-0.011865805905867168
621,821.0,-0.011885208058691886
622,822.0,-0.011904443495346723
623,823.0,-0.011923510535668532
624,824.0,-0.011942408179859742
625,825.0,-0.011961135204178326
626,826.0,-0.011979690387006624
627,827.0,-0.011998072282768583
628,828.0,-0.012016279447999736
629,829.0,-0.012034310667415896
630,830.0,-0.012052164275678765
631,831.0,-0.0120698390616933
632,832.0,-0.012087332912144946
633,833.0,-0.012104644620101097
634,834.0,-0.012121772302472238
635,835.0,-0.012138714530385508
636,836.0,-0.012155469198797935
637,837.0,-0.012172034430793852
638,838.0,-0.012188408803653938
639,839.0,-0.012204589766316979
640,840.0,-0.01222057544798087
641,841.0,-0.01223636397986823
642,842.0,-0.012251953043067547
643,843.0,-0.012267340546754511
644,844.0,-0.012282523723881434
645,845.0,-0.012297500713702553
646,846.0,-0.01231226897923551
647,847.0,-0.012326825759406418
648,848.0,-0.012341168521195359
649,849.0,-0.012355294507477667
650,850.0,-0.012369200963093496
651,851.0,-0.01238288490876459
652,852.0,-0.012396343367164523
653,853.0,-0.01240957336291108
654,854.0,-0.012422571696484053
655,855.0,-0.012435334944218857
656,856.0,-0.012447859684375253
657,857.0,-0.012460142271055095
658,858.0,-0.012472179286347576
659,859.0,-0.012483966862094615
660,860.0,-0.012495500905959887
661,861.0,-0.01250677732749882
662,862.0,-0.012517792038151124
663,863.0,-0.012528540725158813
664,864.0,-0.012539018851559036
665,865.0,-0.012549221656177709
666,866.0,-0.012559144153622913
667,867.0,-0.01256878158642993
668,868.0,-0.012578128520750693
669,869.0,-0.012587179750651375
670,870.0,-0.0125959293938014
671,871.0,-0.01260437156969496
672,872.0,-0.012612500625720079
673,873.0,-0.012620310006772537
674,874.0,-0.012627793385628633
675,875.0,-0.012634943532558543
676,876.0,-0.01264175389785225
677,877.0,-0.012648217029280222
678,878.0,-0.012654325250314943
679,879.0,-0.012660070434048393
680,880.0,-0.012665444681413254
681,881.0,-0.012670439190796296
682,882.0,-0.012675045388411747
683,883.0,-0.012679253571838488
684,884.0,-0.012683054266469663
685,885.0,-0.01268643732120138
686,886.0,-0.012689392360579185
687,887.0,-0.012691908332638023
688,888.0,-0.012693973734972651
689,889.0,-0.012695576840806546
690,890.0,-0.01269670502075715
691,891.0,-0.012697345194981322
692,892.0,-0.012697484059244727
693,893.0,-0.01269710740668723
694,894.0,-0.012696200127815733
695,895.0,-0.012694747114802429
696,896.0,-0.012692731678945074
697,897.0,-0.012690137133192982
698,898.0,-0.01268694566176054
699,899.0,-0.012683138546195611
700,900.0,-0.012678696391449971
701,901.0,-0.012673598447643819
702,902.0,-0.012667823514363448
703,903.0,-0.012661349036350559
704,904.0,-0.012654151329571673
705,905.0,-0.012646205355135038
706,906.0,-0.012637485171436499
707,907.0,-0.012627963255924607
708,908.0,-0.012617610731169718
709,909.0,-0.012606397138781455
710,910.0,-0.012594290213326389
711,911.0,-0.012581256560548766
712,912.0,-0.012567260300908193
713,913.0,-0.012552263973876857
714,914.0,-0.01253622785970471
715,915.0,-0.012519110205489146
716,916.0,-0.01250086632086377
717,917.0,-0.01248144993444828
718,918.0,-0.012460810933081351
719,919.0,-0.01243889717042191
720,920.0,-0.012415653110487035
721,921.0,-0.012391019375492373
722,922.0,-0.01236493365015002
723,923.0,-0.012337329099129728
724,924.0,-0.012308135497431765
725,925.0,-0.012277277421772974
726,926.0,-0.012244674928807396
727,927.0,-0.012210242876891732
728,928.0,-0.012173890021774322
729,929.0,-0.012135519920893236
730,930.0,-0.01209502844653231
731,931.0,-0.012052305142271402
732,932.0,-0.012007231414370961
733,933.0,-0.011959680305689828
734,934.0,-0.011909515817449612
735,935.0,-0.011856591778848487
736,936.0,-0.01180075139490242
737,937.0,-0.011741826116057764
738,938.0,-0.011679634055652708
739,939.0,-0.011613979311682482
740,940.0,-0.01154465083641214
741,941.0,-0.011471420175609854
742,942.0,-0.011394040338159708
743,943.0,-0.011312243761370742
744,944.0,-0.011225740728437955
745,945.0,-0.011134215751218757
746,946.0,-0.011037325987694612
747,947.0,-0.010934698755126787
748,948.0,-0.010825926104225444
749,949.0,-0.010710563688762543
750,950.0,-0.010588124661511985
751,951.0,-0.010458074926645626
752,952.0,-0.010319828618206203
753,953.0,-0.010172741317818763
754,954.0,-0.010016102142022707
755,955.0,-0.009849126959984016
756,956.0,-0.009670947089685718
757,957.0,-0.009480600254879642
758,958.0,-0.009277016794441026
759,959.0,-0.009059004967418731
760,960.0,-0.008825234675553347
761,961.0,-0.008574217342502294
762,962.0,-0.00830428285407664
763,963.0,-0.008013551524804617
764,964.0,-0.007699903577658736
765,965.0,-0.007360939580741184
766,966.0,-0.006993937040676192
767,967.0,-0.006595795466124021
768,968.0,-0.006162972840405875
769,969.0,-0.00569140898171688
770,970.0,-0.005176431269409
771,971.0,-0.004612643188492918
772,972.0,-0.003993785518939805
773,973.0,-0.003312569039399754
774,974.0,-0.0025604658590051687
775,975.0,-0.00172745440358415
776,976.0,-0.0008016983876680106
777,977.0,0.0002308524358125152
778,978.0,0.0013869646165083757
779,979.0,0.002686758993260935
780,980.0,0.004154521176733738
781,981.0,0.005819739238470776
782,982.0,0.007718439368183566
783,983.0,0.009894912190445063
784,984.0,0.012403951821857724
785,985.0,0.015313764791543996
786,986.0,0.01870974618935153
787,987.0,0.022699357482629655
788,988.0,0.027418343833579512
789,989.0,0.033038459569907454
790,990.0,0.03977658560569372
791,991.0,0.04790435824627836
792,992.0,0.05775561681145353
793,993.0,0.06972503994476038
794,994.0,0.08424340294670826
795,995.0,0.10170071304949384
796,996.0,0.1222684718207196
797,997.0,0.145560951301533
798,998.0,0.1701260920020064
799,999.0,0.19297263206973722
800,1000.0,0.20973196530466665
801,1001.0,0.21612988175021003
802,1002.0,0.210336705736365
803,1003.0,0.19418942003038625
804,1004.0,0.1719697478674779
805,1005.0,0.14805422922779077
806,1006.0,0.12544271830338188
807,1007.0,0.10559679338352283
808,1008.0,0.08891294735764312
809,1009.0,0.07523207269278548
810,1010.0,0.06417866005517599
811,1011.0,0.055339128451836604
812,1012.0,0.048339445275948724
813,1013.0,0.042870832057604245
814,1014.0,0.03869237405961112
815,1015.0,0.03562518163753499
816,1016.0,0.03354484630812341
817,1017.0,0.03237501272909443
818,1018.0,0.03208307601983452
819,1019.0,0.03267821625626041
820,1020.0,0.03421153705544162
821,1021.0,0.03677758254587716
822,1022.0,0.04051552404066735
823,1023.0,0.04560616543421431
824,1024.0,0.05225660258604594
825,1025.0,0.060656604434567274
826,1026.0,0.07087980781758368
827,1027.0,0.08269659500719409
828,1028.0,0.09529343318492167
829,1029.0,0.1070122720618821
830,1030.0,0.11543913788149943
831,1031.0,0.11821324105020378
832,1032.0,0.11431925304166106
833,1033.0,0.10475921955282894
834,1034.0,0.09188027477459029
835,1035.0,0.07808196975876011
836,1036.0,0.06500673727759862
837,1037.0,0.0534508061057076
838,1038.0,0.04362422509735037
839,1039.0,0.03543082671888386
840,1040.0,0.028654486807686907
841,1041.0,0.02305684978637883
842,1042.0,0.01841957865862155
843,1043.0,0.014557940144811278
844,1044.0,0.011321536942399128
845,1045.0,0.008590195402618869
846,1046.0,0.006268655682399309
847,1047.0,0.004281546073867088
848,1048.0,0.0025691237316445834
849,1049.0,0.0010838462296179246
850,1050.0,-0.00021231806577607005
851,1051.0,-0.0013499744166892817
852,1052.0,-0.0023539057234010638
853,1053.0,-0.0032443105167414043
854,1054.0,-0.0040377556425412586
855,1055.0,-0.0047479146259932145
856,1056.0,-0.005386142356953339
857,1057.0,-0.005961923624810596
858,1058.0,-0.006483225797111314
859,1059.0,-0.006956778249546355
860,1060.0,-0.007388293694392826
861,1061.0,-0.007782645876279789
862,1062.0,-0.008144012904395212
863,1063.0,-0.008475991194806257
864,1064.0,-0.008781690874543934
865,1065.0,-0.009063812195300083
866,1066.0,-0.00932470793040965
867,1067.0,-0.009566435824486708
868,1068.0,-0.009790802226094129
869,1069.0,-0.00999939712952477
870,1070.0,-0.010193625373288938
871,1071.0,-0.010374730830244372
872,1072.0,-0.010543818789118692
873,1073.0,-0.010701873362357627
874,1074.0,-0.010849772859289982
875,1075.0,-0.010988303350683749
876,1076.0,-0.011118169294313156
877,1077.0,-0.011240003708374658
878,1078.0,-0.011354376084141282
879,1079.0,-0.011461799846466298
880,1080.0,-0.011562738005676684
881,1081.0,-0.011657608809468463
882,1082.0,-0.011746790942648726
883,1083.0,-0.011830626692193766
884,1084.0,-0.011909425790535076
885,1085.0,-0.011983469258845327
886,1086.0,-0.012053010311336407
887,1087.0,-0.01211827887677298
888,1088.0,-0.012179481824542635
889,1089.0,-0.012236806355789262
890,1090.0,-0.012290419777330542
891,1091.0,-0.012340472214564222
892,1092.0,-0.012387097741841052
893,1093.0,-0.012430414156382607
894,1094.0,-0.01247052523903457
895,1095.0,-0.012507520302108692
896,1096.0,-0.012541475771907732
897,1097.0,-0.012572454510491158
898,1098.0,-0.012600506719972114
899,1099.0,-0.012625669942511715
900,1100.0,-0.012647969738539306
901,1101.0,-0.01266741833029072
902,1102.0,-0.012684015280028474
903,1103.0,-0.012697746811808594
904,1104.0,-0.012708585585396158
905,1105.0,-0.012716489339803653
906,1106.0,-0.012721401119359902
907,1107.0,-0.012723247239018557
908,1108.0,-0.012721936606124149
909,1109.0,-0.012717358459644668
910,1110.0,-0.012709381918012085
911,1111.0,-0.012697852587976169
912,1112.0,-0.012682590077760424
913,1113.0,-0.012663385962371381
914,1114.0,-0.012639999714223455
915,1115.0,-0.012612153955534049
916,1116.0,-0.012579531067178117
917,1117.0,-0.012541765502094286
918,1118.0,-0.012498439037681683
919,1119.0,-0.012449070376296046
920,1120.0,-0.012393107684731779
921,1121.0,-0.012329915255730585
922,1122.0,-0.012258760847714545
923,1123.0,-0.012178798050848948
924,1124.0,-0.012089046618419088
925,1125.0,-0.011988367824534626
926,1126.0,-0.01187543394385681
927,1127.0,-0.011748692079424724
928,1128.0,-0.01160631894743876
929,1129.0,-0.011446163906090793
930,1130.0,-0.011265679776287367
931,1131.0,-0.011061835124137366
932,1132.0,-0.010831003935833911
933,1133.0,-0.010568826128728764
934,1134.0,-0.010270029177323942
935,1135.0,-0.009928201358991896
936,1136.0,-0.009535497629031662
937,1137.0,-0.009082260943286555
938,1138.0,-0.008556531447040402
939,1139.0,-0.007943405775496053
940,1140.0,-0.007224208711137193
941,1141.0,-0.006375421357185801
942,1142.0,-0.005367314507897854
943,1143.0,-0.004162250365297791
944,1144.0,-0.0027126797314805055
945,1145.0,-0.0009590257107361896
946,1146.0,0.0011719528549530701
947,1147.0,0.003766856635409679
948,1148.0,0.006920199414241761
949,1149.0,0.010717493531234343
950,1150.0,0.015196141891446718
951,1151.0,0.020270911996630687
952,1152.0,0.025621925889976478
953,1153.0,0.030590619733636904
954,1154.0,0.034215341516874484
955,1155.0,0.03555511953533376
956,1156.0,0.034206676831212854
957,1157.0,0.030573278114356638
958,1158.0,0.02559588284117704
959,1159.0,0.020236131000571193
960,1160.0,0.015152574634660944
961,1161.0,0.010665079000280568
962,1162.0,0.006858863895769469
963,1163.0,0.0036965139423145014
964,1164.0,0.0010925047786234912
965,1165.0,-0.001047690982845082
966,1166.0,-0.0028106867114237478
967,1167.0,-0.004269736942734247
968,1168.0,-0.005484431723868015
969,1169.0,-0.006502334534332483
970,1170.0,-0.007361096775303822
971,1171.0,-0.008090461707692431
972,1172.0,-0.008713963413623035
973,1173.0,-0.009250292069669621
974,1174.0,-0.009714365999460123
975,1175.0,-0.010118161146682037
976,1176.0,-0.010471350870286937
977,1177.0,-0.010781796529503038
978,1178.0,-0.011055927743738436
979,1179.0,-0.011299034482826695
980,1180.0,-0.011515495403825099
981,1181.0,-0.01170895554678119
982,1182.0,-0.011882466049723466
983,1183.0,-0.012038594699838959
984,1184.0,-0.01217951297274699
985,1185.0,-0.012307066794292509
986,1186.0,-0.012422832155248231
987,1187.0,-0.012528160100441207
988,1188.0,-0.01262421470952086
989,1189.0,-0.012712002486839303
990,1190.0,-0.012792396777656883
991,1191.0,-0.012866158341056635
992,1192.0,-0.012933952757792268
993,1193.0,-0.012996363542692676
994,1194.0,-0.013053903674533336
995,1195.0,-0.013107026673756421
996,1196.0,-0.013156133836896875
997,1197.0,-0.013201580792781805
998,1198.0,-0.013243684963032569
999,1199.0,-0.013282728953199992
1000,1200.0,-0.013318965978581166
1001,1201.0,-0.01335262280320291
1002,1202.0,-0.013383903583106968
1003,1203.0,-0.013412991901028284
1004,1204.0,-0.01344005347930056
1005,1205.0,-0.013465238666686068
1006,1206.0,-0.013488682890521592
1007,1207.0,-0.013510510273927632
1008,1208.0,-0.013530832505422509
1009,1209.0,-0.013549752456131664
1010,1210.0,-0.013567363049401114
1011,1211.0,-0.013583750199779305
1012,1212.0,-0.01359899190870659
1013,1213.0,-0.013613159847040002
1014,1214.0,-0.013626320259351727
1015,1215.0,-0.013638533511770044
1016,1216.0,-0.013649855448428795
1017,1217.0,-0.013660338069688858
1018,1218.0,-0.013670028401751622
1019,1219.0,-0.013678970983488043
1020,1220.0,-0.013687206509976912
1021,1221.0,-0.013694772510724977
1022,1222.0,-0.013701704480041644
1023,1223.0,-0.013708034746651346
1024,1224.0,-0.013713793830143628
1025,1225.0,-0.013719009988814031
1026,1226.0,-0.01372370967180984
1027,1227.0,-0.013727917293047068
1028,1228.0,-0.01373165568335603
1029,1229.0,-0.013734946768703066
1030,1230.0,-0.013737810665879145
1031,1231.0,-0.013740265682493974
1032,1232.0,-0.01374232989950059
1033,1233.0,-0.013744020040809516
1034,1234.0,-0.013745351247205535
1035,1235.0,-0.013746338432797336
1036,1236.0,-0.013746995154630834
1037,1237.0,-0.013747334743062157
1038,1238.0,-0.013747368945295674
1039,1239.0,-0.01374710973398509
1040,1240.0,-0.013746567498617872
1041,1241.0,-0.013745753080194253
1042,1242.0,-0.01374467551045936
1043,1243.0,-0.013743344498732988
1044,1244.0,-0.013741768171143025
1045,1245.0,-0.013739955331378279
1046,1246.0,-0.01373791319992249
1047,1247.0,-0.013735649222655393
1048,1248.0,-0.013733170618693936
1049,1249.0,-0.013730483928233918
1050,1250.0,-0.013727595012542686
1051,1251.0,-0.013724510410409686
1052,1252.0,-0.01372123530345451
1053,1253.0,-0.013717775324728749
1054,1254.0,-0.013714135428329985
1055,1255.0,-0.01371032056762191
1056,1256.0,-0.013706335017000429
1057,1257.0,-0.013702183502267134
1058,1258.0,-0.01369787029631807
1059,1259.0,-0.013693398766985204
1060,1260.0,-0.013688773411714785
1061,1261.0,-0.013683997144646607
1062,1262.0,-0.013679073783445616
1063,1263.0,-0.013674006466761587
1064,1264.0,-0.013668798332451616
1065,1265.0,-0.013663452291496505
1066,1266.0,-0.013657971027994304
1067,1267.0,-0.013652357225230963
1068,1268.0,-0.013646613565671253
1069,1269.0,-0.01364074227880216
1070,1270.0,-0.013634745819353637
1071,1271.0,-0.013628626189063305
1072,1272.0,-0.013622385614898539
1073,1273.0,-0.01361602587082174
1074,1274.0,-0.013609548956011335
1075,1275.0,-0.013602956642703072
1076,1276.0,-0.01359625047618397
1077,1277.0,-0.013589432000861268
1078,1278.0,-0.013582502760255058
1079,1279.0,-0.013575464070917073
1080,1280.0,-0.013568317474575363
1081,1281.0,-0.013561064059898847
1082,1282.0,-0.013553705140719432
1083,1283.0,-0.013546241577798037
1084,1284.0,-0.013538674457044536
1085,1285.0,-0.013531004637359602
1086,1286.0,-0.013523232976704807
1087,1287.0,-0.01351536055817074
1088,1288.0,-0.013507387785667154
1089,1289.0,-0.013499315740371979
1090,1290.0,-0.013491144372116834
1091,1291.0,-0.013482874760140593
1092,1292.0,-0.01347450730447386
1093,1293.0,-0.013466042178085235
1094,1294.0,-0.013457479779025991
1095,1295.0,-0.013448820504348086
1096,1296.0,-0.01344006452402123
1097,1297.0,-0.013431212007001427
1098,1298.0,-0.013422263121225624
1099,1299.0,-0.013413217807528268
1100,1300.0,-0.013404076005710593
1101,1301.0,-0.013394837880610235
1102,1302.0,-0.013385502917791196
1103,1303.0,-0.013376071053915507
1104,1304.0,-0.013366542224586102
1105,1305.0,-0.013356915686111382
1106,1306.0,-0.013347191371955246
1107,1307.0,-0.0133373687623493
1108,1308.0,-0.013327447336439145
1109,1309.0,-0.013317426346201772
1110,1310.0,-0.013307305042513935
1111,1311.0,-0.01329708312729862
1112,1312.0,-0.013286759170985369
1113,1313.0,-0.01327633287326514
1114,1314.0,-0.013265803028397102
1115,1315.0,-0.013255168429508964
1116,1316.0,-0.013244428320739864
1117,1317.0,-0.01323358126685526
1118,1318.0,-0.013222625831467475
1119,1319.0,-0.01321156102918128
1120,1320.0,-0.013200385195207142
1121,1321.0,-0.013189096663582768
1122,1322.0,-0.01317769399324246
1123,1323.0,-0.013166175515858022
1124,1324.0,-0.013154539109756034
1125,1325.0,-0.013142782878140672
1126,1326.0,-0.013130905149084831
1127,1327.0,-0.0131189031190687
1128,1328.0,-0.013106774887657482
1129,1329.0,-0.013094517874961896
1130,1330.0,-0.013082129725935615
1131,1331.0,-0.013069607406065038
1132,1332.0,-0.013056948557818231
1133,1333.0,-0.013044149692030712
1134,1334.0,-0.01303120799650582
1135,1335.0,-0.01301812020562973
1136,1336.0,-0.013004882826439015
1137,1337.0,-0.012991491912538827
1138,1338.0,-0.012977943968400563
1139,1339.0,-0.012964234818974428
1140,1340.0,-0.012950360287911189
1141,1341.0,-0.012936315971479966
1142,1342.0,-0.012922097238560207
1143,1343.0,-0.012907699004560588
1144,1344.0,-0.012893116183563154
1145,1345.0,-0.01287834323616596
1146,1346.0,-0.012863374847702377
1147,1347.0,-0.012848204571780536
1148,1348.0,-0.0128328261867319
1149,1349.0,-0.012817233017375492
1150,1350.0,-0.012801418387165236
1151,1351.0,-0.012785374487801827
1152,1352.0,-0.012769093735682234
1153,1353.0,-0.012752568093665923
1154,1354.0,-0.012735788844991361
1155,1355.0,-0.01271874681934505
1156,1356.0,-0.012701432392856066
1157,1357.0,-0.012683835714164208
1158,1358.0,-0.012665945800110242
1159,1359.0,-0.012647751666108386
1160,1360.0,-0.012629241195759974
1161,1361.0,-0.012610401819075698
1162,1362.0,-0.012591220512467523
1163,1363.0,-0.01257168289443796
1164,1364.0,-0.012551773903803572
1165,1365.0,-0.012531478251837251
1166,1366.0,-0.012510778839731859
1167,1367.0,-0.0124896581150491
1168,1368.0,-0.012468096941331303
1169,1369.0,-0.012446075728477253
1170,1370.0,-0.012423572850201028
1171,1371.0,-0.012400566000483648
1172,1372.0,-0.012377031063184085
1173,1373.0,-0.012352942338110727
1174,1374.0,-0.012328272767088979
1175,1375.0,-0.012302992803575727
1176,1376.0,-0.01227707199518383
1177,1377.0,-0.012250476722916053
1178,1378.0,-0.012223172009766392
1179,1379.0,-0.012195119486028213
1180,1380.0,-0.012166278745745792
1181,1381.0,-0.012136606216324633
1182,1382.0,-0.012106055158527945
1183,1383.0,-0.012074575440391005
1184,1384.0,-0.012042113537217033
1185,1385.0,-0.012008610722960278
1186,1386.0,-0.01197400510490417
1187,1387.0,-0.011938228910743549
1188,1388.0,-0.011901209618956287
1189,1389.0,-0.011862868376264768
1190,1390.0,-0.011823120223706934
1191,1391.0,-0.011781872966246507
1192,1392.0,-0.01173902626846476
1193,1393.0,-0.01169447142847675
1194,1394.0,-0.011648090247543774
1195,1395.0,-0.011599754125763754
1196,1396.0,-0.011549322027379285
1197,1397.0,-0.011496640480771914
1198,1398.0,-0.011441541543769543
1199,1399.0,-0.011383840542880698
1200,1400.0,-0.011323335395059456
1201,1401.0,-0.011259803442633049
1202,1402.0,-0.011192999418612461
1203,1403.0,-0.011122652281620468
1204,1404.0,-0.011048462729047383
1205,1405.0,-0.010970098901601324
1206,1406.0,-0.010887191861779414
1207,1407.0,-0.010799331072340197
1208,1408.0,-0.010706058970472854
1209,1409.0,-0.010606863281204111
1210,1410.0,-0.010501170009034293
1211,1411.0,-0.010388334168813053
1212,1412.0,-0.010267628708005495
1213,1413.0,-0.010138232298581214
1214,1414.0,-0.009999213737757641
1215,1415.0,-0.009849514992291723
1216,1416.0,-0.00968792904302102
1217,1417.0,-0.00951307501649059
1218,1418.0,-0.009323367890756471
1219,1419.0,-0.009116980740680765
1220,1420.0,-0.008891800200942079
1221,1421.0,-0.008645372433855436
1222,1422.0,-0.00837483508047312
1223,1423.0,-0.008076835647129412
1224,1424.0,-0.007747429319057383
1225,1425.0,-0.007381950549190087
1226,1426.0,-0.006974855483148993
1227,1427.0,-0.006519520073328694
1228,1428.0,-0.006007987099793854
1229,1429.0,-0.005430642203299954
1230,1430.0,-0.00477579926181647
1231,1431.0,-0.004029168659660633
1232,1432.0,-0.0031731673033985122
1233,1433.0,-0.002186024717151555
1234,1434.0,-0.0010406205595602928
1235,1435.0,0.00029702217306752453
1236,1436.0,0.0018696875048140392
1237,1437.0,0.0037314496994494666
1238,1438.0,0.005950761459226776
1239,1439.0,0.008614095331762004
1240,1440.0,0.011829792654726824
1241,1441.0,0.015731036908013616
1242,1442.0,0.020475302314263505
1243,1443.0,0.026234449673372386
1244,1444.0,0.033163972785796296
1245,1445.0,0.041331892788468036
1246,1446.0,0.050583257894053296
1247,1447.0,0.06033648775851738
1248,1448.0,0.06939420887109361
1249,1449.0,0.0760079771872959
1250,1450.0,0.07846694985872957
1251,1451.0,0.07603791033701153
1252,1452.0,0.06945408140972249
1253,1453.0,0.06042631171231551
1254,1454.0,0.050703051754590625
1255,1455.0,0.041481681060515335
1256,1456.0,0.03334378576130321
1257,1457.0,0.026444324561914555
1258,1458.0,0.020715281886665004
1259,1459.0,0.016001170852897414
1260,1460.0,0.012130136900393223
1261,1461.0,0.008944712272383587
1262,1462.0,0.006311719728907414
1263,1463.0,0.004122825528825749
1264,1464.0,0.0022915629126068825
1265,1465.0,0.000749486774863532
1266,1466.0,-0.0005574702293487764
1267,1467.0,-0.0016720845268602237
1268,1468.0,-0.002628326654278334
1269,1469.0,-0.003453308677041332
1270,1470.0,-0.0041687932470199475
1271,1471.0,-0.004792355859463429
1272,1472.0,-0.00533827807945078
1273,1473.0,-0.005818237299900321
1274,1474.0,-0.006241839150652905
1275,1475.0,-0.006617032121931986
1276,1476.0,-0.006950431079160553
1277,1477.0,-0.007247570468124649
1278,1478.0,-0.007513105748725218
1279,1479.0,-0.007750971648202201
1280,1480.0,-0.007964510346246814
1281,1481.0,-0.008156572983139992
1282,1482.0,-0.00832960240357752
1283,1483.0,-0.008485699849097647
1284,1484.0,-0.008626680346706272
1285,1485.0,-0.008754115889393519
1286,1486.0,-0.008869374547283948
1287,1487.0,-0.00897364917928877
1288,1488.0,-0.009067983657918348
1289,1489.0,-0.009153294120425653
1290,1490.0,-0.009230385924502248
1291,1491.0,-0.00929996992574693
1292,1492.0,-0.009362674007538192
1293,1493.0,-0.009419054158752436
1294,1494.0,-0.009469603516801038
1295,1495.0,-0.009514760506359042
1296,1496.0,-0.00955491449126126
1297,1497.0,-0.009590412330701525
1298,1498.0,-0.009621563578972873
1299,1499.0,-0.00964864319837479
1300,1500.0,-0.009671896758956435
1301,1501.0,-0.009691542925345003
1302,1502.0,-0.009707775943575584
1303,1503.0,-0.00972076858007473
1304,1504.0,-0.009730673704184357
1305,1505.0,-0.009737625870688549
1306,1506.0,-0.009741744032717452
1307,1507.0,-0.009743131315668658
1308,1508.0,-0.009741877277956399
1309,1509.0,-0.00973805836315919
1310,1510.0,-0.00973173880431854
1311,1511.0,-0.009722971528233737
1312,1512.0,-0.009711798381533446
1313,1513.0,-0.009698251713199758
1314,1514.0,-0.009682352792030727
1315,1515.0,-0.009664113841316865
1316,1516.0,-0.009643537360607099
1317,1517.0,-0.009620617030006329
1318,1518.0,-0.009595336805863847
1319,1519.0,-0.009567671146843112
1320,1520.0,-0.009537585239991642
1321,1521.0,-0.009505035226809618
1322,1522.0,-0.009469966168559121
1323,1523.0,-0.009432313854866174
1324,1524.0,-0.009392002769029417
1325,1525.0,-0.0093489460880125
1326,1526.0,-0.00930304523028768
1327,1527.0,-0.00925418895152181
1328,1528.0,-0.009202251988116937
1329,1529.0,-0.009147094378972221
1330,1530.0,-0.009088560561174915
1331,1531.0,-0.009026477335309686
1332,1532.0,-0.0089606525089934
1333,1533.0,-0.008890873766491014
1334,1534.0,-0.008816905503643222
1335,1535.0,-0.008738486793172982
1336,1536.0,-0.008655329123923331
1337,1537.0,-0.00856711300970565
1338,1538.0,-0.008473483919925641
1339,1539.0,-0.008374048662361256
1340,1540.0,-0.008268371313784799
1341,1541.0,-0.008155965759448842
1342,1542.0,-0.008036291397632848
1343,1543.0,-0.007908744548749083
1344,1544.0,-0.007772650090519591
1345,1545.0,-0.007627251510625317
1346,1546.0,-0.00747169892466888
1347,1547.0,-0.007305035511604004
1348,1548.0,-0.007126180331950375
1349,1549.0,-0.0069339095634755
1350,1550.0,-0.006726832989277429
1351,1551.0,-0.006503366416502662
1352,1552.0,-0.006261697538855329
1353,1553.0,-0.005999746825434561
1354,1554.0,-0.005715117557922058
1355,1555.0,-0.00540503705080298
1356,1556.0,-0.005066282498416851
1357,1557.0,-0.0046950925792164444
1358,1558.0,-0.004287053965584911
1359,1559.0,-0.003836964321748374
1360,1560.0,-0.003338655738373332
1361,1561.0,-0.0027847765691775485
1362,1562.0,-0.002166512227007886
1363,1563.0,-0.0014732282097536717
1364,1564.0,-0.000692015235337659
1365,1565.0,0.0001928994603153267
1366,1566.0,0.0012009137734845536
1367,1567.0,0.0023560355199161104
1368,1568.0,0.0036881606687953787
1369,1569.0,0.005234719854594611
1370,1570.0,0.007042776136715053
1371,1571.0,0.009171628039085626
1372,1572.0,0.011695885088700063
1373,1573.0,0.01470872692790584
1374,1574.0,0.018324460008414756
1375,1575.0,0.022678191137498326
1376,1576.0,0.02791781489077132
1377,1577.0,0.034178837783705986
1378,1578.0,0.041525965421078045
1379,1579.0,0.04984162326827377
1380,1580.0,0.05865833505376433
1381,1581.0,0.06700316436332401
1382,1582.0,0.07345175133657217
1383,1583.0,0.07661479372851267
1384,1584.0,0.07591463508353392
1385,1585.0,0.07198992209358786
1386,1586.0,0.06629413423404738
1387,1587.0,0.06032240142535078
1388,1588.0,0.05512887010755354
1389,1589.0,0.05127715731837931
1390,1590.0,0.04900119724380961
1391,1591.0,0.04837890379364621
1392,1592.0,0.04944992072758929
1393,1593.0,0.052278895140792224
1394,1594.0,0.056979993150304074
1395,1595.0,0.06370972039808426
1396,1596.0,0.07261970765131322
1397,1597.0,0.08374404490053412
1398,1598.0,0.09678608057047487
1399,1599.0,0.1107997508295538
1400,1600.0,0.12389382622817438
1401,1601.0,0.13333018401697241
1402,1602.0,0.13643464005090677
1403,1603.0,0.13205274423685767
1404,1604.0,0.12130648125000518
1405,1605.0,0.10683587402104318
1406,1606.0,0.09134137515870369
1407,1607.0,0.0766709865706253
1408,1608.0,0.06371959729523922
1409,1609.0,0.05272192334708944
1410,1610.0,0.04356796179736284
1411,1611.0,0.03601285355025366
1412,1612.0,0.029786963387026282
1413,1613.0,0.024643444783583626
1414,1614.0,0.02037350592156182
1415,1615.0,0.0168071977894347
1416,1616.0,0.013808746842547424
1417,1617.0,0.011270549292958816
1418,1618.0,0.009107485070816159
1419,1619.0,0.007252103987108872
1420,1620.0,0.005650747851257481
1421,1621.0,0.0042605117829882175
1422,1622.0,0.0030468862391736387
1423,1623.0,0.001981942979650751
1424,1624.0,0.0010429356564982683
1425,1625.0,0.00021122210953465248
1426,1626.0,-0.0005285703064390058
1427,1627.0,-0.001189195594569028
1428,1628.0,-0.0017812955262846658
1429,1629.0,-0.002313799795893361
1430,1630.0,-0.0027942407184319822
1431,1631.0,-0.003229004626220261
1432,1632.0,-0.003623532624384833
1433,1633.0,-0.003982482235226715
1434,1634.0,-0.004309856939785901
1435,1635.0,-0.004609113790036914
1436,1636.0,-0.004883249091697902
1437,1637.0,-0.0051348698442610936
1438,1638.0,-0.005366253198980353
1439,1639.0,-0.005579394160913855
1440,1640.0,-0.005776047412985614
1441,1641.0,-0.0059577598709275575
1442,1642.0,-0.006125900525312805
1443,1643.0,-0.006281684405609601
1444,1644.0,-0.006426191796637348
1445,1645.0,-0.006560386776796604
1446,1646.0,-0.006685131686930806
1447,1647.0,-0.006801199338422496
1448,1648.0,-0.006909284316993308
1449,1649.0,-0.007010012025735155
1450,1650.0,-0.007103947275996657
1451,1651.0,-0.007191600391426408
1452,1652.0,-0.007273434216327041
1453,1653.0,-0.007349868863243622
1454,1654.0,-0.007421286460554471
1455,1655.0,-0.007488034995756091
1456,1656.0,-0.007550432610903994
1457,1657.0,-0.007608769637288305
1458,1658.0,-0.007663311986567624
1459,1659.0,-0.007714304089753745
1460,1660.0,-0.00776196957542845
1461,1661.0,-0.00780651511303477
1462,1662.0,-0.007848129960713792
1463,1663.0,-0.007886989582518406
1464,1664.0,-0.007923255648404508
1465,1665.0,-0.007957077390679523
1466,1666.0,-0.007988593412608191
1467,1667.0,-0.008017931914477479
1468,1668.0,-0.008045211823972429
1469,1669.0,-0.008070543474398647
1470,1670.0,-0.008094029735052551
1471,1671.0,-0.008115766463369228
1472,1672.0,-0.008135842504917418
1473,1673.0,-0.008154341049843684
1474,1674.0,-0.00817133963287207
1475,1675.0,-0.008186910585444003
1476,1676.0,-0.008201121940020982
1477,1677.0,-0.008214036751845212
1478,1678.0,-0.008225714907543034
1479,1679.0,-0.008236211542588264
1480,1680.0,-0.008245579075975779
1481,1681.0,-0.00825386675806588
1482,1682.0,-0.008261120444500355
1483,1683.0,-0.008267383726576002
1484,1684.0,-0.008272696800857638
1485,1685.0,-0.008277098729933985
1486,1686.0,-0.008280624955569773
1487,1687.0,-0.00828331001161804
1488,1688.0,-0.008285186167550487
1489,1689.0,-0.00828628320238064
1490,1690.0,-0.008286630213261722
1491,1691.0,-0.008286254032948562
1492,1692.0,-0.008285180360172385
1493,1693.0,-0.008283433081404593
1494,1694.0,-0.008281035627306808
1495,1695.0,-0.008278009390193191
1496,1696.0,-0.008274374854401178
1497,1697.0,-0.008270151596286851
1498,1698.0,-0.008265357832067107
1499,1699.0,-0.008260011548189969
1500,1700.0,-0.00825412869272361
1501,1701.0,-0.008247725436105557
1502,1702.0,-0.008240816814684656
1503,1703.0,-0.008233416730710702
1504,1704.0,-0.008225538856632906
1505,1705.0,-0.008217195956867006
1506,1706.0,-0.008208400339937237
1507,1707.0,-0.008199163632396703
1508,1708.0,-0.008189496778819624
1509,1709.0,-0.008179410267869898
1510,1710.0,-0.008168914132295547
1511,1711.0,-0.008158017722845764
1512,1712.0,-0.008146730612568051
1513,1713.0,-0.008135060788193938
1514,1714.0,-0.008123017136967751
1515,1715.0,-0.008110606959803974
1516,1716.0,-0.008097838005965865
1517,1717.0,-0.00808471711660076
1518,1718.0,-0.008071251581191517
1519,1719.0,-0.008057447328939964
1520,1720.0,-0.008043310963444622
1521,1721.0,-0.008028848180164333
1522,1722.0,-0.008014064444636869
1523,1723.0,-0.007998965444623722
1524,1724.0,-0.0079835559597279
1525,1725.0,-0.00796784099176179
1526,1726.0,-0.007951825086515703
1527,1727.0,-0.007935512785902878
1528,1728.0,-0.007918908401876774
1529,1729.0,-0.007902015790347236
1530,1730.0,-0.007884838577249996
1531,1731.0,-0.007867380836771274
1532,1732.0,-0.007849645960956178
1533,1733.0,-0.007831636885781014
1534,1734.0,-0.00781335722152686
1535,1735.0,-0.007794809896315018
1536,1736.0,-0.007775997608253704
1537,1737.0,-0.007756923051507389
1538,1738.0,-0.007737588916289858
1539,1739.0,-0.007717997662780532
1540,1740.0,-0.007698151747197039
1541,1741.0,-0.007678053169631463
1542,1742.0,-0.007657704152277111
1543,1743.0,-0.007637106687265269
1544,1744.0,-0.007616262762737986
1545,1745.0,-0.007595174136763468
1546,1746.0,-0.007573842337329138
1547,1747.0,-0.00755226934056584
1548,1748.0,-0.007530456214280926
1549,1749.0,-0.007508404700486592
1550,1750.0,-0.007486116085012787
1551,1751.0,-0.007463591649652053
1552,1752.0,-0.007440832672151976
1553,1753.0,-0.007417840200135508
1554,1754.0,-0.0073946152771660455
1555,1755.0,-0.00737115871666909
1556,1756.0,-0.007347471780149876
1557,1757.0,-0.007323555272886105
1558,1758.0,-0.007299409769993325
1559,1759.0,-0.007275036068574447
1560,1760.0,-0.007250434961634941
1561,1761.0,-0.0072256070119991024
1562,1762.0,-0.007200552778381445
1563,1763.0,-0.00717527281538002
1564,1764.0,-0.00714976744739202
1565,1765.0,-0.007124037446835558
1566,1766.0,-0.007098082903765416
1567,1767.0,-0.007071904130166322
1568,1768.0,-0.007045501433874826
1569,1769.0,-0.007018875118567937
1570,1770.0,-0.00699202548376071
1571,1771.0,-0.0069649525987207665
1572,1772.0,-0.006937656528537683
1573,1773.0,-0.006910137560195515
1574,1774.0,-0.00688239529825813
1575,1775.0,-0.006854430247396155
1576,1776.0,-0.006826242003773312
1577,1777.0,-0.006797830837570342
1578,1778.0,-0.006769196562598522
1579,1779.0,-0.006740338762370656
1580,1780.0,-0.006711257694394608
1581,1781.0,-0.006681952933716623
1582,1782.0,-0.006652424503287341
1583,1783.0,-0.006622671969658129
1584,1784.0,-0.006592695121197469
1585,1785.0,-0.006562493742009955
1586,1786.0,-0.006532067159779472
1587,1787.0,-0.006501415602215188
1588,1788.0,-0.006470538388438668
1589,1789.0,-0.006439435059357595
1590,1790.0,-0.006408105377659142
1591,1791.0,-0.006376548649572353
1592,1792.0,-0.006344764855247055
1593,1793.0,-0.0063127530662096965
1594,1794.0,-0.006280513027892345
1595,1795.0,-0.0062480442553195644
1596,1796.0,-0.006215346033104148
1597,1797.0,-0.006182417867590264
1598,1798.0,-0.006149259260770907
1599,1799.0,-0.006115869484208746
1600,1800.0,-0.006082247805099958
1601,1801.0,-0.006048393938423904
1602,1802.0,-0.006014307142630465
1603,1803.0,-0.005979986445710408
1604,1804.0,-0.005945431549490473
1605,1805.0,-0.005910641473175293
1606,1806.0,-0.005875615457638627
1607,1807.0,-0.005840353191498663
1608,1808.0,-0.005804853454650687
1609,1809.0,-0.00576911547471966
1610,1810.0,-0.005733138927051321
1611,1811.0,-0.005696922578250313
1612,1812.0,-0.005660465868707133
1613,1813.0,-0.0056237677822087734
1614,1814.0,-0.005586827524160465
1615,1815.0,-0.00554964429550621
1616,1816.0,-0.005512217292718244
1617,1817.0,-0.005474545707791076
1618,1818.0,-0.005436628276085229
1619,1819.0,-0.0053984644066978355
1620,1820.0,-0.005360053052079139
1621,1821.0,-0.005321393386248531
1622,1822.0,-0.0052824841265659735
1623,1823.0,-0.005243324890177017
1624,1824.0,-0.005203914385399859
1625,1825.0,-0.005164251542099638
1626,1826.0,-0.005124335511678972
1627,1827.0,-0.0050841654409977234
1628,1828.0,-0.005043739794137747
1629,1829.0,-0.005003058161003745
1630,1830.0,-0.0049621192226325635
1631,1831.0,-0.004920921881567633
1632,1832.0,-0.0048794652618506466
1633,1833.0,-0.004837748256865453
1634,1834.0,-0.004795769529326857
1635,1835.0,-0.004753528415583821
1636,1836.0,-0.004711023569152655
1637,1837.0,-0.00466825386501364
1638,1838.0,-0.004625218173533885
1639,1839.0,-0.004581915586530331
1640,1840.0,-0.004538344739038204
1641,1841.0,-0.004494504487533056
1642,1842.0,-0.004450393909921825
1643,1843.0,-0.004406011627308705
1644,1844.0,-0.00436135670829604
1645,1845.0,-0.004316427764666729
1646,1846.0,-0.00427122362961377
1647,1847.0,-0.004225743131649441
1648,1848.0,-0.004179985094605246
1649,1849.0,-0.004133948111545924
1650,1850.0,-0.004087631449066074
1651,1851.0,-0.004041033464755754
1652,1852.0,-0.003994152963644008
1653,1853.0,-0.003946988746044512
1654,1854.0,-0.0038995396075482743
1655,1855.0,-0.003851804112938568
1656,1856.0,-0.0038037812744144183
1657,1857.0,-0.0037554696472813795
1658,1858.0,-0.003706867782092011
1659,1859.0,-0.00365797490287224
1660,1860.0,-0.003608789098503179
1661,1861.0,-0.003559309357401654
1662,1862.0,-0.003509534437130596
1663,1863.0,-0.0034594628643929764
1664,1864.0,-0.003409093387179836
1665,1865.0,-0.0033584245226077596
1666,1866.0,-0.0033074552351414857
1667,1867.0,-0.0032561838062108266
1668,1868.0,-0.003204608964577198
1669,1869.0,-0.0031527296602567234
1670,1870.0,-0.00310054416020788
1671,1871.0,-0.0030480509526278673
1672,1872.0,-0.0029952491990977584
1673,1873.0,-0.0029421371520454774
1674,1874.0,-0.0028887132851195254
1675,1875.0,-0.0028349765192548226
1676,1876.0,-0.0027809250922894205
1677,1877.0,-0.002726557915413169
1678,1878.0,-0.002671873216704246
1679,1879.0,-0.0026168698975783367
1680,1880.0,-0.002561546176327683
1681,1881.0,-0.0025059009445685667
1682,1882.0,-0.002449932410778353
1683,1883.0,-0.002393639456748784
1684,1884.0,-0.0023370202811174696
1685,1885.0,-0.0022800735297443895
1686,1886.0,-0.002222797617479361
1687,1887.0,-0.0021651914063776584
1688,1888.0,-0.0021072528492437933
1689,1889.0,-0.0020489810243031485
1690,1890.0,-0.0019903741005160513
1691,1891.0,-0.0019314304679474404
1692,1892.0,-0.0018721487377613116
1693,1893.0,-0.0018125275161409468
1694,1894.0,-0.0017525649521255141
1695,1895.0,-0.0016922596419091606
1696,1896.0,-0.0016316101766866084
1697,1897.0,-0.0015706149165617134
1698,1898.0,-0.001509271990549419
1699,1899.0,-0.0014475804269439287
1700,1900.0,-0.0013855381186316511
1701,1901.0,-0.0013231438577621132
1702,1902.0,-0.0012603957532179835
1703,1903.0,-0.00119729236098386
1704,1904.0,-0.001133832005908908
1705,1905.0,-0.0010700132338573572
1706,1906.0,-0.0010058341334712928
1707,1907.0,-0.0009412934665446879
1708,1908.0,-0.0008763893115586501
1709,1909.0,-0.0008111201940596173
1710,1910.0,-0.0007454844084189625
1711,1911.0,-0.0006794804699806638
1712,1912.0,-0.000613106436829646
1713,1913.0,-0.0005463608140852718
1714,1914.0,-0.0004792418756657249
1715,1915.0,-0.0004117481164374805
1716,1916.0,-0.0003438775739791746
1717,1917.0,-0.0002756289589528107
1718,1918.0,-0.00020700007256663477
1719,1919.0,-0.00013798984125468737
1720,1920.0,-6.859605590555353e-05
1721,1921.0,1.1828195333338794e-06
1722,1922.0,7.134855236583913e-05
1723,1923.0,0.00014190268900469643
1724,1924.0,0.00021284700712622266
1725,1925.0,0.00028418328960462953
1726,1926.0,0.0003559133245158791
1727,1927.0,0.00042803890514770727
1728,1928.0,0.0005005616039259173
1729,1929.0,0.0005734832245766487
1730,1930.0,0.0006468055760552922
1731,1931.0,0.0007205302464777693
1732,1932.0,0.0007946592813544005
1733,1933.0,0.0008691942792938956
1734,1934.0,0.0009441372963129859
1735,1935.0,0.0010194897154626468
1736,1936.0,0.001095253377217347
1737,1937.0,0.001171430353402267
1738,1938.0,0.001248022495049639
1739,1939.0,0.0013250312063295625
1740,1940.0,0.0014024585749370952
1741,1941.0,0.0014803064677934685
1742,1942.0,0.0015585767571292515
1743,1943.0,0.0016372708683397659
1744,1944.0,0.001716391136447938
1745,1945.0,0.0017959392235766328
1746,1946.0,0.001875916797186891
1747,1947.0,0.0019563262083085583
1748,1948.0,0.0020371686829425625
1749,1949.0,0.002118446582825789
1750,1950.0,0.0022001615968300164
1751,1951.0,0.002282315645272061
1752,1952.0,0.0023649104277692424
1753,1953.0,0.002447948327550452
1754,1954.0,0.0025314306028529853
1755,1955.0,0.002615359647691009
1756,1956.0,0.0026997371832529616
1757,1957.0,0.0027845653882902304
1758,1958.0,0.0028698457687410667
1759,1959.0,0.0029555802881182382
1760,1960.0,0.0030417713675172557
1761,1961.0,0.0031284203030888585
1762,1962.0,0.003215529752883819
1763,1963.0,0.0033031010239443536
1764,1964.0,0.003391136333075115
1765,1965.0,0.003479637676465768
1766,1966.0,0.0035686070557764643
1767,1967.0,0.0036580462520675325
1768,1968.0,0.003747957504033344
1769,1969.0,0.003838342829782014
1770,1970.0,0.003929203800766583
1771,1971.0,0.004020542898246013
1772,1972.0,0.004112361704684283
1773,1973.0,0.004204662712366663
1774,1974.0,0.004297447514796855
1775,1975.0,0.004390718389235555
1776,1976.0,0.004484477166327861
1777,1977.0,0.0045787261344129
1778,1978.0,0.004673467135228388
1779,1979.0,0.004768702468219848
1780,1980.0,0.004864433760166782
1781,1981.0,0.0049606633216465025
1782,1982.0,0.005057393242736477
1783,1983.0,0.005154625619097748
1784,1984.0,0.005252362551978589
1785,1985.0,0.005350605922149013
1786,1986.0,0.0054493578420575
1787,1987.0,0.005548620655837673
1788,1988.0,0.005648396261087384
1789,1989.0,0.005748686787102329
1790,1990.0,0.005849494368808916
1791,1991.0,0.005950821146768483
1792,1992.0,0.006052669267185267
1793,1993.0,0.0061550408819137
1794,1994.0,0.006257937922386553
1795,1995.0,0.006361362777852304
1796,1996.0,0.006465317391077479
1797,1997.0,0.006569804162655772
1798,1998.0,0.0066748250467108
1799,1999.0,0.006780382229131566
1800,2000.0,0.006886477901504973
