pixel_index,raman_shift_cm-1,intensity
0,200.000,-0.0014052319083527828
1,201.000,-0.003987588887993799
2,202.000,-0.0011596245883881745
3,203.000,-0.0033321274159908132
4,204.000,0.0019109518084171643
5,205.000,-0.0021699983404187585
6,206.000,0.0002401476893848299
7,207.000,0.003594272051657245
8,208.000,0.0008889951187467186
9,209.000,-0.002562590592257558
10,210.000,-0.0021269010264958524
11,211.000,-0.0021091648011655564
12,212.000,-0.002585952761769687
13,213.000,0.002016079362122666
14,214.000,0.0018112826229491098
15,215.000,-0.001255732390556067
16,216.000,0.0010878487502278828
17,217.000,-0.0009795580822275181
18,218.000,0.0020654991176083048
19,219.000,0.0016416891399341487
20,220.000,-0.00022993344641690467
21,221.000,-0.0004901492230022031
22,222.000,0.0006874110408045
23,223.000,0.0010902752877728489
24,224.000,0.0007926872353194285
25,225.000,0.001181802996379798
26,226.000,0.0011718386971933286
27,227.000,0.000224140557461852
28,228.000,-0.0012444694566970088
29,229.000,-0.0023815836410606165
30,230.000,0.0012569129962207463
31,231.000,0.001142871412147821
32,232.000,5.328946590004585e-05
33,233.000,0.0007425299563271455
34,234.000,0.001347817423301969
35,235.000,0.0022766422828488756
36,236.000,0.0026617617836761968
37,237.000,0.004225509489921895
38,238.000,0.0010885023279695429
39,239.000,0.001576115189644019
40,240.000,0.002763812062365316
41,241.000,0.0012222995695161168
42,242.000,0.0006463192732593104
43,243.000,0.0010980162865295764
44,244.000,-0.0021896987704154445
45,245.000,0.0009142145094127201
46,246.000,0.0005338092260189671
47,247.000,-0.0005924425025899601
48,248.000,0.0028922765387363355
49,249.000,-0.00323048582063122
50,250.000,-0.0013729383512661852
51,251.000,-0.0035970378437035553
52,252.000,0.0009443867002127704
53,253.000,-0.0005439243751139414
54,254.000,0.0031278785333887305
55,255.000,0.004138038002808698
56,256.000,-0.0022717832116328726
57,257.000,0.0032012250409938522
58,258.000,0.000773549178831018
59,259.000,-5.9426343140182836e-05
60,260.000,-0.0015499127498880747
61,261.000,0.001634079424779802
62,262.000,0.0002543152729465634
63,263.000,0.0018735015829101287
64,264.000,-0.002948085955513811
65,265.000,0.0014025579517110219
66,266.000,0.0029126084554838964
67,267.000,-0.0018310931923141392
68,268.000,-0.00041691948206266043
69,269.000,-0.000870701884863052
70,270.000,4.50971797601345e-07
71,271.000,0.0021303573197969934
72,272.000,0.0007790892837343712
73,273.000,0.0011308375027103581
74,274.000,0.00030599840823094035
75,275.000,0.000657830888557494
76,276.000,0.004195109130745592
77,277.000,-0.0014871213176801358
78,278.000,0.0007781510477971642
79,279.000,0.0032503651876532665
80,280.000,-0.0003930186079609544
81,281.000,-0.0014739421481632501
82,282.000,0.0007845681650346909
83,283.000,-0.00012282906462170713
84,284.000,0.0011257464760911107
85,285.000,0.003943049032372618
86,286.000,-0.0019885126458929424
87,287.000,0.0006851807974919396
88,288.000,0.0031407165548907757
89,289.000,-0.00012879047627789288
90,290.000,-0.0009627900734647805
91,291.000,-0.0039594276085263705
92,292.000,0.0001024715854419521
93,293.000,0.002567229069151291
94,294.000,0.003419050415361372
95,295.000,-0.00046259954839394235
96,296.000,-0.0006764311872130754
97,297.000,0.0012530625365268807
98,298.000,0.0015423854025707986
99,299.000,-0.0005501076434347274
100,300.000,-0.0011715003894487317
101,301.000,0.0014488846529011458
102,302.000,-0.0005025495273011182
103,303.000,-0.001203342974737728
104,304.000,-0.001556536260096652
105,305.000,0.0025157356008020846
106,306.000,-0.0012273827064957982
107,307.000,-0.0009204189219675434
108,308.000,0.0007344143574838174
109,309.000,-0.001767882978038029
110,310.000,-0.0024586575299823717
111,311.000,-0.0021952600195528347
112,312.000,0.0015292191720628014
113,313.000,0.0041410840348523985
114,314.000,0.0020093829516444977
115,315.000,0.0009733281072405007
116,316.000,-0.0018601494724939526
117,317.000,-8.630129577274612e-05
118,318.000,4.156135889216707e-05
119,319.000,-0.0007885903032855162
120,320.000,-0.0024518920062616034
121,321.000,-0.002042468628543537
122,322.000,0.00011985498609084984
123,323.000,-0.00019237213478477753
124,324.000,-0.0013072529992653812
125,325.000,0.001744373745644387
126,326.000,-2.9515457202563607e-05
127,327.000,-0.004217894094227062
128,328.000,9.021108555614925e-05
129,329.000,-0.00263346953619197
130,330.000,0.0011732105477210912
131,331.000,0.0006930663344455189
132,332.000,-0.0013226927083107615
133,333.000,-0.0023475957049807917
134,334.000,-0.0033784276079919947
135,335.000,-0.0006720063617587937
136,336.000,7.777575125756044e-05
137,337.000,0.0004810335334474691
138,338.000,0.0013381661850134846
139,339.000,-0.003303657178237973
140,340.000,0.002046744182017227
141,341.000,0.00033709842064397026
142,342.000,-0.0027674444524215733
143,343.000,0.0017326415360239338
144,344.000,0.002591446160006809
145,345.000,0.0014393126265939058
146,346.000,-0.0006220977642056359
147,347.000,-0.0018559338802809652
148,348.000,0.0010991451361587014
149,349.000,-0.0005863397085927489
150,350.000,-0.002407761465141114
151,351.000,0.0005665490211194264
152,352.000,-0.0007665072021398519
153,353.000,0.0016984459446307276
154,354.000,-0.00046400295747996975
155,355.000,0.0004951042322353303
156,356.000,0.0011045495392615168
157,357.000,-0.0014368709409409723
158,358.000,0.0011194069929069148
159,359.000,-0.000821525761447216
160,360.000,0.001043330354426321
161,361.000,-0.0036899932614863954
162,362.000,0.00011101070013719155
163,363.000,0.000276612972288427
164,364.000,-0.0010504824704858308
165,365.000,-0.0006726744564372555
166,366.000,0.001633096691275442
167,367.000,-0.0009751054852419638
168,368.000,0.0006622446685163831
169,369.000,-0.0017852013680569017
170,370.000,-0.0016985535593144099
171,371.000,0.0010278407828588829
172,372.000,-0.002196623664855449
173,373.000,0.001101639209018354
174,374.000,0.0029233853875456797
175,375.000,-0.0007634974624381556
176,376.000,-0.0004943278917020207
177,377.000,-0.001706142445820302
178,378.000,0.0008258347669926665
179,379.000,0.0030062556368638965
180,380.000,0.0011168621107684562
181,381.000,-0.0010100521703218677
182,382.000,-0.0021824863775096494
183,383.000,-0.0004682280172604364
184,384.000,-0.0023750961482381593
185,385.000,-0.0002839314019499911
186,386.000,-2.6856964254352456e-05
187,387.000,-0.0006272115129868341
188,388.000,-0.003811113430178074
189,389.000,-0.00336491707361333
190,390.000,-0.0003797198315082457
191,391.000,-0.0019415004928173113
192,392.000,-0.0011169583643711634
193,393.000,0.00196788470986886
194,394.000,0.0009736026666974029
195,395.000,-0.0015696898671813432
196,396.000,-0.004283856530369429
197,397.000,0.00294395462465139
198,398.000,-9.941008970470181e-05
199,399.000,0.0036620683556203688
200,400.000,-0.000882534135113204
201,401.000,-0.0004372349883599235
202,402.000,6.84483037768709e-05
203,403.000,-0.0028516673015470118
204,404.000,0.0019918591154113223
205,405.000,0.0030011134853802604
206,406.000,-0.0004746186253090209
207,407.000,-0.0046575537266184555
208,408.000,-0.0015609639258211774
209,409.000,-0.0004535747474870105
210,410.000,-0.0016383489821274217
211,411.000,-0.0019954804599721866
212,412.000,0.0017188772708368219
213,413.000,0.0004660659404337276
214,414.000,0.00033546905228076817
215,415.000,-0.0006652272678579717
216,416.000,-0.0006433000659901347
217,417.000,0.0005582639528182169
218,418.000,0.002539066842927114
219,419.000,-0.0020155381328484283
220,420.000,0.0004898213295818337
221,421.000,0.0016041609647881993
222,422.000,0.0007213178713895847
223,423.000,0.0003773658786472881
224,424.000,-0.00022586807294125698
225,425.000,-0.0005167398330248021
226,426.000,-0.0012540089776892365
227,427.000,0.000833580183947551
228,428.000,6.2691075992657235e-06
229,429.000,0.003638793918900215
230,430.000,0.0018143690499473892
231,431.000,-0.0011880307622677369
232,432.000,0.0016414057440809324
233,433.000,-0.0019303047786873564
234,434.000,0.0011203051494751257
235,435.000,-0.002278102497339779
236,436.000,0.002645232042028357
237,437.000,0.0015181847221655788
238,438.000,-0.0022123814841681364
239,439.000,0.002257391246721878
240,440.000,-0.0005656928374337074
241,441.000,7.772399522200648e-05
242,442.000,0.0012024691182593809
243,443.000,-0.00026476304924564673
244,444.000,-0.001461552573774145
245,445.000,0.004767706665142015
246,446.000,0.0034707875157803814
247,447.000,-0.001413908618362056
248,448.000,-0.001960488646153965
249,449.000,0.0012957843036064376
250,450.000,-0.0026854723596715668
251,451.000,-0.0017209465655022328
252,452.000,0.000995326315864433
253,453.000,0.0005336602696239581
254,454.000,-0.003971911227419104
255,455.000,0.0005507091495552509
256,456.000,-0.0002992653898251848
257,457.000,0.0002949349244601143
258,458.000,-0.0009752948365915515
259,459.000,0.00164096297750848
260,460.000,-0.0027751608355028544
261,461.000,-0.002266672303121918
262,462.000,0.0006894714990735968
263,463.000,0.0012274985264046296
264,464.000,0.0010766309451071428
265,465.000,-0.0022974826079700792
266,466.000,0.00018571170106303057
267,467.000,0.0039360073712670345
268,468.000,-0.0018336153522906472
269,469.000,-0.0006393741813420167
270,470.000,0.0006937527330877744
271,471.000,-0.0016681547780660199
272,472.000,0.0008018508938827246
273,473.000,-0.0007657482188135879
274,474.000,-0.0016954522997937463
275,475.000,-0.0012794761030376154
276,476.000,-0.0003431822795062227
277,477.000,-0.0030131641208536036
278,478.000,0.0032557654881435073
279,479.000,0.0027019055321311175
280,480.000,0.001992157343786923
281,481.000,0.0004303593252708119
282,482.000,0.0002917629737689379
283,483.000,0.003279720958551011
284,484.000,0.0003682596566600335
285,485.000,0.002047615513810913
286,486.000,0.0006610965681667164
287,487.000,0.0018663986982015118
288,488.000,-0.0005079204783321729
289,489.000,0.0016709786378595378
290,490.000,-0.005182119450921716
291,491.000,-0.0015512707146502008
292,492.000,0.0012142556086000493
293,493.000,-0.0005160606928509477
294,494.000,0.003210768980184237
295,495.000,0.004249377858708589
296,496.000,0.002010421543796986
297,497.000,0.0019239750786562227
298,498.000,-8.36819354367831e-05
299,499.000,0.003713895397930432
300,500.000,0.0010774101259106961
301,501.000,-0.0022444986289140347
302,502.000,0.001608564330422861
303,503.000,0.000993912808039761
304,504.000,0.002315591855459063
305,505.000,0.001444778568885337
306,506.000,-0.0015126881680726308
307,507.000,-0.0019122450781348481
308,508.000,-0.0008718272630507682
309,509.000,0.00045197125714158533
310,510.000,-0.00031465681427642
311,511.000,-0.0022115297186805745
312,512.000,0.0007858346099778499
313,513.000,0.0004736431502730616
314,514.000,-0.0006908679652768059
315,515.000,0.0020401052081151
316,516.000,0.002278659821478732
317,517.000,-0.002707010760101584
318,518.000,0.0038212708677411228
319,519.000,0.0004807816961525174
320,520.000,0.002831794877407784
321,521.000,0.0009824939749028753
322,522.000,0.00021787965508773504
323,523.000,0.0020869844996604372
324,524.000,-0.0025251189069309026
325,525.000,0.0009090745670281624
326,526.000,-0.0028477411013133115
327,527.000,0.0010286322715001596
328,528.000,0.0024447420993011725
329,529.000,0.00045069566021652965
330,530.000,0.000964608162006405
331,531.000,0.0003974620529646122
332,532.000,0.0020725549800651075
333,533.000,-0.0012472967879319356
334,534.000,-0.0007596678313927447
335,535.000,0.0005573399182322291
336,536.000,0.003861114494306947
337,537.000,-0.0009390596155777035
338,538.000,0.004285416785490032
339,539.000,0.0020606504607165294
340,540.000,0.0018425315917571488
341,541.000,0.002660773054045766
342,542.000,-0.0020461795994098733
343,543.000,0.0003283595402749158
344,544.000,0.00022668007464540554
345,545.000,0.002282592017838503
346,546.000,-0.0003314147243005131
347,547.000,0.0024932539150655385
348,548.000,0.001716222880501185
349,549.000,-0.00021534108466092944
350,550.000,-0.0017904173665668772
351,551.000,0.00125807624467838
352,552.000,-2.5518565798350146e-05
353,553.000,0.0005375359761644354
354,554.000,-0.0014333925566490466
355,555.000,0.002109464923054653
356,556.000,0.0026636218451003128
357,557.000,-0.001578015646022714
358,558.000,0.0008715536503506139
359,559.000,0.001788236039019627
360,560.000,-0.0006168663020021107
361,561.000,2.2292334386958582e-05
362,562.000,0.0025029755289389527
363,563.000,0.004074045136287625
364,564.000,0.0008497690931661329
365,565.000,0.0010069095690898773
366,566.000,-0.0009296693665660673
367,567.000,-0.0014161476980709302
368,568.000,4.3376922749130346e-05
369,569.000,0.0030662102702694294
370,570.000,-0.0021028578232963734
371,571.000,0.0006128621521294964
372,572.000,0.004038377022565792
373,573.000,0.0011444382945656594
374,574.000,-0.0003736949871499481
375,575.000,0.0004200466196011011
376,576.000,-0.00013313451182301708
377,577.000,-0.0002643941296995334
378,578.000,0.0008989221788344358
379,579.000,-0.0006805634648322439
380,580.000,0.0027220225350968958
381,581.000,0.0005483280563341857
382,582.000,0.000791000114794602
383,583.000,-0.0007093518128523907
384,584.000,-0.0021053967093087617
385,585.000,0.0008060541782579886
386,586.000,-0.0002412364596449591
387,587.000,0.0027926209234483347
388,588.000,0.0013636487740554134
389,589.000,0.0013662110134009173
390,590.000,0.0023104711637950467
391,591.000,0.001428255770120315
392,592.000,0.002323258376018286
393,593.000,-0.0007381723506019675
394,594.000,0.001805317739851515
395,595.000,0.0015904146879792984
396,596.000,-0.00037771680981519065
397,597.000,0.0010031013978640862
398,598.000,0.0012618885185167455
399,599.000,0.0021158072465090926
400,600.000,0.0024208566888930163
401,601.000,0.004658908535524755
402,602.000,0.0010161388694543637
403,603.000,0.004972286912605876
404,604.000,0.0025359273975509504
405,605.000,0.007705295613005849
406,606.000,0.001202892634111292
407,607.000,0.0021863280008072006
408,608.000,0.009727068139039452
409,609.000,0.009301584611020524
410,610.000,0.011190165188655066
411,611.000,0.010063533810590216
412,612.000,0.011804217729602304
413,613.000,0.015233916002522158
414,614.000,0.01880773779283835
415,615.000,0.026718308572761047
416,616.000,0.031925271551919834
417,617.000,0.03948906805723463
418,618.000,0.04681415468107913
419,619.000,0.052939151701957406
420,620.000,0.058495042196154486
421,621.000,0.052854291369955016
422,622.000,0.04570126705513852
423,623.000,0.040243493065342875
424,624.000,0.03168459367875616
425,625.000,0.022765142813365544
426,626.000,0.01629874183773926
427,627.000,0.02085655316303448
428,628.000,0.012872426011094205
429,629.000,0.012190232862313176
430,630.000,0.006843631468058617
431,631.000,0.009525324374792416
432,632.000,0.007784810556409372
433,633.000,0.007524008421811518
434,634.000,0.005514602116833904
435,635.000,0.004390273882351206
436,636.000,0.006090402529308603
437,637.000,0.00414981186972606
438,638.000,0.006067411172856083
439,639.000,0.004034825422418693
440,640.000,0.0006156768599411175
441,641.000,0.00313273728901915
442,642.000,0.00015783192393532195
443,643.000,0.0018366613843343478
444,644.000,0.004271059219407545
445,645.000,0.0009127880625791596
446,646.000,0.0006494741823290239
447,647.000,0.005324690602837019
448,648.000,0.0018568942072089575
449,649.000,0.00017669131835425575
450,650.000,0.00017570669133639978
451,651.000,0.0011191513685849714
452,652.000,0.0020388046799290154
453,653.000,-0.0008975563244327432
454,654.000,0.0027410517145592937
455,655.000,-0.00010472707560112409
456,656.000,0.002792013421201741
457,657.000,-0.0005479304185000515
458,658.000,-3.487788742288695e-05
459,659.000,-0.001264611706509399
460,660.000,0.0001047153989345662
461,661.000,-0.005106340725231142
462,662.000,0.0020631372751077812
463,663.000,0.0010147408253232413
464,664.000,-0.003875503303362115
465,665.000,0.001005473023517672
466,666.000,6.509994074499527e-05
467,667.000,-0.00032911252747510955
468,668.000,0.003555759565079022
469,669.000,-0.0004976046168066356
470,670.000,0.0019471971281696569
471,671.000,0.0019440930283787493
472,672.000,0.003894635048138873
473,673.000,0.0014165257695989404
474,674.000,0.0013196129086097176
475,675.000,0.001787507351909297
476,676.000,0.0003038186586116034
477,677.000,-0.004351050697040864
478,678.000,0.0006880485236814452
479,679.000,0.0010710848440777193
480,680.000,0.0004248125930702232
481,681.000,0.0014599443496449802
482,682.000,0.0014472732729161547
483,683.000,0.0010996241950731584
484,684.000,0.0033416558914876483
485,685.000,0.0009114291510602852
486,686.000,-0.0008293415539870306
487,687.000,0.0036939573319900135
488,688.000,-0.0011882781813645315
489,689.000,-0.0007476039413249303
490,690.000,0.004221450428157901
491,691.000,0.0013983754959842126
492,692.000,0.002093649351580341
493,693.000,0.0005743597642899184
494,694.000,0.0035831123142837117
495,695.000,0.0012273770259553108
496,696.000,0.0013147503659523057
497,697.000,-0.0030839796320859033
498,698.000,0.0013369054206108133
499,699.000,0.001992350797749085
500,700.000,-0.002103699490045291
501,701.000,0.00012763732655890386
502,702.000,0.0030429102711170817
503,703.000,0.003393878362532767
504,704.000,0.0011063704680733851
505,705.000,0.0015793335314158443
506,706.000,-9.47782401082043e-05
507,707.000,0.00590506984653033
508,708.000,-0.0006576030357668234
509,709.000,-0.000972682103552824
510,710.000,-0.00029665770615577966
511,711.000,-0.002791742964357413
512,712.000,0.0012251647710209612
513,713.000,0.0007164013635975404
514,714.000,-0.0035807157573690966
515,715.000,-0.0008662732723817786
516,716.000,-0.0010239606581202486
517,717.000,0.001383098313513895
518,718.000,-0.0004983727521147964
519,719.000,-0.0016686843306737001
520,720.000,0.0004516301091267449
521,721.000,-0.0005570943926489304
522,722.000,-0.00028329739051445504
523,723.000,0.003266192751379719
524,724.000,-0.0011282733698513583
525,725.000,0.0016149230643275982
526,726.000,0.0027453660850596485
527,727.000,0.0013076032992621184
528,728.000,-0.0015822798384154287
529,729.000,-0.0010797350448980502
530,730.000,0.0007392693260872455
531,731.000,0.0015651820427188257
532,732.000,0.0009209172316025417
533,733.000,0.0009862598576605918
534,734.000,-0.0011455886040144044
535,735.000,0.0006805031879859585
536,736.000,0.0010398961521159659
537,737.000,-0.0005408915976647118
538,738.000,0.002881457949377643
539,739.000,0.0021514201327539626
540,740.000,0.003465781066097283
541,741.000,0.0012266653804664438
542,742.000,0.00022997384137148335
543,743.000,0.0012276831439704775
544,744.000,0.003954771143254427
545,745.000,-0.00066653537009804
546,746.000,-0.0034898678201071677
547,747.000,0.002074547587433935
548,748.000,-0.0009380402741457563
549,749.000,0.00048686303033010874
550,750.000,-0.0001408815067058147
551,751.000,0.0021810252162619975
552,752.000,-0.00014005435689369916
553,753.000,0.002201807789221577
554,754.000,0.0044016119255789335
555,755.000,-0.0009437694148131145
556,756.000,0.0043608231201930844
557,757.000,-0.0018658902898278686
558,758.000,0.0006144148331961155
559,759.000,0.002841749077855609
560,760.000,0.004863759555418527
561,761.000,0.00019945355967377444
562,762.000,0.0007285716060067065
563,763.000,0.0020855296501244387
564,764.000,0.0017624448072778706
565,765.000,-0.0019053738332438933
566,766.000,0.0036935587473991317
567,767.000,0.0019321840908320144
568,768.000,0.0006076644575833144
569,769.000,0.0002686318129033059
570,770.000,0.00553733658662215
571,771.000,0.0005239910429572628
572,772.000,0.003094255729828027
573,773.000,0.0020677110569570717
574,774.000,0.001314815376582331
575,775.000,0.0029670352918237984
576,776.000,0.0016981723319305737
577,777.000,0.0027201290216010187
578,778.000,0.002993401520497137
579,779.000,0.004429413753067729
580,780.000,0.0045382106203426574
581,781.000,0.004396074976531407
582,782.000,0.0012803300776242559
583,783.000,0.0075133006029923345
584,784.000,0.004958421028861152
585,785.000,0.009286561159358653
586,786.000,0.011732148396850153
587,787.000,0.011815563031298434
588,788.000,0.012603897079090843
589,789.000,0.01633298382021311
590,790.000,0.016745723686819206
591,791.000,0.025635873062032296
592,792.000,0.025264775659813103
593,793.000,0.02825325593873446
594,794.000,0.030995328257068033
595,795.000,0.033946752161289485
596,796.000,0.031248215189667534
597,797.000,0.03168127150932764
598,798.000,0.026724660363782966
599,799.000,0.024878957452505807
600,800.000,0.019017388238273005
601,801.000,0.016196996414722973
602,802.000,0.013261492856389263
603,803.000,0.011869409190166267
604,804.000,0.010133931486511094
605,805.000,0.006303190842191507
606,806.000,0.006526585986507149
607,807.000,0.004982543128456293
608,808.000,0.006652482542992177
609,809.000,0.003202686833412669
610,810.000,0.004689367909205013
611,811.000,0.003216744277606059
612,812.000,0.003066693747382043
613,813.000,0.0031279725778923587
614,814.000,0.004077622298866919
615,815.000,-0.0003618179237470604
616,816.000,0.0028264046756561875
617,817.000,0.0037005218276946364
618,818.000,0.0023872581854221765
619,819.000,0.003519297753616834
620,820.000,0.0006864746983807889
621,821.000,0.004478747353689305
622,822.000,-0.0008352755096975261
623,823.000,-0.0013923717958599523
624,824.000,-0.001754222540507608
625,825.000,-0.0009109889091724939
626,826.000,0.001813200120949268
627,827.000,0.0025456218710642577
628,828.000,0.0019060526578321654
629,829.000,0.002725506915514892
630,830.000,0.0019538954321613212
631,831.000,0.0051089777583597324
632,832.000,-0.0004464721783639762
633,833.000,0.0004148369328027785
634,834.000,0.0017938329493278565
635,835.000,0.0020880798972178023
636,836.000,0.0035474744967778126
637,837.000,0.0022231565227164235
638,838.000,-0.0008875513147061125
639,839.000,0.003200068735419037
640,840.000,0.00011016366843336929
641,841.000,-0.0019259184546741577
642,842.000,0.0011533920887164958
643,843.000,0.0010668733544773065
644,844.000,0.0014815846842181916
645,845.000,0.0008935007341101576
646,846.000,0.004674561264838422
647,847.000,-0.0004089402161910352
648,848.000,-3.864440135176872e-05
649,849.000,0.001450822663964176
650,850.000,0.0027485894762007967
651,851.000,-0.000453381609110431
652,852.000,-0.0011251118334844091
653,853.000,-0.0015472025009043093
654,854.000,0.0013222701392155982
655,855.000,0.001971627870464626
656,856.000,-0.002917146891747931
657,857.000,0.0004478178352883794
658,858.000,0.0018173888883877302
659,859.000,0.0018875385140406467
660,860.000,0.0002353880276273607
661,861.000,0.00010129224211960342
662,862.000,-7.998453475050084e-05
663,863.000,7.143910834360845e-05
664,864.000,0.0009955399673038845
665,865.000,-0.0014614039329647185
666,866.000,0.0018292217698090475
667,867.000,0.00041396181398210065
668,868.000,-0.0014124512441413962
669,869.000,-0.00014385779433575055
670,870.000,0.0013260391778291412
671,871.000,0.0010902140641698157
672,872.000,0.0009662608837027228
673,873.000,0.0015919241338210948
674,874.000,0.0014503458141487977
675,875.000,0.0022842381122375856
676,876.000,-0.0030637578547066864
677,877.000,-0.00046111850525458394
678,878.000,0.0002761130847255155
679,879.000,0.0007610103324613214
680,880.000,-0.0005068515899637504
681,881.000,0.0012271867278489752
682,882.000,0.0023321026619719442
683,883.000,-1.344078996489943e-05
684,884.000,-0.0014384583364216825
685,885.000,0.001559582607725935
686,886.000,-0.0014848929678810715
687,887.000,-0.00017476719305686218
688,888.000,-0.0011266007662633338
689,889.000,0.00027725613570585983
690,890.000,0.00041207145634205027
691,891.000,0.0004696216431934018
692,892.000,0.0013602142561594751
693,893.000,0.0015493551101635388
694,894.000,0.0012414518273557462
695,895.000,6.655068766841962e-05
696,896.000,-0.0027826121266947123
697,897.000,0.002737380191890788
698,898.000,0.0009547502151612873
699,899.000,-0.00143101966865313
700,900.000,-0.0012820582242748261
701,901.000,-0.0030616270208526594
702,902.000,-0.0007676682414984071
703,903.000,1.4920886347509863e-06
704,904.000,-0.0005951293982406093
705,905.000,0.001144523187087391
706,906.000,0.0018601529439353616
707,907.000,0.0037576409246400932
708,908.000,0.0003378248986552217
709,909.000,0.000582646410519041
710,910.000,0.0004982663997734446
711,911.000,-0.00017244984812349152
712,912.000,-0.00012573466108113023
713,913.000,-0.00014484210576802388
714,914.000,3.669439803659817e-05
715,915.000,0.0011536941041190882
716,916.000,0.0012710351354585788
717,917.000,0.0007166866529642525
718,918.000,0.0009243321831923556
719,919.000,-0.0003809184255511358
720,920.000,-0.0030148105308382685
721,921.000,0.000987893644221951
722,922.000,0.0034127715246090443
723,923.000,0.001317897700968036
724,924.000,0.0019341735423450157
725,925.000,-0.00335847565628594
726,926.000,0.0008367313059902728
727,927.000,-0.0022300227182380557
728,928.000,0.00017971147238017937
729,929.000,0.005953843598328293
730,930.000,0.0010206129262595382
731,931.000,0.0023927967123976166
732,932.000,-0.0013578060225783023
733,933.000,0.0031507376594821215
734,934.000,-0.0006932127661558667
735,935.000,0.0038552761610279934
736,936.000,-0.001016643490801015
737,937.000,-0.00032850250054385446
738,938.000,-0.0011548908046484824
739,939.000,0.0008395296033515961
740,940.000,0.0022861833817690164
741,941.000,-0.00012831930700300215
742,942.000,0.002724187136608266
743,943.000,-0.0001814317293911835
744,944.000,-1.3462565370102013e-05
745,945.000,0.00036902116467095865
746,946.000,0.001784540847432423
747,947.000,0.0020445035243804393
748,948.000,0.0036735711345222384
749,949.000,0.002354117912217339
750,950.000,0.003394770522974908
751,951.000,0.001401636757395278
752,952.000,0.0008716773598990113
753,953.000,0.00241480817561602
754,954.000,0.0033467727961246727
755,955.000,0.000625218274446841
756,956.000,0.003853216333930062
757,957.000,0.0015643466876815615
758,958.000,-6.38240282343569e-05
759,959.000,0.0018249695696684733
760,960.000,0.002855069314127937
761,961.000,0.0020131860735009663
762,962.000,0.0019238501067654948
763,963.000,0.00032721491136665824
764,964.000,0.0032442264168996335
765,965.000,0.005201706585694232
766,966.000,0.0044251359904949605
767,967.000,0.0026291627397455977
768,968.000,0.0035969753577581916
769,969.000,0.001853494088141528
770,970.000,0.002895698433208968
771,971.000,0.0035293876558651965
772,972.000,0.0035654455177815975
773,973.000,0.004994890414377323
774,974.000,0.003838951865594456
775,975.000,0.007904431693583482
776,976.000,0.007960200399820795
777,977.000,0.007894280567732085
778,978.000,0.005309919304055683
779,979.000,0.007976840912008145
780,980.000,0.007636561388691101
781,981.000,0.007274060537743194
782,982.000,0.010642847952942097
783,983.000,0.00891861992855151
784,984.000,0.007062362573048332
785,985.000,0.011956998390701794
786,986.000,0.014567881466743777
787,987.000,0.016210099843700025
788,988.000,0.015347912773442348
789,989.000,0.01775850535684538
790,990.000,0.02397967171908016
791,991.000,0.027465088204544106
792,992.000,0.0303278780043659
793,993.000,0.04126247378296897
794,994.000,0.050330127424997206
795,995.000,0.06399035950920405
796,996.000,0.08510984153807784
797,997.000,0.11325562638457007
798,998.000,0.15868499279134024
799,999.000,0.2188754412117934
800,1000.000,0.2853521663495506
801,1001.000,0.31587384546021946
802,1002.000,0.28527973156869374
803,1003.000,0.220908968985195
804,1004.000,0.15524306683943517
805,1005.000,0.11538177537062247
806,1006.000,0.0854213608004916
807,1007.000,0.06616574962930233
808,1008.000,0.04951811309742537
809,1009.000,0.0396876670111506
810,1010.000,0.035662992083412136
811,1011.000,0.028847960558780826
812,1012.000,0.02516529929713605
813,1013.000,0.021821337737381586
814,1014.000,0.019538074784594378
815,1015.000,0.01920386018500463
816,1016.000,0.018443499327672395
817,1017.000,0.01788941246562608
818,1018.000,0.018658449717382005
819,1019.000,0.020186101375855803
820,1020.000,0.017676152036711537
821,1021.000,0.022468174255410856
822,1022.000,0.02391257349042585
823,1023.000,0.026753993412518762
824,1024.000,0.029433038556214153
825,1025.000,0.03997181869183728
826,1026.000,0.04672436711137489
827,1027.000,0.06027558173398454
828,1028.000,0.08331494790560671
829,1029.000,0.10345080710994851
830,1030.000,0.12929275503276408
831,1031.000,0.1331209129246753
832,1032.000,0.12625128162280477
833,1033.000,0.1003918777146563
834,1034.000,0.07947251134400868
835,1035.000,0.060889507093941975
836,1036.000,0.04803430164133602
837,1037.000,0.03556947429212102
838,1038.000,0.026708655125373484
839,1039.000,0.024282461568692338
840,1040.000,0.01944865297858043
841,1041.000,0.016339395256910152
842,1042.000,0.015261904025504714
843,1043.000,0.010796801330066698
844,1044.000,0.009227495530539434
845,1045.000,0.00859146213817531
846,1046.000,0.008259487880636766
847,1047.000,0.008598329911624857
848,1048.000,0.010847801538150228
849,1049.000,0.0036529100620119777
850,1050.000,0.005640267664672435
851,1051.000,0.006124946211599468
852,1052.000,0.004345485345290899
853,1053.000,0.0027196379704344216
854,1054.000,0.0026240549870904695
855,1055.000,0.004568010735740768
856,1056.000,0.00604804021420768
857,1057.000,0.00290076137271136
858,1058.000,0.0008934404572638722
859,1059.000,0.0018235377578800075
860,1060.000,0.0035609541037693775
861,1061.000,0.0032752301757099566
862,1062.000,0.003480310626322312
863,1063.000,0.00521029082912779
864,1064.000,0.002993577617252253
865,1065.000,0.004090360279739266
866,1066.000,0.0019451931597198537
867,1067.000,0.0040002915232808895
868,1068.000,0.0045234393215613225
869,1069.000,0.003930263713662874
870,1070.000,-0.0016232056079441464
871,1071.000,0.0002725949366501762
872,1072.000,0.002098955607566954
873,1073.000,0.0021237912461644576
874,1074.000,0.0020219495695454675
875,1075.000,0.006784516292302924
876,1076.000,-0.003235989633192569
877,1077.000,-0.0005045765334984544
878,1078.000,0.00018015550129496248
879,1079.000,0.00024799756516757015
880,1080.000,0.003908105503148541
881,1081.000,0.002229731748330856
882,1082.000,0.0023478383902938464
883,1083.000,0.0013909305165040074
884,1084.000,-0.0015643627825462764
885,1085.000,0.005208108554823792
886,1086.000,0.00017663924673311913
887,1087.000,0.0008164609284313281
888,1088.000,0.003159222493457146
889,1089.000,-0.0008576429534531544
890,1090.000,0.0006251655716545391
891,1091.000,0.002388246283881442
892,1092.000,-0.0008062211230312084
893,1093.000,0.0028099875980613525
894,1094.000,0.0012148886732788373
895,1095.000,-0.00044159354084184944
896,1096.000,-0.0005451311743819802
897,1097.000,0.001874442974703162
898,1098.000,0.0006462214417286901
899,1099.000,0.0010605266128247098
900,1100.000,0.0019625980201883717
901,1101.000,0.0009116178712387077
902,1102.000,0.0020153399451025263
903,1103.000,0.0025837155755743086
904,1104.000,-0.0004713365352495009
905,1105.000,0.002866599548975497
906,1106.000,0.0018217464941129083
907,1107.000,0.0017739179211349713
908,1108.000,0.002346728160214097
909,1109.000,-0.0015358196445238457
910,1110.000,0.00029324938186320125
911,1111.000,0.003343253385707003
912,1112.000,0.0027458350452354606
913,1113.000,0.0011847862268925518
914,1114.000,0.0033664075843201683
915,1115.000,-0.0004050771330738637
916,1116.000,0.005334662791663054
917,1117.000,0.004687303663908925
918,1118.000,-0.0020007087663198855
919,1119.000,0.0027115091169966224
920,1120.000,0.0009366791535278036
921,1121.000,0.001139590584430632
922,1122.000,0.0014201562661417017
923,1123.000,0.0015691227598893282
924,1124.000,0.0027736425532647437
925,1125.000,0.0022194673272552903
926,1126.000,0.00400920523806273
927,1127.000,0.00378999286505948
928,1128.000,0.0048772855534907405
929,1129.000,-0.00044874944392835086
930,1130.000,-0.000996175556667334
931,1131.000,0.004245435879195756
932,1132.000,0.003508197661918421
933,1133.000,0.001116233779873408
934,1134.000,0.004054396462326493
935,1135.000,0.003651393042116197
936,1136.000,0.003581682080423159
937,1137.000,0.002397951171718976
938,1138.000,0.0036406243152795627
939,1139.000,0.00528906351524093
940,1140.000,0.004678549004260738
941,1141.000,0.006121451732442826
942,1142.000,0.005014630923743006
943,1143.000,0.0072911652763226155
944,1144.000,0.010224577764585711
945,1145.000,0.010361705065200367
946,1146.000,0.012058894348041
947,1147.000,0.015594267084481079
948,1148.000,0.015583729681876525
949,1149.000,0.02027357507206808
950,1150.000,0.020123792474003734
951,1151.000,0.026349768676103624
952,1152.000,0.03400913238548324
953,1153.000,0.03766609014817824
954,1154.000,0.04270209442109154
955,1155.000,0.04552125956348182
956,1156.000,0.04276632776382658
957,1157.000,0.03744437234123436
958,1158.000,0.03169999488636045
959,1159.000,0.0287880185487986
960,1160.000,0.0240861607089892
961,1161.000,0.019866517008291947
962,1162.000,0.016437387736177606
963,1163.000,0.015793013416864145
964,1164.000,0.01337975413528775
965,1165.000,0.01401504274567683
966,1166.000,0.010266869704101704
967,1167.000,0.011648154347272132
968,1168.000,0.010396564648659462
969,1169.000,0.008576528943990077
970,1170.000,0.011375708682602547
971,1171.000,0.007212319689939885
972,1172.000,0.007592883712881709
973,1173.000,0.007195434283340403
974,1174.000,0.012934132460069005
975,1175.000,0.012817157192419801
976,1176.000,0.01573974099258556
977,1177.000,0.017583363563701916
978,1178.000,0.014897201649532267
979,1179.000,0.023461932110929538
980,1180.000,0.025475452073976942
981,1181.000,0.03371588836857494
982,1182.000,0.037095542973312266
983,1183.000,0.03724326416635077
984,1184.000,0.037348763479872635
985,1185.000,0.03473745183860941
986,1186.000,0.028601806644587075
987,1187.000,0.022579943623288728
988,1188.000,0.01780465501452364
989,1189.000,0.017005364782058503
990,1190.000,0.011462331244498428
991,1191.000,0.011156001155820126
992,1192.000,0.006566103297580518
993,1193.000,0.005024190642212522
994,1194.000,0.005129073932677057
995,1195.000,0.006736244005995786
996,1196.000,0.00327154539844698
997,1197.000,0.003799333882720224
998,1198.000,0.0034020242575920298
999,1199.000,0.00380723456778177
1000,1200.000,0.003166586051857028
1001,1201.000,0.005144154505329385
1002,1202.000,0.0033315874490589055
1003,1203.000,0.0042570557403487875
1004,1204.000,0.0003111181531382088
1005,1205.000,0.0070542848444749215
1006,1206.000,0.0035064673061687723
1007,1207.000,0.005038021495957572
1008,1208.000,0.006139528790202381
1009,1209.000,0.0034424706526207083
1010,1210.000,0.0014936378443761963
1011,1211.000,-0.0006683705002611274
1012,1212.000,-0.0011653821317579708
1013,1213.000,0.004959569444796402
1014,1214.000,0.0057859498592614635
1015,1215.000,0.000492924798201576
1016,1216.000,0.0015319843329379469
1017,1217.000,0.00011437484244819948
1018,1218.000,0.0015241912625600829
1019,1219.000,0.002022358252874994
1020,1220.000,0.0025761377345638096
1021,1221.000,0.003232936342680468
1022,1222.000,0.004916228498803693
1023,1223.000,0.0028313748329972816
1024,1224.000,0.0013021540830065676
1025,1225.000,0.00452231204986011
1026,1226.000,0.001134687015647476
1027,1227.000,-0.0018675742544968683
1028,1228.000,-0.0022364975876372067
1029,1229.000,0.0011656506950888028
1030,1230.000,0.004097663876878445
1031,1231.000,0.001307159585932918
1032,1232.000,0.0036293481268260333
1033,1233.000,0.0005017110164080273
1034,1234.000,-0.0008591861669522941
1035,1235.000,-8.029412420707671e-05
1036,1236.000,-0.001595126696313788
1037,1237.000,0.0006489323218836205
1038,1238.000,0.0004008899435633146
1039,1239.000,0.00010080055978184074
1040,1240.000,0.00046906147878420483
1041,1241.000,-0.005839533135338953
1042,1242.000,0.0020039766550281864
1043,1243.000,-0.0024286626982797685
1044,1244.000,0.001249625178360699
1045,1245.000,0.003011337511501248
1046,1246.000,-0.0039856149001743476
1047,1247.000,0.0003876706946774328
1048,1248.000,-0.00012551122648861673
1049,1249.000,0.00236046276035644
1050,1250.000,-0.00012910290600471255
1051,1251.000,-1.863375072734179e-05
1052,1252.000,0.0035802029307972967
1053,1253.000,0.0005306104505532656
1054,1254.000,-0.0013125870267832664
1055,1255.000,0.0031944153352915137
1056,1256.000,-0.0034463753930347885
1057,1257.000,0.0019421707965948517
1058,1258.000,-0.0004126726468769912
1059,1259.000,-0.00025718015886582515
1060,1260.000,8.049736132230083e-05
1061,1261.000,-0.0023066869770735367
1062,1262.000,-0.0002566622829247028
1063,1263.000,0.0025074353843929083
1064,1264.000,0.0016787792822913852
1065,1265.000,0.0011888462354132947
1066,1266.000,0.0015947277961373234
1067,1267.000,-0.00042061814509127324
1068,1268.000,-0.0010316224448957316
1069,1269.000,0.00038277659346175634
1070,1270.000,-0.00017620058277324096
1071,1271.000,0.0008667725287735248
1072,1272.000,-0.0003632352185987242
1073,1273.000,0.002650123618559372
1074,1274.000,-0.000833536317551563
1075,1275.000,-0.0017131411872866457
1076,1276.000,-0.004364057241244042
1077,1277.000,-0.001914818047390162
1078,1278.000,-0.0017277865674205054
1079,1279.000,0.000832132592879953
1080,1280.000,0.0016118060255278024
1081,1281.000,0.0022703734908351924
1082,1282.000,-0.0004812667511930446
1083,1283.000,-0.001531896915731554
1084,1284.000,-0.0035263441485061573
1085,1285.000,5.666370694969846e-05
1086,1286.000,0.0007912768833505827
1087,1287.000,-0.0022888368253479053
1088,1288.000,0.0025480891191493847
1089,1289.000,-0.00031727017848631284
1090,1290.000,0.0020334611848436507
1091,1291.000,0.00013498352775174086
1092,1292.000,-0.0022104687199517178
1093,1293.000,-0.0023423683453898405
1094,1294.000,-0.0010431438433469774
1095,1295.000,0.0006781779534130216
1096,1296.000,-8.096663708369565e-05
1097,1297.000,-0.0009611042152822848
1098,1298.000,0.0007673094206909384
1099,1299.000,-0.0006982065924156594
1100,1300.000,0.005355048042374082
1101,1301.000,0.0001550740215285773
1102,1302.000,-0.0005438132889888499
1103,1303.000,0.00376822503391088
1104,1304.000,-0.0002683919678604948
1105,1305.000,0.0008285601640843986
1106,1306.000,-0.001374810404942442
1107,1307.000,-0.0007323422225481626
1108,1308.000,-0.00013283628344741647
1109,1309.000,0.0007434972261379561
1110,1310.000,0.00046612243025302133
1111,1311.000,0.0021801005505048443
1112,1312.000,0.0013539861746859534
1113,1313.000,-0.0013074455064707954
1114,1314.000,-0.0006744726630871732
1115,1315.000,-0.0015679781309810706
1116,1316.000,-0.0018184880729720868
1117,1317.000,0.0009493615913376043
1118,1318.000,-0.0008661640797701831
1119,1319.000,0.0004351562261270333
1120,1320.000,-0.002376402988135897
1121,1321.000,-0.0008554846636534374
1122,1322.000,-0.0007023499155302207
1123,1323.000,0.003912277860136705
1124,1324.000,0.003173023050986262
1125,1325.000,0.00010407570695854246
1126,1326.000,-0.0015879881504343321
1127,1327.000,0.001424104557366188
1128,1328.000,0.0004161683883759626
1129,1329.000,0.004671901193962298
1130,1330.000,0.0008969579741680461
1131,1331.000,0.0024351511378589734
1132,1332.000,0.0028939614501620834
1133,1333.000,-0.0007797428614760314
1134,1334.000,5.694615604616676e-05
1135,1335.000,-0.0023549766205877196
1136,1336.000,0.00013630804044210675
1137,1337.000,-0.00155596000082274
1138,1338.000,0.0029659263240863804
1139,1339.000,0.0002975621744356435
1140,1340.000,0.006098855173554197
1141,1341.000,-0.0014004877102888633
1142,1342.000,-0.00023051254596106034
1143,1343.000,0.003934726724972657
1144,1344.000,-0.003540069912252186
1145,1345.000,-0.004254475828210655
1146,1346.000,0.0010424388251553459
1147,1347.000,-0.0009300143016078995
1148,1348.000,-0.003138489467434042
1149,1349.000,-0.0013476539499701584
1150,1350.000,-0.0006163115025478188
1151,1351.000,-3.930239729158594e-05
1152,1352.000,0.0018531589362527578
1153,1353.000,0.0010194806051890039
1154,1354.000,-0.001108048121030732
1155,1355.000,0.000675676937670551
1156,1356.000,0.00010590452540997689
1157,1357.000,0.0011236402579125303
1158,1358.000,0.003138267926355024
1159,1359.000,0.00022493330844545908
1160,1360.000,0.00035608184019688397
1161,1361.000,-8.802281512608086e-05
1162,1362.000,0.0002962446046280959
1163,1363.000,0.0005670072513854285
1164,1364.000,-0.002957659875334547
1165,1365.000,-0.0004002691867222496
1166,1366.000,0.00015688706070087939
1167,1367.000,0.0024460584067663893
1168,1368.000,0.004726098283998033
1169,1369.000,-0.00025541067050392817
1170,1370.000,0.0033864854546736987
1171,1371.000,-0.000268215239934213
1172,1372.000,-0.0013988914784118392
1173,1373.000,0.0026478769647965143
1174,1374.000,0.002366612892191048
1175,1375.000,-0.000540176165148853
1176,1376.000,-8.995262096396206e-05
1177,1377.000,-0.002210147453828584
1178,1378.000,6.99356586278822e-05
1179,1379.000,0.002536835652857806
1180,1380.000,0.003002040360236492
1181,1381.000,0.0039351123705546505
1182,1382.000,0.00016489283576144687
1183,1383.000,0.0021651913408238924
1184,1384.000,-0.0014501593030694538
1185,1385.000,0.002200197040407751
1186,1386.000,0.002157283397293945
1187,1387.000,0.0023660142263407687
1188,1388.000,0.0008690538969504739
1189,1389.000,-0.0015050355332790445
1190,1390.000,0.0023897481556692545
1191,1391.000,0.0018908180794155053
1192,1392.000,0.002785819738556728
1193,1393.000,0.0006337365604936258
1194,1394.000,0.000556870011299669
1195,1395.000,0.0014893070634255429
1196,1396.000,-0.00010282346336660254
1197,1397.000,0.0021437757031855247
1198,1398.000,0.0005347613477218105
1199,1399.000,0.0008043212978236786
1200,1400.000,0.0021839219763251064
1201,1401.000,0.003820623917296698
1202,1402.000,0.0012783728158406843
1203,1403.000,-0.0027310593282559685
1204,1404.000,0.00046458963107810894
1205,1405.000,0.0035143140260956865
1206,1406.000,0.0037992922254233143
1207,1407.000,0.004057709479773112
1208,1408.000,0.002518828023926434
1209,1409.000,0.002152215408422231
1210,1410.000,0.0016537893223439672
1211,1411.000,7.05901831262903e-06
1212,1412.000,0.0010714468207410144
1213,1413.000,0.0016147412870319941
1214,1414.000,0.0024849196154134363
1215,1415.000,0.0068546693893972496
1216,1416.000,0.005462628011642328
1217,1417.000,1.0187102607817648e-05
1218,1418.000,0.0013426579146112872
1219,1419.000,0.0031243199903588123
1220,1420.000,0.004536930605219445
1221,1421.000,0.00518812346663156
1222,1422.000,0.005218350569322991
1223,1423.000,0.001485946392555944
1224,1424.000,0.0012146895387761876
1225,1425.000,0.0035634778416737986
1226,1426.000,0.004468190069193043
1227,1427.000,0.002540325398230707
1228,1428.000,0.007340090824785831
1229,1429.000,0.007463817414804583
1230,1430.000,0.006061706332278588
1231,1431.000,0.007504612531902086
1232,1432.000,0.010848689911565377
1233,1433.000,0.011358688520959274
1234,1434.000,0.011672113604706628
1235,1435.000,0.011816943087051345
1236,1436.000,0.012229175807626128
1237,1437.000,0.014193551521401546
1238,1438.000,0.017410934228641296
1239,1439.000,0.0216648454742446
1240,1440.000,0.02208352560827284
1241,1441.000,0.02493788548601099
1242,1442.000,0.03182569451744191
1243,1443.000,0.037097243979602734
1244,1444.000,0.03793492961639492
1245,1445.000,0.044821275593064695
1246,1446.000,0.04954827361155885
1247,1447.000,0.05816222784979494
1248,1448.000,0.06507324851641506
1249,1449.000,0.06676508420543169
1250,1450.000,0.07142768162083199
1251,1451.000,0.06753484698844212
1252,1452.000,0.06231910757422994
1253,1453.000,0.060410689602455846
1254,1454.000,0.05209206571741493
1255,1455.000,0.047809162886676256
1256,1456.000,0.040540344225460816
1257,1457.000,0.036171791152006395
1258,1458.000,0.03179236583964424
1259,1459.000,0.02348801305023616
1260,1460.000,0.02267459057979455
1261,1461.000,0.021343774067415312
1262,1462.000,0.017103407755019184
1263,1463.000,0.01719204880230167
1264,1464.000,0.013880447072606163
1265,1465.000,0.014625930278815709
1266,1466.000,0.010926574224263368
1267,1467.000,0.008489094064804466
1268,1468.000,0.011105820207909145
1269,1469.000,0.006619691307441745
1270,1470.000,0.005416711256124061
1271,1471.000,0.008635860611455467
1272,1472.000,0.00855999131270267
1273,1473.000,0.007087616362542842
1274,1474.000,0.006495805977874922
1275,1475.000,0.004482513552032604
1276,1476.000,0.006135023806010107
1277,1477.000,0.0029504301252217062
1278,1478.000,0.0011287934548915592
1279,1479.000,0.004619330316433937
1280,1480.000,0.006224865656434561
1281,1481.000,0.0032327918044836156
1282,1482.000,0.0023551287328385548
1283,1483.000,0.002387464578393227
1284,1484.000,0.003011904618793263
1285,1485.000,-0.00011883785375798129
1286,1486.000,0.0018151526489490995
1287,1487.000,-0.00014189043381353445
1288,1488.000,0.0019332441428041227
1289,1489.000,0.0027422367384221298
1290,1490.000,0.0023073585431934076
1291,1491.000,0.0044407091922418
1292,1492.000,0.0011438131195264372
1293,1493.000,0.003597205735233523
1294,1494.000,-0.0010495473904044504
1295,1495.000,-0.0008150998078133751
1296,1496.000,0.001969511553547401
1297,1497.000,0.0023528921778143415
1298,1498.000,-0.0004467909198024488
1299,1499.000,0.0002548653386171156
1300,1500.000,0.002062861768894131
1301,1501.000,0.0025252943725148536
1302,1502.000,-0.0010265273156639097
1303,1503.000,0.000573392494479108
1304,1504.000,0.00032776655496512367
1305,1505.000,0.0010352819753120966
1306,1506.000,0.0035763584672295016
1307,1507.000,-0.0018900846585214357
1308,1508.000,0.0026111806732464203
1309,1509.000,-0.0028872218044590924
1310,1510.000,0.0009357923580405679
1311,1511.000,0.0014753963665280834
1312,1512.000,0.004091600846664647
1313,1513.000,0.000516916560951084
1314,1514.000,0.002468330228090476
1315,1515.000,0.002342618604756879
1316,1516.000,0.0012329480582457632
1317,1517.000,0.0012946393591125973
1318,1518.000,0.001354666261616556
1319,1519.000,-0.002441719105005005
1320,1520.000,0.002692209480689897
1321,1521.000,-0.001326757450615244
1322,1522.000,0.003378975464563468
1323,1523.000,-0.0020730608637540894
1324,1524.000,-0.0013796887268789863
1325,1525.000,0.0027952522760364383
1326,1526.000,0.00363826973124744
1327,1527.000,0.000656876557755572
1328,1528.000,0.0011120058798226972
1329,1529.000,0.00015666520403627914
1330,1530.000,0.006147772516792263
1331,1531.000,0.002562779943607146
1332,1532.000,0.002938964901004172
1333,1533.000,0.0024065079592068437
1334,1534.000,0.0027847839866744833
1335,1535.000,0.0024954264062164743
1336,1536.000,0.002829163840405263
1337,1537.000,0.0021449922856066257
1338,1538.000,0.00024569631509891446
1339,1539.000,0.00025470628348346196
1340,1540.000,0.0030599957589759613
1341,1541.000,0.00032130241547578267
1342,1542.000,-5.908487953975971e-05
1343,1543.000,0.0004446764963987196
1344,1544.000,0.0041753960773256
1345,1545.000,0.002744856098758093
1346,1546.000,0.0004045469492950182
1347,1547.000,0.002549662313278876
1348,1548.000,0.004363553882239721
1349,1549.000,0.001735660112121944
1350,1550.000,0.0055837709024959565
1351,1551.000,0.005873332035654772
1352,1552.000,-0.0006537020823797345
1353,1553.000,0.0038835958644579103
1354,1554.000,0.0025567371108706377
1355,1555.000,0.003439021302202386
1356,1556.000,0.0067131948973816425
1357,1557.000,0.0072204883071610975
1358,1558.000,0.0061095285935448725
1359,1559.000,0.002676234854081932
1360,1560.000,0.006063413334695122
1361,1561.000,0.001778785828747288
1362,1562.000,0.0038133783879047253
1363,1563.000,0.007369680760185899
1364,1564.000,0.005814218753412574
1365,1565.000,0.006682205655508121
1366,1566.000,0.00382279830196113
1367,1567.000,0.006160593496672845
1368,1568.000,0.013192847942794406
1369,1569.000,0.006369032724641304
1370,1570.000,0.011182817093948735
1371,1571.000,0.015583546957824173
1372,1572.000,0.014567244615037998
1373,1573.000,0.01617727484049225
1374,1574.000,0.01716621906911883
1375,1575.000,0.020941285367290313
1376,1576.000,0.026279798618647234
1377,1577.000,0.031485582570069254
1378,1578.000,0.037866184346584786
1379,1579.000,0.040771910827267915
1380,1580.000,0.05518295762051754
1381,1581.000,0.06433218855773189
1382,1582.000,0.06903035751766573
1383,1583.000,0.06913192368807107
1384,1584.000,0.06879751784361825
1385,1585.000,0.06415766120971785
1386,1586.000,0.05626745232717305
1387,1587.000,0.053867769852947674
1388,1588.000,0.04513229843935695
1389,1589.000,0.04308614692706393
1390,1590.000,0.04030172838849415
1391,1591.000,0.038877366628878106
1392,1592.000,0.041975021846602394
1393,1593.000,0.04464925651926152
1394,1594.000,0.05022058735367514
1395,1595.000,0.0603452377837862
1396,1596.000,0.06655756459385107
1397,1597.000,0.08033304158995747
1398,1598.000,0.1013920018781337
1399,1599.000,0.12868187980746293
1400,1600.000,0.16190962797085479
1401,1601.000,0.1864830843780079
1402,1602.000,0.1994329632963086
1403,1603.000,0.18778600943659288
1404,1604.000,0.1582794438578203
1405,1605.000,0.12708038995904622
1406,1606.000,0.09811829913664376
1407,1607.000,0.08035891897656329
1408,1608.000,0.06250408711674124
1409,1609.000,0.04946358338018552
1410,1610.000,0.03931569291218282
1411,1611.000,0.03573138863115345
1412,1612.000,0.029549744629361364
1413,1613.000,0.02404584654431965
1414,1614.000,0.021429379496978325
1415,1615.000,0.01921308412041421
1416,1616.000,0.016514720720862713
1417,1617.000,0.01560666328616742
1418,1618.000,0.01638845019546225
1419,1619.000,0.016662749609844298
1420,1620.000,0.009181104449890452
1421,1621.000,0.006094759503862615
1422,1622.000,0.005038231360370032
1423,1623.000,0.0075322521484014
1424,1624.000,0.010749772450955186
1425,1625.000,0.008033843242288022
1426,1626.000,0.006220712234581354
1427,1627.000,0.005522638503695988
1428,1628.000,0.0073864957912004505
1429,1629.000,0.004818449039804524
1430,1630.000,0.004835644351446165
1431,1631.000,0.005909747140450728
1432,1632.000,0.006150073451275336
1433,1633.000,0.0039050474788526997
1434,1634.000,0.003767919547066878
1435,1635.000,0.002161128492032906
1436,1636.000,0.003311059238078939
1437,1637.000,0.004053118656302359
1438,1638.000,0.005358579445043893
1439,1639.000,0.0012172678729864066
1440,1640.000,0.00380625783040348
1441,1641.000,0.0030255483302878035
1442,1642.000,0.0037948042828525037
1443,1643.000,0.0013491848556315747
1444,1644.000,0.004119530801899997
1445,1645.000,0.0031337648356762463
1446,1646.000,0.00337057362959668
1447,1647.000,0.006120580716234723
1448,1648.000,0.001731345426036006
1449,1649.000,0.004253997400467363
1450,1650.000,0.0017507479432426736
1451,1651.000,0.004067582574726197
1452,1652.000,0.0038898990553001022
1453,1653.000,0.0017193560141656962
1454,1654.000,-0.003036335992259397
1455,1655.000,-0.001193492601946594
1456,1656.000,0.004999701832170347
1457,1657.000,0.0011993066351356839
1458,1658.000,-0.0004156508280204229
1459,1659.000,-0.0023070013003138523
1460,1660.000,0.0009861762274811906
1461,1661.000,0.002809986651304605
1462,1662.000,-0.0005597869688400673
1463,1663.000,0.0022543019794533546
1464,1664.000,0.0019926455546832767
1465,1665.000,0.0006824500354453026
1466,1666.000,0.0009075357717271797
1467,1667.000,0.003380554339233447
1468,1668.000,-0.00043324093722595385
1469,1669.000,0.0004868977447441998
1470,1670.000,0.00275826091196657
1471,1671.000,0.001139626245601471
1472,1672.000,0.0020050130380815964
1473,1673.000,-0.00028469133203300304
1474,1674.000,-0.0010285003567266134
1475,1675.000,-0.0012337559573373372
1476,1676.000,0.0031961567365365547
1477,1677.000,6.84946948575199e-05
1478,1678.000,0.0010591077400451327
1479,1679.000,0.004959718401191411
1480,1680.000,0.002400630177730059
1481,1681.000,-0.0012096692033274528
1482,1682.000,-0.0004940277698129242
1483,1683.000,0.0004905869402053333
1484,1684.000,-0.0024410895117676257
1485,1685.000,-0.0008082863150840449
1486,1686.000,0.0010636587997324728
1487,1687.000,0.002772702108228458
1488,1688.000,0.0024641805932642618
1489,1689.000,0.0007136011727227212
1490,1690.000,0.0022278726336634877
1491,1691.000,0.0016412918176855972
1492,1692.000,0.0016788780605787534
1493,1693.000,0.0015868605631475373
1494,1694.000,0.003209716502266112
1495,1695.000,0.002931630376477893
1496,1696.000,-0.0008771777010189509
1497,1697.000,0.0015915697312117833
1498,1698.000,0.0013435516529813412
1499,1699.000,0.0007501403026526574
1500,1700.000,-0.000175025973234632
1501,1701.000,-9.266571021797098e-05
1502,1702.000,-0.0015958465470278039
1503,1703.000,0.0005756590301336726
1504,1704.000,-0.0013316386128220316
1505,1705.000,0.0007583587823959283
1506,1706.000,0.0009759544104592819
1507,1707.000,0.0009953427263147306
1508,1708.000,0.00018756071699175435
1509,1709.000,-0.003021926985726939
1510,1710.000,-0.0005101109578613198
1511,1711.000,0.0017847709093221724
1512,1712.000,-0.002051513942513341
1513,1713.000,0.00026170660287771883
1514,1714.000,-0.0005507457574828378
1515,1715.000,0.0010064374530582387
1516,1716.000,-0.0008136556881871863
1517,1717.000,4.5761171826021996e-05
1518,1718.000,0.0018876432884540849
1519,1719.000,-0.00020719361167375385
1520,1720.000,0.003371088349681976
1521,1721.000,0.003930155152222444
1522,1722.000,0.005854355558984677
1523,1723.000,0.0009936748565104458
1524,1724.000,0.0045092004156579105
1525,1725.000,0.0023744510913072305
1526,1726.000,0.002682237607449444
1527,1727.000,0.002551244343804681
1528,1728.000,0.0006578018546838906
1529,1729.000,0.004891051712191348
1530,1730.000,-0.0004482688070859807
1531,1731.000,-0.001562912035622852
1532,1732.000,0.0013116279621976047
1533,1733.000,-0.002551884982537453
1534,1734.000,0.0003213967755649938
1535,1735.000,-0.002271435120735214
1536,1736.000,-0.00013579584504147204
1537,1737.000,-1.705740074202428e-06
1538,1738.000,0.002265103211605002
1539,1739.000,-0.0010656305784528459
1540,1740.000,0.0007948212250292816
1541,1741.000,-0.0004031466960648172
1542,1742.000,-0.00014749775844599122
1543,1743.000,-0.00045714591394023426
1544,1744.000,-0.0029590793792852892
1545,1745.000,0.0003129488651031391
1546,1746.000,-0.0017772044293926483
1547,1747.000,0.0005607116345972206
1548,1748.000,-0.0008182121128294315
1549,1749.000,0.004366826504731762
1550,1750.000,0.001987327937615689
1551,1751.000,0.004534643556502008
1552,1752.000,0.003418881892660239
1553,1753.000,-0.0009749618938018598
1554,1754.000,-0.0037119346647054513
1555,1755.000,-0.00011207138328046525
1556,1756.000,0.0006508163678120181
1557,1757.000,-0.001150704877480264
1558,1758.000,0.00102929184536789
1559,1759.000,0.00019850049121418304
1560,1760.000,0.0009889334987167701
1561,1761.000,-0.0006597045201616642
1562,1762.000,-0.0009293471536861857
1563,1763.000,0.005393664356608996
1564,1764.000,-0.0012565087310893767
1565,1765.000,-0.0006267993582158983
1566,1766.000,0.0032534421470840663
1567,1767.000,-0.002211639542463335
1568,1768.000,2.725397091732131e-06
1569,1769.000,5.099231844396454e-05
1570,1770.000,-0.0002849652603187399
1571,1771.000,0.0019600420925545204
1572,1772.000,0.0015461279319953993
1573,1773.000,0.0007811450082197282
1574,1774.000,-0.0022813293599223358
1575,1775.000,-0.002528841870049379
1576,1776.000,-0.0005707961718906782
1577,1777.000,0.0020953172213846265
1578,1778.000,-0.0013913338348786291
1579,1779.000,0.003775255965106653
1580,1780.000,-0.0033781353757424645
1581,1781.000,0.0007057535060390594
1582,1782.000,5.7266159826969956e-06
1583,1783.000,0.0004606621685020776
1584,1784.000,-0.000873037533760216
1585,1785.000,-0.0027061697245238324
1586,1786.000,-0.0006141639426579118
1587,1787.000,-0.0001318961539967136
1588,1788.000,-0.001385412818177022
1589,1789.000,0.0024047716073311246
1590,1790.000,-0.00037695751090334397
1591,1791.000,0.0019702295107479205
1592,1792.000,-0.0004808296651610797
1593,1793.000,-0.0011536758001552947
1594,1794.000,-0.0018886399077240813
1595,1795.000,0.0025946910109675763
1596,1796.000,0.0045832973857785645
1597,1797.000,0.0018875375672838986
1598,1798.000,0.0015251455933620048
1599,1799.000,-0.004180176883317108
1600,1800.000,-0.00012437858983249973
1601,1801.000,-0.0006266494550641414
1602,1802.000,0.0006903573478040844
1603,1803.000,0.00153792396918893
1604,1804.000,-0.0009639337556162901
1605,1805.000,-0.0003873159764825385
1606,1806.000,-0.0021554564723560068
1607,1807.000,0.0037400861610198187
1608,1808.000,0.002935385529325799
1609,1809.000,-0.0002703751076618432
1610,1810.000,0.00034364587472712993
1611,1811.000,-0.002510550214093626
1612,1812.000,0.001651405704438241
1613,1813.000,0.0004270624026889076
1614,1814.000,-0.002723867448413045
1615,1815.000,0.0005704973123439122
1616,1816.000,-0.0005554577658173275
1617,1817.000,-0.002011982114503171
1618,1818.000,-0.003370187668429104
1619,1819.000,-0.0028528545345089264
1620,1820.000,0.00014704962691863366
1621,1821.000,-0.000146916449802757
1622,1822.000,0.004439961254410928
1623,1823.000,-0.0029452933386929754
1624,1824.000,-0.000850950014416395
1625,1825.000,0.0031863246677092142
1626,1826.000,0.0006780845400805584
1627,1827.000,0.0009125624188875677
1628,1828.000,-0.0007399288999549761
1629,1829.000,4.486364642897635e-06
1630,1830.000,0.00019388473648240053
1631,1831.000,0.0013105347737393184
1632,1832.000,-0.004838266552052371
1633,1833.000,-0.00013499520441829878
1634,1834.000,0.0017251851954627531
1635,1835.000,-0.0001059812127065599
1636,1836.000,0.0015244383660712947
1637,1837.000,-0.0018277830151377636
1638,1838.000,-0.0005514113274766385
1639,1839.000,-0.0003580693981963894
1640,1840.000,-0.0004962807352874351
1641,1841.000,-0.003140605784351267
1642,1842.000,0.0012391467902600987
1643,1843.000,-0.0014934245085223273
1644,1844.000,-2.814550018829668e-05
1645,1845.000,0.00019281679487072594
1646,1846.000,-0.0018478473153112406
1647,1847.000,-0.0024950928322556173
1648,1848.000,-0.005415502247756944
1649,1849.000,0.0013879040507664307
1650,1850.000,-0.0004447718032446788
1651,1851.000,0.000846850873283404
1652,1852.000,-0.0016998114834468375
1653,1853.000,-2.5470281204205285e-05
1654,1854.000,0.0001919972191125939
1655,1855.000,0.001777405457408794
1656,1856.000,-0.000475103680349548
1657,1857.000,-0.0028577098186979375
1658,1858.000,0.001566568725768973
1659,1859.000,-0.00032634452632972016
1660,1860.000,-0.0044673427219036384
1661,1861.000,0.000420786036621241
1662,1862.000,0.0033232335831006794
1663,1863.000,0.0004685420249151693
1664,1864.000,-0.0039416329998632855
1665,1865.000,0.0026171206250829864
1666,1866.000,-0.0037724649262137304
1667,1867.000,0.0034263328682665145
1668,1868.000,0.00012357321542558677
1669,1869.000,0.0007063098834212647
1670,1870.000,0.0004090061735778082
1671,1871.000,0.002683232017620362
1672,1872.000,-0.000884872624280612
1673,1873.000,0.00020077491650831388
1674,1874.000,0.0010935851493636417
1675,1875.000,-0.0014667619449868848
1676,1876.000,-0.0030086083273825237
1677,1877.000,-0.0018982315003374457
1678,1878.000,0.001602820672818701
1679,1879.000,0.002283610728099285
1680,1880.000,0.0030895216305027525
1681,1881.000,0.0014161331811341287
1682,1882.000,0.0014621985774618217
1683,1883.000,-0.0007844207865675952
1684,1884.000,-0.0007925486932486468
1685,1885.000,-0.00047958720472220177
1686,1886.000,-0.0004151626171240693
1687,1887.000,0.0005240121871913
1688,1888.000,5.968638566028326e-05
1689,1889.000,0.0010338113464969654
1690,1890.000,-0.00041015932329679727
1691,1891.000,0.0008677322245303517
1692,1892.000,-0.0017399123122625183
1693,1893.000,-0.001370802468042836
1694,1894.000,0.0020144758717772415
1695,1895.000,-0.0013314543108417663
1696,1896.000,0.000748752988431345
1697,1897.000,-0.0020001978332615817
1698,1898.000,-0.00044355585199474314
1699,1899.000,-0.00032493575228878773
1700,1900.000,-0.0037658022833929054
1701,1901.000,0.0020546082591511865
1702,1902.000,-0.0019158137199034107
1703,1903.000,0.000903769257798298
1704,1904.000,0.00046667438943706944
1705,1905.000,3.2953762125493385e-05
1706,1906.000,-0.0022531747077521426
1707,1907.000,0.005282309668186719
1708,1908.000,0.0008184522734578253
1709,1909.000,0.002447492112068351
1710,1910.000,-0.001627419306643638
1711,1911.000,0.0015485191239551091
1712,1912.000,0.003237020020119909
1713,1913.000,0.001288595579619341
1714,1914.000,-0.003106487827011392
1715,1915.000,0.0016549415253062083
1716,1916.000,0.0014519218485485326
1717,1917.000,0.003951073111396979
1718,1918.000,0.0015613659818534684
1719,1919.000,-0.00109415383458357
1720,1920.000,-0.0012034281828450426
1721,1921.000,-0.002300014235514066
1722,1922.000,0.0008365956041897349
1723,1923.000,-0.0015008426632280077
1724,1924.000,0.0012424462375266643
1725,1925.000,-9.91822369140313e-05
1726,1926.000,-0.0007012466283332898
1727,1927.000,-0.00048244009838932294
1728,1928.000,0.0024428182895893614
1729,1929.000,0.0016151559664875912
1730,1930.000,0.0004242581092015139
1731,1931.000,-0.003800071090641285
1732,1932.000,0.001291748279589976
1733,1933.000,-0.003651116273560217
1734,1934.000,-0.0017078516573359136
1735,1935.000,-0.0020636109690673333
1736,1936.000,-0.001978198993466484
1737,1937.000,-0.0007418391394867331
1738,1938.000,0.0004583975263610089
1739,1939.000,-0.002448845027461155
1740,1940.000,0.0010927974477493569
1741,1941.000,0.003281843271594306
1742,1942.000,-0.0011467404913910629
1743,1943.000,0.001172982379344838
1744,1944.000,0.0025479682498712316
1745,1945.000,0.0004256037661259171
1746,1946.000,0.0026000827906470857
1747,1947.000,0.0011006176584873284
1748,1948.000,0.0030673410134120505
1749,1949.000,-0.001474221125818309
1750,1950.000,0.0010707039322794653
1751,1951.000,0.0024953345708119243
1752,1952.000,-4.2520423477828704e-05
1753,1953.000,0.0015203408028662173
1754,1954.000,-0.002831480869753051
1755,1955.000,0.0025526433346925513
1756,1956.000,0.0029799320122442163
1757,1957.000,0.0009532663317516852
1758,1958.000,-0.0015239252239139121
1759,1959.000,-0.0008549671032978977
1760,1960.000,0.0006442774345395898
1761,1961.000,0.0027859538624293526
1762,1962.000,0.001059876190938876
1763,1963.000,0.0007134547410123734
1764,1964.000,-0.00193928445085597
1765,1965.000,0.00032890834360313747
1766,1966.000,0.0024350971727243407
1767,1967.000,-0.0014940298016698425
1768,1968.000,-0.0018219128077149628
1769,1969.000,0.0012125107359135987
1770,1970.000,-0.00017714102780952648
1771,1971.000,0.0008800220738753406
1772,1972.000,-0.0016300538150875678
1773,1973.000,-0.00038758832684036214
1774,1974.000,0.0023259133975250877
1775,1975.000,0.0007568717431304997
1776,1976.000,0.0013290877345575028
1777,1977.000,0.0008273158101320248
1778,1978.000,0.0008840877629365709
1779,1979.000,0.0032583889510920446
1780,1980.000,0.0010753193714256653
1781,1981.000,6.186234825262845e-05
1782,1982.000,-0.00260559196816334
1783,1983.000,-0.0025200932065272625
1784,1984.000,-0.0023775192143417165
1785,1985.000,-0.0003387460929709658
1786,1986.000,0.0018329747135578753
1787,1987.000,-0.0013755207880889785
1788,1988.000,-0.0010414649280472998
1789,1989.000,-0.002359245546764174
1790,1990.000,0.0013810299656052325
1791,1991.000,-0.0007971006996927349
1792,1992.000,0.0003421149690657134
1793,1993.000,0.0032731422614951694
1794,1994.000,0.001997476223196841
1795,1995.000,-0.0008797008077522069
1796,1996.000,-0.002258733432204872
1797,1997.000,-0.0013700037209331585
1798,1998.000,0.0032300263280228875
1799,1999.000,-0.0005358797830267084
1800,2000.000,0.0015873093258460605
