raman_shift_cm-1,intensity
200.0000,331.175835
201.0000,328.842935
202.0000,336.101759
203.0000,340.918615
204.0000,346.017415
205.0000,340.665744
206.0000,337.499169
207.0000,336.915097
208.0000,346.926160
209.0000,353.053469
210.0000,345.693651
211.0000,337.470514
212.0000,339.935526
213.0000,356.101045
214.0000,348.535223
215.0000,337.743301
216.0000,348.453300
217.0000,342.796673
218.0000,346.822039
219.0000,348.492659
220.0000,347.964927
221.0000,356.390380
222.0000,353.518084
223.0000,351.187692
224.0000,358.010977
225.0000,361.362342
226.0000,347.356323
227.0000,356.506526
228.0000,352.996060
229.0000,358.676443
230.0000,352.814885
231.0000,361.512758
232.0000,361.999713
233.0000,361.240609
234.0000,357.619881
235.0000,362.372298
236.0000,359.044664
237.0000,358.305780
238.0000,368.631339
239.0000,361.473317
240.0000,375.999183
241.0000,374.126122
242.0000,358.690086
243.0000,373.161350
244.0000,365.771068
245.0000,373.433704
246.0000,374.352347
247.0000,363.016373
248.0000,374.404017
249.0000,375.128615
250.0000,383.295364
251.0000,371.295891
252.0000,383.675238
253.0000,373.516770
254.0000,378.987687
255.0000,376.798624
256.0000,391.401087
257.0000,386.986421
258.0000,399.037188
259.0000,389.169148
260.0000,391.259671
261.0000,392.107085
262.0000,384.297799
263.0000,388.392986
264.0000,397.792388
265.0000,388.188858
266.0000,392.580276
267.0000,392.200664
268.0000,396.865040
269.0000,391.903235
270.0000,394.062674
271.0000,397.316501
272.0000,397.366931
273.0000,392.446746
274.0000,403.900282
275.0000,391.624911
276.0000,393.100530
277.0000,393.504911
278.0000,407.895546
279.0000,400.825125
280.0000,398.058833
281.0000,397.966412
282.0000,408.208029
283.0000,400.252114
284.0000,399.849817
285.0000,412.068588
286.0000,402.107940
287.0000,408.258327
288.0000,411.058372
289.0000,409.334127
290.0000,412.589989
291.0000,421.856821
292.0000,411.633657
293.0000,408.091236
294.0000,405.539875
295.0000,416.246239
296.0000,416.276994
297.0000,420.897997
298.0000,417.440114
299.0000,418.273096
300.0000,417.737593
301.0000,419.868704
302.0000,424.871612
303.0000,422.552341
304.0000,426.362528
305.0000,438.093635
306.0000,430.489070
307.0000,419.086887
308.0000,439.874883
309.0000,432.492061
310.0000,425.689428
311.0000,437.714125
312.0000,433.312903
313.0000,430.452010
314.0000,431.279834
315.0000,430.059078
316.0000,437.248377
317.0000,444.313773
318.0000,436.892983
319.0000,442.311876
320.0000,451.985658
321.0000,434.390302
322.0000,444.170256
323.0000,441.734990
324.0000,438.167778
325.0000,439.319147
326.0000,446.334647
327.0000,449.982878
328.0000,445.144711
329.0000,449.616357
330.0000,454.580241
331.0000,452.984544
332.0000,457.376595
333.0000,455.893556
334.0000,457.015036
335.0000,466.009836
336.0000,459.753302
337.0000,457.756547
338.0000,462.206041
339.0000,453.399504
340.0000,457.857093
341.0000,465.612932
342.0000,465.609819
343.0000,472.087969
344.0000,463.834545
345.0000,455.972854
346.0000,477.406623
347.0000,473.258025
348.0000,461.326976
349.0000,476.914281
350.0000,469.834899
351.0000,459.739257
352.0000,469.084257
353.0000,469.537712
354.0000,483.122182
355.0000,469.811842
356.0000,474.030913
357.0000,474.881617
358.0000,475.259111
359.0000,473.040470
360.0000,480.832603
361.0000,486.973275
362.0000,485.251879
363.0000,476.939783
364.0000,476.603845
365.0000,485.215741
366.0000,481.262776
367.0000,482.722816
368.0000,477.428392
369.0000,500.213453
370.0000,495.015357
371.0000,484.678531
372.0000,496.978763
373.0000,500.593144
374.0000,479.210812
375.0000,491.265567
376.0000,493.243690
377.0000,500.474540
378.0000,496.870894
379.0000,497.232961
380.0000,499.282371
381.0000,511.770792
382.0000,514.630145
383.0000,499.541915
384.0000,498.155206
385.0000,520.890969
386.0000,499.881348
387.0000,503.344751
388.0000,508.031183
389.0000,511.738884
390.0000,516.042512
391.0000,513.244235
392.0000,506.695326
393.0000,516.000350
394.0000,515.495170
395.0000,526.291964
396.0000,515.976413
397.0000,509.081712
398.0000,511.871741
399.0000,527.882264
400.0000,516.981217
401.0000,508.637038
402.0000,518.822637
403.0000,523.351097
404.0000,531.529331
405.0000,519.356048
406.0000,530.490633
407.0000,532.311171
408.0000,524.393056
409.0000,528.515022
410.0000,541.309600
411.0000,542.069308
412.0000,537.934195
413.0000,535.848566
414.0000,541.743731
415.0000,535.127954
416.0000,536.460762
417.0000,532.929619
418.0000,539.186777
419.0000,539.724069
420.0000,557.921886
421.0000,541.188117
422.0000,551.036317
423.0000,552.401777
424.0000,544.428457
425.0000,553.633397
426.0000,534.626965
427.0000,549.329391
428.0000,554.976525
429.0000,536.520038
430.0000,545.027621
431.0000,559.395652
432.0000,552.594850
433.0000,548.626568
434.0000,554.054173
435.0000,554.121344
436.0000,562.805823
437.0000,562.265857
438.0000,558.945710
439.0000,557.720699
440.0000,562.476310
441.0000,571.838443
442.0000,567.070739
443.0000,569.900463
444.0000,566.254037
445.0000,560.499695
446.0000,565.079127
447.0000,574.346330
448.0000,572.154056
449.0000,567.208695
450.0000,564.022611
451.0000,575.493147
452.0000,573.892215
453.0000,574.927687
454.0000,576.156755
455.0000,580.940593
456.0000,582.108674
457.0000,587.220703
458.0000,588.125521
459.0000,591.655726
460.0000,589.610637
461.0000,583.869216
462.0000,586.668770
463.0000,591.072305
464.0000,587.359004
465.0000,593.632244
466.0000,598.373231
467.0000,587.761171
468.0000,583.064524
469.0000,601.968047
470.0000,596.033072
471.0000,601.300034
472.0000,590.176790
473.0000,609.692290
474.0000,604.850871
475.0000,600.788628
476.0000,600.560168
477.0000,604.483599
478.0000,603.929064
479.0000,604.387642
480.0000,600.473615
481.0000,615.900605
482.0000,609.219916
483.0000,611.039930
484.0000,612.285447
485.0000,598.715582
486.0000,617.165769
487.0000,613.167126
488.0000,614.546919
489.0000,617.842352
490.0000,612.731207
491.0000,624.769881
492.0000,616.679045
493.0000,616.578022
494.0000,617.973672
495.0000,625.247268
496.0000,629.918473
497.0000,623.023625
498.0000,618.684077
499.0000,635.272500
500.0000,623.660520
501.0000,638.374577
502.0000,632.035502
503.0000,629.327971
504.0000,630.835736
505.0000,638.606193
506.0000,642.331363
507.0000,636.967365
508.0000,645.000368
509.0000,653.004130
510.0000,640.397035
511.0000,635.915959
512.0000,637.653122
513.0000,636.805533
514.0000,642.478713
515.0000,643.144334
516.0000,640.707841
517.0000,653.012170
518.0000,635.336790
519.0000,644.254953
520.0000,665.447348
521.0000,660.759916
522.0000,658.848295
523.0000,659.634731
524.0000,668.697625
525.0000,662.467808
526.0000,660.902732
527.0000,654.240767
528.0000,662.365414
529.0000,659.591038
530.0000,660.945468
531.0000,662.086525
532.0000,667.294791
533.0000,666.776408
534.0000,675.174639
535.0000,663.185508
536.0000,671.321728
537.0000,684.692838
538.0000,674.967911
539.0000,683.126280
540.0000,683.957242
541.0000,686.238853
542.0000,683.972044
543.0000,672.466498
544.0000,680.352205
545.0000,680.883416
546.0000,675.082770
547.0000,682.804691
548.0000,679.301227
549.0000,678.023807
550.0000,690.499631
551.0000,690.191618
552.0000,687.547013
553.0000,687.192998
554.0000,690.873425
555.0000,692.983071
556.0000,694.127566
557.0000,697.490735
558.0000,696.426710
559.0000,702.597063
560.0000,704.650133
561.0000,704.900301
562.0000,700.017249
563.0000,701.542351
564.0000,709.098953
565.0000,706.558899
566.0000,708.736796
567.0000,695.301621
568.0000,695.314379
569.0000,714.803035
570.0000,716.026601
571.0000,723.683156
572.0000,720.927349
573.0000,719.213408
574.0000,719.268895
575.0000,711.903542
576.0000,727.062246
577.0000,719.447294
578.0000,727.396277
579.0000,726.901712
580.0000,728.662332
581.0000,733.723035
582.0000,726.774813
583.0000,728.748376
584.0000,727.306239
585.0000,731.561204
586.0000,745.216980
587.0000,734.454792
588.0000,745.179806
589.0000,744.473800
590.0000,745.367804
591.0000,747.310308
592.0000,737.935864
593.0000,747.824815
594.0000,756.715367
595.0000,744.654836
596.0000,750.242581
597.0000,748.145151
598.0000,756.006504
599.0000,749.539478
600.0000,767.672200
601.0000,757.872885
602.0000,753.137913
603.0000,775.569080
604.0000,773.287028
605.0000,773.473496
606.0000,776.780537
607.0000,775.070680
608.0000,780.034483
609.0000,790.553743
610.0000,797.439081
611.0000,804.427895
612.0000,808.573559
613.0000,815.061135
614.0000,830.045338
615.0000,854.760779
616.0000,877.869841
617.0000,892.350208
618.0000,918.323092
619.0000,951.014939
620.0000,957.542264
621.0000,950.216291
622.0000,918.319109
623.0000,899.664815
624.0000,876.152699
625.0000,861.865987
626.0000,836.106595
627.0000,843.011335
628.0000,829.123323
629.0000,823.968398
630.0000,809.858462
631.0000,813.583835
632.0000,819.417576
633.0000,800.337325
634.0000,810.460181
635.0000,812.098263
636.0000,803.357565
637.0000,812.260390
638.0000,805.463222
639.0000,815.064280
640.0000,811.232895
641.0000,809.912349
642.0000,821.215088
643.0000,814.830167
644.0000,818.437104
645.0000,804.253796
646.0000,808.367637
647.0000,818.166850
648.0000,819.519257
649.0000,814.722426
650.0000,820.735529
651.0000,810.732891
652.0000,819.414438
653.0000,812.316161
654.0000,822.329561
655.0000,818.471323
656.0000,818.658887
657.0000,823.972055
658.0000,835.680031
659.0000,819.856234
660.0000,823.477394
661.0000,834.663684
662.0000,826.894054
663.0000,841.236078
664.0000,833.147396
665.0000,833.553891
666.0000,836.354965
667.0000,845.869550
668.0000,840.568322
669.0000,840.954627
670.0000,840.587912
671.0000,830.928590
672.0000,836.221479
673.0000,851.666622
674.0000,848.934499
675.0000,848.279324
676.0000,850.307875
677.0000,844.469201
678.0000,851.006354
679.0000,844.824026
680.0000,853.829484
681.0000,848.451193
682.0000,852.709852
683.0000,857.972004
684.0000,854.551422
685.0000,861.660079
686.0000,861.774989
687.0000,862.461341
688.0000,869.518493
689.0000,853.997687
690.0000,854.533756
691.0000,869.080789
692.0000,872.301378
693.0000,880.001076
694.0000,873.744699
695.0000,875.465642
696.0000,866.464299
697.0000,877.558143
698.0000,878.366254
699.0000,869.269989
700.0000,871.510362
701.0000,877.506274
702.0000,881.187266
703.0000,863.075385
704.0000,882.453343
705.0000,884.705093
706.0000,883.548438
707.0000,887.500922
708.0000,889.926945
709.0000,882.414228
710.0000,892.274697
711.0000,889.564342
712.0000,886.692493
713.0000,894.919203
714.0000,903.887835
715.0000,887.499911
716.0000,887.641614
717.0000,888.941989
718.0000,912.026626
719.0000,899.956095
720.0000,902.412610
721.0000,899.355120
722.0000,899.738066
723.0000,894.526931
724.0000,909.019058
725.0000,910.863730
726.0000,898.758175
727.0000,905.670791
728.0000,908.778653
729.0000,914.402360
730.0000,917.339632
731.0000,923.947598
732.0000,926.699126
733.0000,926.244301
734.0000,929.205642
735.0000,915.482663
736.0000,920.480792
737.0000,931.997970
738.0000,928.198944
739.0000,927.912195
740.0000,917.261174
741.0000,919.317383
742.0000,936.198573
743.0000,935.205925
744.0000,932.726380
745.0000,933.374398
746.0000,926.848594
747.0000,940.789223
748.0000,946.129209
749.0000,951.140815
750.0000,942.952430
751.0000,942.807341
752.0000,938.837007
753.0000,954.138965
754.0000,958.433750
755.0000,945.913933
756.0000,952.745767
757.0000,952.962213
758.0000,950.401818
759.0000,940.297302
760.0000,954.535004
761.0000,961.837766
762.0000,951.010004
763.0000,956.129591
764.0000,942.972927
765.0000,971.913531
766.0000,968.763451
767.0000,967.616584
768.0000,967.332963
769.0000,966.778693
770.0000,971.815763
771.0000,972.158624
772.0000,974.315266
773.0000,977.449150
774.0000,980.324812
775.0000,990.868781
776.0000,974.983135
777.0000,987.476494
778.0000,984.526325
779.0000,983.979668
780.0000,979.361592
781.0000,1000.224246
782.0000,993.970537
783.0000,999.077491
784.0000,1010.605588
785.0000,1006.103177
786.0000,1018.331358
787.0000,1024.223329
788.0000,1037.096543
789.0000,1047.248451
790.0000,1046.243624
791.0000,1068.398616
792.0000,1074.317319
793.0000,1086.872144
794.0000,1093.411345
795.0000,1103.323746
796.0000,1090.008473
797.0000,1092.886351
798.0000,1089.738177
799.0000,1071.574422
800.0000,1076.587407
801.0000,1052.340301
802.0000,1051.733822
803.0000,1042.538082
804.0000,1037.818583
805.0000,1031.860171
806.0000,1033.091378
807.0000,1034.402212
808.0000,1028.768699
809.0000,1038.146045
810.0000,1041.555517
811.0000,1023.100126
812.0000,1037.333540
813.0000,1033.677499
814.0000,1034.377590
815.0000,1048.169127
816.0000,1041.221152
817.0000,1036.675034
818.0000,1036.513882
819.0000,1023.288396
820.0000,1041.777277
821.0000,1033.556490
822.0000,1040.048037
823.0000,1040.558675
824.0000,1046.744131
825.0000,1054.200362
826.0000,1048.977324
827.0000,1051.792112
828.0000,1043.843887
829.0000,1049.098520
830.0000,1052.106367
831.0000,1039.992839
832.0000,1062.031011
833.0000,1046.653934
834.0000,1044.448493
835.0000,1063.096940
836.0000,1067.189739
837.0000,1051.453705
838.0000,1053.191877
839.0000,1076.748212
840.0000,1059.962529
841.0000,1048.597210
842.0000,1058.046911
843.0000,1074.956066
844.0000,1068.124460
845.0000,1069.911907
846.0000,1073.979214
847.0000,1071.921814
848.0000,1067.105677
849.0000,1060.779080
850.0000,1074.265320
851.0000,1066.134957
852.0000,1073.739579
853.0000,1085.878307
854.0000,1079.817348
855.0000,1078.180736
856.0000,1079.469471
857.0000,1084.712911
858.0000,1087.109387
859.0000,1074.935909
860.0000,1085.205372
861.0000,1095.642905
862.0000,1091.132513
863.0000,1083.273513
864.0000,1085.045097
865.0000,1078.010497
866.0000,1086.881450
867.0000,1102.543679
868.0000,1093.745338
869.0000,1090.293399
870.0000,1093.228074
871.0000,1097.281972
872.0000,1098.569098
873.0000,1098.346713
874.0000,1097.118393
875.0000,1106.814980
876.0000,1113.489540
877.0000,1102.113514
878.0000,1103.536678
879.0000,1115.183592
880.0000,1100.528269
881.0000,1107.025699
882.0000,1109.568884
883.0000,1114.107607
884.0000,1112.714775
885.0000,1110.308308
886.0000,1118.754508
887.0000,1111.028763
888.0000,1108.963507
889.0000,1108.512610
890.0000,1126.437912
891.0000,1112.788150
892.0000,1127.155185
893.0000,1129.760650
894.0000,1131.841342
895.0000,1127.215400
896.0000,1126.237848
897.0000,1131.304639
898.0000,1128.491777
899.0000,1125.600571
900.0000,1142.114053
901.0000,1130.478459
902.0000,1147.884141
903.0000,1141.461185
904.0000,1136.909129
905.0000,1143.526325
906.0000,1149.545421
907.0000,1135.157931
908.0000,1139.132488
909.0000,1139.662081
910.0000,1148.212642
911.0000,1150.912961
912.0000,1149.926534
913.0000,1146.649030
914.0000,1149.113478
915.0000,1160.672714
916.0000,1161.518788
917.0000,1156.872397
918.0000,1149.488245
919.0000,1162.388844
920.0000,1161.614829
921.0000,1162.674710
922.0000,1172.808695
923.0000,1168.622714
924.0000,1159.124395
925.0000,1160.455517
926.0000,1175.799758
927.0000,1170.027079
928.0000,1175.391237
929.0000,1170.707907
930.0000,1166.928192
931.0000,1175.850711
932.0000,1184.901022
933.0000,1178.866167
934.0000,1171.363730
935.0000,1177.569834
936.0000,1177.764650
937.0000,1183.111789
938.0000,1189.511303
939.0000,1196.546845
940.0000,1187.409285
941.0000,1184.808010
942.0000,1189.164745
943.0000,1190.112513
944.0000,1188.784956
945.0000,1192.796390
946.0000,1193.982545
947.0000,1188.259135
948.0000,1199.942530
949.0000,1195.823093
950.0000,1193.447514
951.0000,1203.648105
952.0000,1199.149103
953.0000,1213.903618
954.0000,1207.684744
955.0000,1206.667042
956.0000,1203.068191
957.0000,1206.572960
958.0000,1215.531019
959.0000,1207.752958
960.0000,1217.896796
961.0000,1202.213051
962.0000,1217.510233
963.0000,1222.729054
964.0000,1221.410311
965.0000,1220.932769
966.0000,1228.629923
967.0000,1219.087245
968.0000,1220.006488
969.0000,1228.271212
970.0000,1236.642327
971.0000,1233.859754
972.0000,1232.014041
973.0000,1236.965103
974.0000,1239.887760
975.0000,1231.931030
976.0000,1224.814743
977.0000,1237.950751
978.0000,1237.709823
979.0000,1245.955807
980.0000,1245.197957
981.0000,1250.454765
982.0000,1261.810631
983.0000,1263.739634
984.0000,1267.432661
985.0000,1282.554963
986.0000,1275.584492
987.0000,1282.757780
988.0000,1300.547294
989.0000,1295.789883
990.0000,1304.329094
991.0000,1336.533616
992.0000,1349.364515
993.0000,1375.434194
994.0000,1408.700097
995.0000,1456.223382
996.0000,1513.669310
997.0000,1612.170307
998.0000,1746.527285
999.0000,1946.633299
1000.0000,2155.104519
1001.0000,2251.892974
1002.0000,2160.763134
1003.0000,1969.621027
1004.0000,1755.463479
1005.0000,1629.883993
1006.0000,1537.591439
1007.0000,1475.833477
1008.0000,1421.956671
1009.0000,1404.271050
1010.0000,1379.993253
1011.0000,1360.258973
1012.0000,1348.136112
1013.0000,1343.969313
1014.0000,1342.798416
1015.0000,1339.108128
1016.0000,1345.766463
1017.0000,1329.581986
1018.0000,1336.481181
1019.0000,1332.675087
1020.0000,1344.037829
1021.0000,1346.129537
1022.0000,1350.162541
1023.0000,1357.399185
1024.0000,1376.764401
1025.0000,1405.097053
1026.0000,1443.702313
1027.0000,1483.320813
1028.0000,1531.288752
1029.0000,1609.848577
1030.0000,1684.556481
1031.0000,1715.446599
1032.0000,1685.495094
1033.0000,1618.985023
1034.0000,1542.057662
1035.0000,1477.563992
1036.0000,1427.031346
1037.0000,1405.906336
1038.0000,1376.058062
1039.0000,1369.439127
1040.0000,1360.799704
1041.0000,1342.338617
1042.0000,1343.083497
1043.0000,1337.004216
1044.0000,1346.742831
1045.0000,1335.208434
1046.0000,1318.989733
1047.0000,1331.318037
1048.0000,1329.926884
1049.0000,1325.344169
1050.0000,1323.683796
1051.0000,1329.125067
1052.0000,1329.294377
1053.0000,1327.867391
1054.0000,1319.353131
1055.0000,1323.978429
1056.0000,1316.400241
1057.0000,1317.119099
1058.0000,1323.146537
1059.0000,1320.653069
1060.0000,1325.018996
1061.0000,1342.937844
1062.0000,1331.624054
1063.0000,1323.985387
1064.0000,1316.994476
1065.0000,1325.625690
1066.0000,1322.766045
1067.0000,1318.922063
1068.0000,1337.205779
1069.0000,1330.761789
1070.0000,1337.092883
1071.0000,1353.822753
1072.0000,1337.748620
1073.0000,1337.679995
1074.0000,1339.935288
1075.0000,1337.116592
1076.0000,1334.637507
1077.0000,1339.216408
1078.0000,1348.249865
1079.0000,1340.685977
1080.0000,1335.005689
1081.0000,1336.664056
1082.0000,1338.899525
1083.0000,1346.082098
1084.0000,1349.851404
1085.0000,1350.803107
1086.0000,1356.019250
1087.0000,1348.636265
1088.0000,1355.859433
1089.0000,1353.793891
1090.0000,1357.072383
1091.0000,1342.787127
1092.0000,1362.314771
1093.0000,1346.565480
1094.0000,1350.077612
1095.0000,1362.502310
1096.0000,1356.509813
1097.0000,1370.444540
1098.0000,1361.806666
1099.0000,1355.676663
1100.0000,1363.769129
1101.0000,1361.423800
1102.0000,1374.143694
1103.0000,1375.604794
1104.0000,1371.259667
1105.0000,1365.396101
1106.0000,1369.342367
1107.0000,1376.136813
1108.0000,1366.045754
1109.0000,1367.093664
1110.0000,1377.976492
1111.0000,1378.315847
1112.0000,1373.528101
1113.0000,1374.336393
1114.0000,1365.271125
1115.0000,1385.118341
1116.0000,1378.365796
1117.0000,1371.558951
1118.0000,1374.429714
1119.0000,1376.911446
1120.0000,1393.579770
1121.0000,1388.605788
1122.0000,1377.558501
1123.0000,1397.842647
1124.0000,1395.891970
1125.0000,1382.679999
1126.0000,1374.271468
1127.0000,1397.223130
1128.0000,1389.084829
1129.0000,1393.166396
1130.0000,1392.157983
1131.0000,1404.233748
1132.0000,1406.977583
1133.0000,1404.454750
1134.0000,1400.256726
1135.0000,1404.388478
1136.0000,1408.309259
1137.0000,1397.028800
1138.0000,1415.988440
1139.0000,1408.859252
1140.0000,1414.829264
1141.0000,1416.863477
1142.0000,1424.613566
1143.0000,1429.197838
1144.0000,1440.247243
1145.0000,1429.846739
1146.0000,1432.506212
1147.0000,1445.994222
1148.0000,1450.175045
1149.0000,1470.280190
1150.0000,1473.823881
1151.0000,1495.747452
1152.0000,1519.081327
1153.0000,1538.202346
1154.0000,1548.238021
1155.0000,1561.894748
1156.0000,1556.881214
1157.0000,1526.225341
1158.0000,1522.073752
1159.0000,1504.697863
1160.0000,1487.756529
1161.0000,1474.425298
1162.0000,1469.792964
1163.0000,1465.286436
1164.0000,1459.786931
1165.0000,1462.866660
1166.0000,1458.265003
1167.0000,1447.302886
1168.0000,1445.573975
1169.0000,1455.176051
1170.0000,1446.508328
1171.0000,1452.926004
1172.0000,1456.704479
1173.0000,1462.728391
1174.0000,1463.285915
1175.0000,1473.664529
1176.0000,1468.550414
1177.0000,1483.575686
1178.0000,1486.304386
1179.0000,1504.945572
1180.0000,1520.889407
1181.0000,1532.018898
1182.0000,1536.484112
1183.0000,1563.948344
1184.0000,1555.295648
1185.0000,1540.444413
1186.0000,1518.933677
1187.0000,1505.776246
1188.0000,1497.852475
1189.0000,1485.414544
1190.0000,1484.814369
1191.0000,1472.984449
1192.0000,1463.184892
1193.0000,1468.655057
1194.0000,1458.864426
1195.0000,1462.231594
1196.0000,1448.795370
1197.0000,1456.637449
1198.0000,1461.431872
1199.0000,1453.753272
1200.0000,1457.242791
1201.0000,1460.835426
1202.0000,1457.707616
1203.0000,1468.120511
1204.0000,1456.033739
1205.0000,1456.759785
1206.0000,1457.176993
1207.0000,1446.632265
1208.0000,1449.680989
1209.0000,1462.505791
1210.0000,1457.786542
1211.0000,1468.574283
1212.0000,1460.273585
1213.0000,1460.241521
1214.0000,1467.970121
1215.0000,1464.006792
1216.0000,1472.533716
1217.0000,1457.142173
1218.0000,1466.707862
1219.0000,1468.739218
1220.0000,1468.599583
1221.0000,1472.785462
1222.0000,1472.670275
1223.0000,1467.340572
1224.0000,1464.408073
1225.0000,1474.276778
1226.0000,1469.342340
1227.0000,1475.448874
1228.0000,1478.467347
1229.0000,1472.223167
1230.0000,1466.269938
1231.0000,1470.806328
1232.0000,1477.719810
1233.0000,1472.226252
1234.0000,1481.376453
1235.0000,1475.212519
1236.0000,1476.426778
1237.0000,1472.531897
1238.0000,1476.339261
1239.0000,1484.141029
1240.0000,1476.153446
1241.0000,1476.833372
1242.0000,1474.780194
1243.0000,1484.755498
1244.0000,1471.561220
1245.0000,1477.381182
1246.0000,1487.374346
1247.0000,1491.061521
1248.0000,1481.806645
1249.0000,1489.533940
1250.0000,1472.464235
1251.0000,1489.519838
1252.0000,1487.341685
1253.0000,1478.861892
1254.0000,1476.135054
1255.0000,1484.390851
1256.0000,1489.587593
1257.0000,1490.850852
1258.0000,1489.912656
1259.0000,1494.480209
1260.0000,1494.662716
1261.0000,1482.762271
1262.0000,1489.362913
1263.0000,1489.190700
1264.0000,1499.014082
1265.0000,1490.495753
1266.0000,1500.077306
1267.0000,1495.187723
1268.0000,1509.301121
1269.0000,1495.522614
1270.0000,1496.432992
1271.0000,1496.320886
1272.0000,1498.456026
1273.0000,1512.723795
1274.0000,1495.708316
1275.0000,1494.073609
1276.0000,1498.688027
1277.0000,1504.472480
1278.0000,1495.079766
1279.0000,1506.346085
1280.0000,1506.712166
1281.0000,1501.698721
1282.0000,1501.731969
1283.0000,1499.071231
1284.0000,1502.705246
1285.0000,1500.104181
1286.0000,1512.904760
1287.0000,1515.752406
1288.0000,1504.834971
1289.0000,1506.832974
1290.0000,1496.227462
1291.0000,1504.979663
1292.0000,1510.717592
1293.0000,1510.852810
1294.0000,1510.483953
1295.0000,1515.343410
1296.0000,1511.346200
1297.0000,1508.997804
1298.0000,1521.445317
1299.0000,1500.867834
1300.0000,1505.943965
1301.0000,1508.964315
1302.0000,1509.522880
1303.0000,1509.756793
1304.0000,1513.548786
1305.0000,1511.123454
1306.0000,1515.548045
1307.0000,1519.917284
1308.0000,1517.041648
1309.0000,1518.158936
1310.0000,1512.250560
1311.0000,1511.540925
1312.0000,1517.076160
1313.0000,1524.850533
1314.0000,1522.042972
1315.0000,1526.777450
1316.0000,1526.695823
1317.0000,1527.950389
1318.0000,1516.887761
1319.0000,1529.590453
1320.0000,1527.188891
1321.0000,1535.531329
1322.0000,1527.122639
1323.0000,1526.015547
1324.0000,1523.762272
1325.0000,1525.981560
1326.0000,1515.592825
1327.0000,1524.424207
1328.0000,1526.143685
1329.0000,1532.731786
1330.0000,1523.359634
1331.0000,1528.513137
1332.0000,1539.061891
1333.0000,1525.455845
1334.0000,1534.080480
1335.0000,1526.311762
1336.0000,1529.333822
1337.0000,1533.111283
1338.0000,1536.058900
1339.0000,1528.293014
1340.0000,1525.568981
1341.0000,1541.120439
1342.0000,1533.618750
1343.0000,1537.653766
1344.0000,1538.782932
1345.0000,1538.274461
1346.0000,1532.626708
1347.0000,1533.785170
1348.0000,1525.762706
1349.0000,1536.484408
1350.0000,1533.031393
1351.0000,1536.090483
1352.0000,1547.733511
1353.0000,1541.114453
1354.0000,1537.743812
1355.0000,1529.751658
1356.0000,1542.545678
1357.0000,1547.645792
1358.0000,1534.125736
1359.0000,1541.913901
1360.0000,1536.718220
1361.0000,1539.273399
1362.0000,1538.390484
1363.0000,1531.402505
1364.0000,1538.284666
1365.0000,1532.111823
1366.0000,1550.271533
1367.0000,1548.612952
1368.0000,1543.086143
1369.0000,1544.851265
1370.0000,1543.916654
1371.0000,1545.122546
1372.0000,1545.477801
1373.0000,1543.277396
1374.0000,1544.077389
1375.0000,1537.494983
1376.0000,1539.887630
1377.0000,1542.590316
1378.0000,1547.759344
1379.0000,1544.707616
1380.0000,1558.509718
1381.0000,1546.518610
1382.0000,1545.900707
1383.0000,1550.922472
1384.0000,1554.809566
1385.0000,1560.030673
1386.0000,1555.224517
1387.0000,1546.388821
1388.0000,1549.228245
1389.0000,1556.793686
1390.0000,1552.501589
1391.0000,1556.072943
1392.0000,1551.308142
1393.0000,1561.554435
1394.0000,1561.036035
1395.0000,1559.537468
1396.0000,1554.237093
1397.0000,1544.246000
1398.0000,1546.195838
1399.0000,1556.452445
1400.0000,1558.795053
1401.0000,1538.275917
1402.0000,1553.027426
1403.0000,1563.012805
1404.0000,1562.306681
1405.0000,1554.245520
1406.0000,1561.374668
1407.0000,1558.300033
1408.0000,1557.341066
1409.0000,1565.709160
1410.0000,1566.358216
1411.0000,1557.150975
1412.0000,1555.263104
1413.0000,1553.738902
1414.0000,1553.699586
1415.0000,1570.520392
1416.0000,1574.393353
1417.0000,1565.380056
1418.0000,1571.091617
1419.0000,1561.743300
1420.0000,1566.233768
1421.0000,1572.959387
1422.0000,1570.461362
1423.0000,1569.509621
1424.0000,1561.174653
1425.0000,1563.714160
1426.0000,1571.232805
1427.0000,1571.994976
1428.0000,1576.550242
1429.0000,1575.190808
1430.0000,1579.824155
1431.0000,1583.897329
1432.0000,1589.320195
1433.0000,1589.830158
1434.0000,1589.829385
1435.0000,1595.547136
1436.0000,1607.253503
1437.0000,1606.327521
1438.0000,1608.397231
1439.0000,1615.821149
1440.0000,1632.397584
1441.0000,1644.666457
1442.0000,1661.091135
1443.0000,1666.711154
1444.0000,1693.492153
1445.0000,1702.290788
1446.0000,1723.142331
1447.0000,1741.207120
1448.0000,1765.142846
1449.0000,1780.454281
1450.0000,1778.681602
1451.0000,1771.649098
1452.0000,1753.552524
1453.0000,1746.111808
1454.0000,1723.460550
1455.0000,1704.348143
1456.0000,1683.208804
1457.0000,1665.165894
1458.0000,1653.354983
1459.0000,1646.170903
1460.0000,1638.731505
1461.0000,1624.285918
1462.0000,1618.818824
1463.0000,1609.508653
1464.0000,1604.604040
1465.0000,1592.820009
1466.0000,1602.041906
1467.0000,1597.023380
1468.0000,1599.141202
1469.0000,1584.574007
1470.0000,1586.696092
1471.0000,1578.650257
1472.0000,1583.737799
1473.0000,1580.125080
1474.0000,1583.453147
1475.0000,1577.489421
1476.0000,1581.026765
1477.0000,1573.483308
1478.0000,1578.949748
1479.0000,1572.964004
1480.0000,1571.488401
1481.0000,1573.913325
1482.0000,1574.972189
1483.0000,1564.109951
1484.0000,1563.016002
1485.0000,1572.495902
1486.0000,1570.667502
1487.0000,1558.808334
1488.0000,1560.385092
1489.0000,1565.508726
1490.0000,1571.541605
1491.0000,1570.598158
1492.0000,1575.015976
1493.0000,1575.737105
1494.0000,1582.481492
1495.0000,1560.121104
1496.0000,1568.079327
1497.0000,1574.323797
1498.0000,1560.660790
1499.0000,1559.604602
1500.0000,1568.797136
1501.0000,1573.878355
1502.0000,1574.659687
1503.0000,1556.899330
1504.0000,1560.052251
1505.0000,1566.441836
1506.0000,1563.813681
1507.0000,1568.664599
1508.0000,1567.466699
1509.0000,1576.844444
1510.0000,1566.135372
1511.0000,1567.476919
1512.0000,1566.773723
1513.0000,1572.690308
1514.0000,1559.704974
1515.0000,1568.350644
1516.0000,1561.538431
1517.0000,1557.716295
1518.0000,1572.781058
1519.0000,1568.917615
1520.0000,1573.945652
1521.0000,1567.243937
1522.0000,1569.497730
1523.0000,1566.462326
1524.0000,1568.950985
1525.0000,1563.192956
1526.0000,1575.529602
1527.0000,1560.364211
1528.0000,1575.489396
1529.0000,1564.337025
1530.0000,1570.559843
1531.0000,1566.274687
1532.0000,1568.071825
1533.0000,1574.166105
1534.0000,1566.304149
1535.0000,1559.958604
1536.0000,1566.900039
1537.0000,1569.321642
1538.0000,1551.179133
1539.0000,1571.312391
1540.0000,1572.038822
1541.0000,1555.331219
1542.0000,1564.869078
1543.0000,1570.677217
1544.0000,1559.161506
1545.0000,1563.597566
1546.0000,1564.203862
1547.0000,1569.633307
1548.0000,1573.063154
1549.0000,1566.533716
1550.0000,1567.309100
1551.0000,1572.638846
1552.0000,1570.662613
1553.0000,1567.147067
1554.0000,1575.984113
1555.0000,1560.230443
1556.0000,1569.917593
1557.0000,1567.066931
1558.0000,1567.168525
1559.0000,1571.976277
1560.0000,1571.803034
1561.0000,1586.942790
1562.0000,1577.249282
1563.0000,1576.674813
1564.0000,1585.666139
1565.0000,1583.448591
1566.0000,1568.249426
1567.0000,1582.047596
1568.0000,1588.174012
1569.0000,1583.121459
1570.0000,1591.916108
1571.0000,1591.658944
1572.0000,1601.658717
1573.0000,1596.062662
1574.0000,1601.893214
1575.0000,1619.802428
1576.0000,1636.488739
1577.0000,1658.242380
1578.0000,1667.702188
1579.0000,1687.936565
1580.0000,1724.133167
1581.0000,1745.744611
1582.0000,1777.867694
1583.0000,1776.533434
1584.0000,1760.493648
1585.0000,1750.607997
1586.0000,1728.162835
1587.0000,1705.016791
1588.0000,1692.192992
1589.0000,1681.311177
1590.0000,1677.464916
1591.0000,1674.672130
1592.0000,1684.150182
1593.0000,1693.442430
1594.0000,1707.662957
1595.0000,1731.331759
1596.0000,1752.863470
1597.0000,1801.617515
1598.0000,1871.045773
1599.0000,1961.581849
1600.0000,2047.862556
1601.0000,2139.183186
1602.0000,2177.758641
1603.0000,2150.349195
1604.0000,2051.807699
1605.0000,1947.295135
1606.0000,1869.589601
1607.0000,1795.693246
1608.0000,1740.906139
1609.0000,1710.506869
1610.0000,1669.208003
1611.0000,1653.438959
1612.0000,1635.415776
1613.0000,1626.600137
1614.0000,1603.429676
1615.0000,1593.601536
1616.0000,1591.596662
1617.0000,1586.108780
1618.0000,1582.773589
1619.0000,1575.837088
1620.0000,1576.783008
1621.0000,1574.969131
1622.0000,1569.247569
1623.0000,1559.035999
1624.0000,1569.835900
1625.0000,1551.753661
1626.0000,1557.752630
1627.0000,1562.548326
1628.0000,1551.997279
1629.0000,1561.902004
1630.0000,1564.253951
1631.0000,1560.989679
1632.0000,1553.028501
1633.0000,1555.183014
1634.0000,1545.248904
1635.0000,1549.711258
1636.0000,1549.111502
1637.0000,1546.069251
1638.0000,1545.589118
1639.0000,1542.621224
1640.0000,1531.385606
1641.0000,1544.710214
1642.0000,1543.468422
1643.0000,1553.127460
1644.0000,1544.454838
1645.0000,1539.952576
1646.0000,1544.112871
1647.0000,1541.982595
1648.0000,1537.550797
1649.0000,1534.773407
1650.0000,1527.694177
1651.0000,1536.597520
1652.0000,1544.985929
1653.0000,1523.592184
1654.0000,1528.492719
1655.0000,1538.121743
1656.0000,1534.217547
1657.0000,1535.031905
1658.0000,1520.893957
1659.0000,1527.942811
1660.0000,1533.951692
1661.0000,1533.929884
1662.0000,1531.658966
1663.0000,1524.112399
1664.0000,1532.090815
1665.0000,1521.226035
1666.0000,1522.235346
1667.0000,1520.387936
1668.0000,1535.446708
1669.0000,1523.872667
1670.0000,1526.164743
1671.0000,1512.199053
1672.0000,1531.379374
1673.0000,1527.107521
1674.0000,1513.949885
1675.0000,1513.743329
1676.0000,1532.764527
1677.0000,1516.704908
1678.0000,1532.861672
1679.0000,1518.555522
1680.0000,1506.013459
1681.0000,1526.994024
1682.0000,1522.876259
1683.0000,1523.453515
1684.0000,1515.835898
1685.0000,1517.101864
1686.0000,1523.610795
1687.0000,1512.463626
1688.0000,1505.113120
1689.0000,1521.820976
1690.0000,1512.175150
1691.0000,1523.017110
1692.0000,1511.996145
1693.0000,1511.824861
1694.0000,1512.371250
1695.0000,1499.267833
1696.0000,1519.914372
1697.0000,1508.598891
1698.0000,1510.688904
1699.0000,1520.126922
1700.0000,1511.539657
1701.0000,1515.706027
1702.0000,1511.843653
1703.0000,1513.951932
1704.0000,1510.473780
1705.0000,1515.219933
1706.0000,1506.528308
1707.0000,1510.036983
1708.0000,1502.512897
1709.0000,1513.351951
1710.0000,1492.642213
1711.0000,1506.320994
1712.0000,1506.850350
1713.0000,1506.214308
1714.0000,1503.597136
1715.0000,1511.146706
1716.0000,1515.272102
1717.0000,1498.490954
1718.0000,1490.085242
1719.0000,1494.479764
1720.0000,1495.596231
1721.0000,1499.120216
1722.0000,1499.067916
1723.0000,1505.330036
1724.0000,1495.763522
1725.0000,1497.562250
1726.0000,1497.902091
1727.0000,1491.433050
1728.0000,1494.251528
1729.0000,1512.144064
1730.0000,1494.511259
1731.0000,1488.742243
1732.0000,1480.903626
1733.0000,1499.638752
1734.0000,1490.927983
1735.0000,1488.503344
1736.0000,1506.417971
1737.0000,1499.785966
1738.0000,1480.366251
1739.0000,1487.990168
1740.0000,1495.500719
1741.0000,1493.959778
1742.0000,1481.708757
1743.0000,1498.478548
1744.0000,1498.353989
1745.0000,1480.034255
1746.0000,1475.519106
1747.0000,1477.195731
1748.0000,1488.961869
1749.0000,1490.856147
1750.0000,1484.911930
1751.0000,1479.652575
1752.0000,1482.084936
1753.0000,1485.443394
1754.0000,1474.194371
1755.0000,1470.706531
1756.0000,1479.789524
1757.0000,1487.117270
1758.0000,1480.269231
1759.0000,1479.697296
1760.0000,1473.893928
1761.0000,1482.866297
1762.0000,1466.505603
1763.0000,1475.761787
1764.0000,1471.992522
1765.0000,1474.027141
1766.0000,1468.787309
1767.0000,1478.236045
1768.0000,1472.671416
1769.0000,1468.948912
1770.0000,1474.974038
1771.0000,1470.995892
1772.0000,1467.577586
1773.0000,1466.540463
1774.0000,1474.136920
1775.0000,1463.216423
1776.0000,1466.901080
1777.0000,1466.006084
1778.0000,1468.878305
1779.0000,1465.217586
1780.0000,1478.697367
1781.0000,1454.656043
1782.0000,1468.066897
1783.0000,1463.692533
1784.0000,1469.914373
1785.0000,1452.888273
1786.0000,1469.306337
1787.0000,1453.080327
1788.0000,1464.889460
1789.0000,1463.180737
1790.0000,1459.663879
1791.0000,1454.421500
1792.0000,1453.309933
1793.0000,1458.158562
1794.0000,1452.426493
1795.0000,1444.588729
1796.0000,1444.808563
1797.0000,1459.813834
1798.0000,1459.320160
1799.0000,1456.835625
1800.0000,1453.391682
1801.0000,1454.749230
1802.0000,1454.796703
1803.0000,1452.694164
1804.0000,1445.789414
1805.0000,1445.495894
1806.0000,1442.336402
1807.0000,1449.508215
1808.0000,1442.000323
1809.0000,1446.342831
1810.0000,1454.533804
1811.0000,1443.732516
1812.0000,1451.162971
1813.0000,1454.035059
1814.0000,1433.075120
1815.0000,1434.758304
1816.0000,1445.544540
1817.0000,1437.791242
1818.0000,1444.593778
1819.0000,1444.965299
1820.0000,1436.975724
1821.0000,1444.352731
1822.0000,1449.191592
1823.0000,1443.799457
1824.0000,1432.146132
1825.0000,1435.854017
1826.0000,1432.836962
1827.0000,1444.794299
1828.0000,1433.555133
1829.0000,1429.899588
1830.0000,1433.646366
1831.0000,1435.776220
1832.0000,1429.759359
1833.0000,1431.974500
1834.0000,1430.660785
1835.0000,1434.407885
1836.0000,1435.137240
1837.0000,1430.258288
1838.0000,1425.127262
1839.0000,1429.681283
1840.0000,1421.209105
1841.0000,1432.319022
1842.0000,1427.277602
1843.0000,1425.963859
1844.0000,1409.260131
1845.0000,1437.328691
1846.0000,1431.151126
1847.0000,1429.354556
1848.0000,1421.804555
1849.0000,1424.382713
1850.0000,1436.803733
1851.0000,1414.875511
1852.0000,1422.761397
1853.0000,1421.204860
1854.0000,1417.750233
1855.0000,1418.331482
1856.0000,1409.638438
1857.0000,1418.711508
1858.0000,1406.271508
1859.0000,1424.430874
1860.0000,1417.537008
1861.0000,1406.929050
1862.0000,1398.775873
1863.0000,1411.257956
1864.0000,1412.968029
1865.0000,1403.244549
1866.0000,1418.570786
1867.0000,1409.435713
1868.0000,1404.311998
1869.0000,1398.006231
1870.0000,1404.950442
1871.0000,1403.764045
1872.0000,1408.141787
1873.0000,1409.814168
1874.0000,1402.980731
1875.0000,1404.838322
1876.0000,1409.894568
1877.0000,1404.327294
1878.0000,1398.341902
1879.0000,1402.874746
1880.0000,1395.298474
1881.0000,1400.407517
1882.0000,1397.267985
1883.0000,1389.638359
1884.0000,1399.113693
1885.0000,1395.258449
1886.0000,1398.405781
1887.0000,1385.312018
1888.0000,1399.181834
1889.0000,1398.697904
1890.0000,1388.939519
1891.0000,1389.708401
1892.0000,1389.836117
1893.0000,1388.672515
1894.0000,1393.058495
1895.0000,1383.011251
1896.0000,1379.638936
1897.0000,1384.322131
1898.0000,1396.409192
1899.0000,1381.918079
1900.0000,1377.492174
1901.0000,1377.212006
1902.0000,1382.961897
1903.0000,1388.254863
1904.0000,1376.016885
1905.0000,1380.716321
1906.0000,1380.192347
1907.0000,1380.941615
1908.0000,1378.255417
1909.0000,1382.931761
1910.0000,1379.989637
1911.0000,1371.414735
1912.0000,1388.901227
1913.0000,1365.408909
1914.0000,1364.918100
1915.0000,1378.275609
1916.0000,1372.418980
1917.0000,1369.048873
1918.0000,1370.978440
1919.0000,1373.126702
1920.0000,1365.704235
1921.0000,1363.664530
1922.0000,1360.415593
1923.0000,1360.767245
1924.0000,1360.365996
1925.0000,1371.269515
1926.0000,1365.299996
1927.0000,1366.117639
1928.0000,1358.704047
1929.0000,1367.602681
1930.0000,1351.174999
1931.0000,1362.613339
1932.0000,1363.162232
1933.0000,1354.744009
1934.0000,1351.286767
1935.0000,1359.789346
1936.0000,1351.631439
1937.0000,1349.743547
1938.0000,1354.204398
1939.0000,1346.844540
1940.0000,1351.961048
1941.0000,1364.164964
1942.0000,1348.605794
1943.0000,1355.898627
1944.0000,1343.356487
1945.0000,1349.399243
1946.0000,1346.493386
1947.0000,1346.338891
1948.0000,1351.104245
1949.0000,1358.675235
1950.0000,1344.239452
1951.0000,1352.046114
1952.0000,1345.540484
1953.0000,1347.076630
1954.0000,1339.064697
1955.0000,1336.852297
1956.0000,1339.104575
1957.0000,1334.889926
1958.0000,1338.684117
1959.0000,1331.621209
1960.0000,1337.201948
1961.0000,1337.447111
1962.0000,1346.498543
1963.0000,1345.162547
1964.0000,1337.095503
1965.0000,1330.238064
1966.0000,1336.115290
1967.0000,1336.583487
1968.0000,1329.721838
1969.0000,1325.018845
1970.0000,1318.580208
1971.0000,1328.306307
1972.0000,1339.282461
1973.0000,1325.724046
1974.0000,1328.489678
1975.0000,1327.580699
1976.0000,1327.508163
1977.0000,1328.455068
1978.0000,1310.995915
1979.0000,1321.335195
1980.0000,1323.710279
1981.0000,1320.124155
1982.0000,1327.167622
1983.0000,1316.855631
1984.0000,1323.834033
1985.0000,1328.112651
1986.0000,1315.215747
1987.0000,1316.122284
1988.0000,1313.409131
1989.0000,1318.974759
1990.0000,1300.748815
1991.0000,1304.020203
1992.0000,1310.249109
1993.0000,1316.460507
1994.0000,1313.988178
1995.0000,1304.736012
1996.0000,1318.501009
1997.0000,1308.742721
1998.0000,1303.532241
1999.0000,1309.681659
2000.0000,1313.536784
