raman_shift_cm-1,intensity
200.0000,272.991156
201.0000,274.878922
202.0000,281.981667
203.0000,288.457872
204.0000,271.356457
205.0000,271.600243
206.0000,281.001224
207.0000,272.500890
208.0000,271.121192
209.0000,286.957258
210.0000,276.513225
211.0000,283.087647
212.0000,282.108673
213.0000,279.759643
214.0000,279.349635
215.0000,287.972235
216.0000,287.375317
217.0000,275.882454
218.0000,280.503252
219.0000,280.277564
220.0000,283.510385
221.0000,302.758704
222.0000,283.162784
223.0000,291.687921
224.0000,281.534728
225.0000,293.954935
226.0000,278.418905
227.0000,285.623472
228.0000,286.046737
229.0000,295.520279
230.0000,281.324572
231.0000,298.023009
232.0000,296.576562
233.0000,279.723355
234.0000,285.014492
235.0000,288.020165
236.0000,289.447815
237.0000,305.711120
238.0000,310.191843
239.0000,302.515794
240.0000,315.004145
241.0000,295.346631
242.0000,304.408013
243.0000,305.023276
244.0000,305.050582
245.0000,305.730381
246.0000,302.940303
247.0000,298.361692
248.0000,306.375388
249.0000,308.752206
250.0000,311.923885
251.0000,306.613556
252.0000,310.284381
253.0000,315.877273
254.0000,310.006908
255.0000,313.677475
256.0000,308.688184
257.0000,311.878638
258.0000,317.722759
259.0000,312.089397
260.0000,317.141630
261.0000,311.690070
262.0000,310.854356
263.0000,314.000491
264.0000,316.617575
265.0000,313.342723
266.0000,320.077826
267.0000,316.161367
268.0000,324.752328
269.0000,326.632569
270.0000,315.517851
271.0000,316.469511
272.0000,322.215091
273.0000,326.909661
274.0000,326.373454
275.0000,328.186614
276.0000,325.565988
277.0000,324.089626
278.0000,315.453221
279.0000,330.752806
280.0000,341.378809
281.0000,331.508900
282.0000,329.522463
283.0000,331.634658
284.0000,330.176867
285.0000,330.034547
286.0000,329.947917
287.0000,334.856352
288.0000,332.385345
289.0000,321.333296
290.0000,343.223299
291.0000,339.565645
292.0000,327.904724
293.0000,348.853469
294.0000,319.710102
295.0000,342.393275
296.0000,328.908702
297.0000,347.041300
298.0000,354.004308
299.0000,335.176862
300.0000,338.543801
301.0000,354.379002
302.0000,349.683897
303.0000,339.658343
304.0000,352.371582
305.0000,350.958905
306.0000,345.066798
307.0000,346.759697
308.0000,350.300630
309.0000,353.897676
310.0000,341.571324
311.0000,347.054548
312.0000,347.352154
313.0000,366.233982
314.0000,351.600913
315.0000,346.102673
316.0000,350.427474
317.0000,347.063455
318.0000,348.630641
319.0000,357.019720
320.0000,363.346929
321.0000,353.612051
322.0000,360.010535
323.0000,361.129623
324.0000,362.856519
325.0000,360.166315
326.0000,361.691036
327.0000,369.768687
328.0000,373.027906
329.0000,365.875467
330.0000,357.008019
331.0000,373.072380
332.0000,364.797104
333.0000,374.131842
334.0000,360.869403
335.0000,359.804221
336.0000,366.566911
337.0000,366.171226
338.0000,366.100406
339.0000,384.276957
340.0000,375.304342
341.0000,373.331662
342.0000,380.172921
343.0000,386.317610
344.0000,382.857591
345.0000,382.971034
346.0000,376.909848
347.0000,393.122312
348.0000,379.168393
349.0000,374.000028
350.0000,382.908108
351.0000,382.972220
352.0000,376.519216
353.0000,385.672950
354.0000,386.184285
355.0000,382.054363
356.0000,388.363622
357.0000,388.823481
358.0000,385.183259
359.0000,390.415784
360.0000,394.691297
361.0000,379.727127
362.0000,395.180091
363.0000,389.653405
364.0000,387.400031
365.0000,392.839769
366.0000,388.398114
367.0000,393.811393
368.0000,400.801191
369.0000,387.547290
370.0000,383.200266
371.0000,405.529749
372.0000,401.253006
373.0000,401.994594
374.0000,413.066108
375.0000,396.762111
376.0000,399.115717
377.0000,400.672466
378.0000,403.586871
379.0000,403.877901
380.0000,404.227445
381.0000,401.731730
382.0000,417.571881
383.0000,409.339570
384.0000,408.238329
385.0000,416.708410
386.0000,401.681680
387.0000,417.786932
388.0000,405.051121
389.0000,414.364392
390.0000,408.813370
391.0000,419.172716
392.0000,408.801066
393.0000,419.395539
394.0000,414.514110
395.0000,423.302342
396.0000,415.671853
397.0000,414.493975
398.0000,427.404530
399.0000,412.893541
400.0000,424.193658
401.0000,425.283945
402.0000,423.925374
403.0000,429.326345
404.0000,425.280310
405.0000,427.622847
406.0000,431.499446
407.0000,430.406517
408.0000,430.920055
409.0000,435.224676
410.0000,423.152532
411.0000,425.792122
412.0000,432.416052
413.0000,440.720737
414.0000,430.760571
415.0000,435.047888
416.0000,441.734458
417.0000,445.474525
418.0000,442.478931
419.0000,443.047335
420.0000,443.890223
421.0000,431.300761
422.0000,438.006049
423.0000,444.501743
424.0000,436.001791
425.0000,432.605484
426.0000,435.764431
427.0000,452.099402
428.0000,438.729118
429.0000,452.435617
430.0000,458.894142
431.0000,440.212665
432.0000,449.203163
433.0000,446.076595
434.0000,447.520155
435.0000,448.278313
436.0000,442.825389
437.0000,456.107990
438.0000,449.874795
439.0000,458.046123
440.0000,456.270412
441.0000,455.646917
442.0000,456.504202
443.0000,457.952913
444.0000,458.420471
445.0000,465.319599
446.0000,464.442787
447.0000,465.765316
448.0000,466.797045
449.0000,468.414612
450.0000,473.299250
451.0000,475.634432
452.0000,470.904907
453.0000,474.784371
454.0000,464.563972
455.0000,468.998582
456.0000,476.110086
457.0000,467.142992
458.0000,474.806480
459.0000,477.747204
460.0000,470.234177
461.0000,466.298352
462.0000,474.707143
463.0000,466.071187
464.0000,478.960646
465.0000,476.804528
466.0000,471.978476
467.0000,473.312696
468.0000,496.466925
469.0000,477.472674
470.0000,483.350975
471.0000,488.258942
472.0000,487.956853
473.0000,488.259184
474.0000,486.546950
475.0000,491.507171
476.0000,487.632012
477.0000,492.236314
478.0000,497.424271
479.0000,492.316698
480.0000,490.959450
481.0000,486.135656
482.0000,491.192753
483.0000,495.283185
484.0000,498.348772
485.0000,490.179294
486.0000,497.864435
487.0000,492.912218
488.0000,493.311197
489.0000,501.900176
490.0000,506.125649
491.0000,499.849227
492.0000,501.746352
493.0000,507.163654
494.0000,507.052611
495.0000,523.023269
496.0000,514.845354
497.0000,499.514275
498.0000,524.942964
499.0000,506.246990
500.0000,502.756123
501.0000,503.361783
502.0000,515.086636
503.0000,505.750977
504.0000,511.739827
505.0000,523.003032
506.0000,510.338340
507.0000,509.883881
508.0000,520.787334
509.0000,514.915731
510.0000,523.125835
511.0000,524.893016
512.0000,522.603782
513.0000,530.799774
514.0000,519.314887
515.0000,511.857179
516.0000,520.182965
517.0000,530.822593
518.0000,535.499421
519.0000,520.285715
520.0000,537.588474
521.0000,526.705875
522.0000,528.218231
523.0000,543.156408
524.0000,540.615304
525.0000,536.645662
526.0000,544.258482
527.0000,520.574096
528.0000,540.741623
529.0000,541.950790
530.0000,544.334456
531.0000,537.744315
532.0000,547.906866
533.0000,536.534551
534.0000,538.083183
535.0000,555.773799
536.0000,544.955064
537.0000,539.957337
538.0000,541.740317
539.0000,557.623601
540.0000,560.064383
541.0000,556.952579
542.0000,550.203605
543.0000,553.486370
544.0000,555.184131
545.0000,551.939605
546.0000,558.154548
547.0000,553.747008
548.0000,562.670251
549.0000,561.325941
550.0000,555.679693
551.0000,553.653497
552.0000,566.343759
553.0000,575.115731
554.0000,561.301663
555.0000,575.320862
556.0000,581.748577
557.0000,560.847532
558.0000,562.133560
559.0000,573.141253
560.0000,571.629535
561.0000,562.661384
562.0000,578.542177
563.0000,574.741461
564.0000,579.477392
565.0000,578.317861
566.0000,559.433584
567.0000,578.760976
568.0000,584.355807
569.0000,571.059707
570.0000,575.699231
571.0000,584.773474
572.0000,577.828679
573.0000,580.292460
574.0000,585.210897
575.0000,592.742052
576.0000,582.541011
577.0000,595.403607
578.0000,585.918278
579.0000,585.145023
580.0000,595.704905
581.0000,590.447611
582.0000,586.475741
583.0000,594.573713
584.0000,578.801689
585.0000,589.263513
586.0000,598.878262
587.0000,595.389402
588.0000,602.678837
589.0000,612.422138
590.0000,593.490792
591.0000,598.391770
592.0000,594.538204
593.0000,599.664639
594.0000,612.680232
595.0000,605.242204
596.0000,603.634460
597.0000,608.426612
598.0000,619.975029
599.0000,613.882790
600.0000,616.305583
601.0000,614.225321
602.0000,627.305304
603.0000,622.455706
604.0000,621.695479
605.0000,643.851898
606.0000,624.495888
607.0000,631.618205
608.0000,642.360185
609.0000,649.881609
610.0000,645.694382
611.0000,663.373029
612.0000,670.847047
613.0000,679.016050
614.0000,682.817592
615.0000,706.259092
616.0000,716.380058
617.0000,754.061511
618.0000,773.205413
619.0000,801.409953
620.0000,803.792581
621.0000,793.997074
622.0000,769.827950
623.0000,747.449804
624.0000,731.028234
625.0000,719.494330
626.0000,696.976367
627.0000,684.886371
628.0000,676.948578
629.0000,683.380494
630.0000,671.770768
631.0000,664.048762
632.0000,669.850781
633.0000,657.222236
634.0000,648.285488
635.0000,663.795233
636.0000,663.645644
637.0000,649.029622
638.0000,657.006909
639.0000,649.278718
640.0000,655.559885
641.0000,650.075361
642.0000,661.018238
643.0000,658.174035
644.0000,668.200926
645.0000,668.077388
646.0000,661.238306
647.0000,660.265760
648.0000,669.799013
649.0000,663.409421
650.0000,663.227748
651.0000,659.587852
652.0000,665.698277
653.0000,657.785419
654.0000,671.358363
655.0000,667.863912
656.0000,672.675653
657.0000,665.270186
658.0000,670.503140
659.0000,673.838311
660.0000,671.654287
661.0000,671.766500
662.0000,685.024226
663.0000,673.980927
664.0000,667.984617
665.0000,672.219455
666.0000,673.685143
667.0000,680.327317
668.0000,677.059522
669.0000,685.047601
670.0000,689.799059
671.0000,687.351987
672.0000,689.298626
673.0000,680.226003
674.0000,686.375071
675.0000,683.728144
676.0000,694.880685
677.0000,690.129627
678.0000,689.401180
679.0000,701.510669
680.0000,689.501194
681.0000,686.135966
682.0000,689.885884
683.0000,693.638669
684.0000,687.691375
685.0000,698.251187
686.0000,697.380198
687.0000,693.739090
688.0000,698.583526
689.0000,709.912269
690.0000,701.235166
691.0000,719.377402
692.0000,700.341886
693.0000,711.968508
694.0000,703.487751
695.0000,701.417449
696.0000,721.478874
697.0000,708.631076
698.0000,720.487614
699.0000,719.089739
700.0000,711.072311
701.0000,702.381153
702.0000,718.931302
703.0000,715.481495
704.0000,726.169417
705.0000,720.329479
706.0000,719.680669
707.0000,710.129095
708.0000,718.055770
709.0000,727.315726
710.0000,723.639311
711.0000,720.850258
712.0000,727.137711
713.0000,740.600466
714.0000,721.024837
715.0000,716.259660
716.0000,732.102732
717.0000,735.924761
718.0000,734.422790
719.0000,728.802236
720.0000,735.556023
721.0000,746.344468
722.0000,737.630411
723.0000,739.737533
724.0000,737.895527
725.0000,744.459848
726.0000,735.358093
727.0000,747.553727
728.0000,738.153746
729.0000,743.511622
730.0000,756.269015
731.0000,756.955064
732.0000,753.795085
733.0000,747.035805
734.0000,758.801438
735.0000,747.649258
736.0000,756.432805
737.0000,761.208579
738.0000,749.235964
739.0000,755.194842
740.0000,756.553261
741.0000,751.643982
742.0000,761.354340
743.0000,752.863009
744.0000,764.497379
745.0000,768.068043
746.0000,771.457044
747.0000,765.351385
748.0000,759.887870
749.0000,766.615031
750.0000,768.149066
751.0000,767.051787
752.0000,774.572003
753.0000,778.062940
754.0000,770.645354
755.0000,767.243378
756.0000,778.711591
757.0000,780.805977
758.0000,771.398095
759.0000,777.518057
760.0000,766.728728
761.0000,771.381576
762.0000,778.769279
763.0000,779.866825
764.0000,800.357707
765.0000,777.081696
766.0000,782.270549
767.0000,791.199786
768.0000,793.333855
769.0000,786.215921
770.0000,792.371659
771.0000,792.884053
772.0000,809.323215
773.0000,799.193980
774.0000,796.973299
775.0000,795.459843
776.0000,797.423933
777.0000,799.330967
778.0000,798.002527
779.0000,807.124452
780.0000,802.155238
781.0000,814.342409
782.0000,823.754787
783.0000,825.480088
784.0000,815.761191
785.0000,836.368699
786.0000,840.287386
787.0000,851.071517
788.0000,849.134055
789.0000,855.154238
790.0000,862.474345
791.0000,885.831939
792.0000,883.932434
793.0000,892.597978
794.0000,912.642437
795.0000,902.845531
796.0000,897.727548
797.0000,905.250938
798.0000,889.967684
799.0000,890.652756
800.0000,877.393679
801.0000,867.445705
802.0000,856.327787
803.0000,843.635647
804.0000,855.738861
805.0000,855.169373
806.0000,845.658649
807.0000,851.291216
808.0000,843.786910
809.0000,843.900335
810.0000,839.806746
811.0000,849.098962
812.0000,836.195985
813.0000,827.939074
814.0000,848.423105
815.0000,846.335073
816.0000,831.751884
817.0000,839.421865
818.0000,840.620662
819.0000,846.170520
820.0000,841.524466
821.0000,854.486432
822.0000,841.721717
823.0000,848.624929
824.0000,841.074213
825.0000,852.254736
826.0000,847.435930
827.0000,854.546596
828.0000,841.335139
829.0000,844.599213
830.0000,850.608803
831.0000,856.087115
832.0000,855.367076
833.0000,859.540547
834.0000,861.014655
835.0000,856.337062
836.0000,862.169915
837.0000,858.164169
838.0000,854.388050
839.0000,871.716601
840.0000,857.898656
841.0000,868.552676
842.0000,864.459941
843.0000,861.455138
844.0000,868.768672
845.0000,857.762891
846.0000,874.170912
847.0000,858.406569
848.0000,869.452748
849.0000,864.155017
850.0000,861.536035
851.0000,883.923599
852.0000,886.023856
853.0000,870.287688
854.0000,873.963112
855.0000,880.061912
856.0000,877.367562
857.0000,876.908572
858.0000,886.081693
859.0000,882.460461
860.0000,873.316763
861.0000,879.081746
862.0000,886.719972
863.0000,876.375122
864.0000,897.645937
865.0000,878.227663
866.0000,888.474031
867.0000,874.168966
868.0000,887.343951
869.0000,902.260590
870.0000,896.584388
871.0000,898.743969
872.0000,889.197255
873.0000,895.397029
874.0000,906.325214
875.0000,896.630526
876.0000,900.185562
877.0000,898.913686
878.0000,904.979522
879.0000,910.635435
880.0000,913.920553
881.0000,903.735443
882.0000,903.744840
883.0000,909.358739
884.0000,897.423172
885.0000,896.487453
886.0000,904.508045
887.0000,904.002408
888.0000,913.243418
889.0000,908.062838
890.0000,918.367891
891.0000,920.857327
892.0000,902.981301
893.0000,902.640606
894.0000,913.574544
895.0000,908.207741
896.0000,921.046844
897.0000,914.131829
898.0000,917.085674
899.0000,915.346943
900.0000,920.786332
901.0000,919.358649
902.0000,932.910922
903.0000,928.166959
904.0000,920.027816
905.0000,932.163716
906.0000,923.570558
907.0000,928.379342
908.0000,935.090693
909.0000,929.946916
910.0000,941.977210
911.0000,936.979285
912.0000,925.602744
913.0000,923.137242
914.0000,935.596346
915.0000,939.942415
916.0000,940.768598
917.0000,935.480325
918.0000,940.135614
919.0000,927.049029
920.0000,935.573607
921.0000,953.915939
922.0000,937.640056
923.0000,937.377823
924.0000,950.677757
925.0000,946.539379
926.0000,944.054429
927.0000,962.076992
928.0000,946.967964
929.0000,947.681667
930.0000,960.993955
931.0000,956.738832
932.0000,953.446211
933.0000,960.412659
934.0000,956.119539
935.0000,956.480768
936.0000,963.834330
937.0000,965.575985
938.0000,961.160936
939.0000,965.974549
940.0000,976.697734
941.0000,967.051328
942.0000,966.582361
943.0000,965.084459
944.0000,971.273964
945.0000,964.461660
946.0000,964.374831
947.0000,965.236112
948.0000,976.081599
949.0000,964.130685
950.0000,974.535732
951.0000,974.574042
952.0000,972.039650
953.0000,982.585035
954.0000,990.612177
955.0000,971.142128
956.0000,977.882249
957.0000,984.318076
958.0000,981.198962
959.0000,995.725585
960.0000,987.057568
961.0000,990.941005
962.0000,992.401269
963.0000,997.753430
964.0000,989.482514
965.0000,997.201213
966.0000,994.264181
967.0000,1001.945085
968.0000,1005.395297
969.0000,1004.912480
970.0000,1002.675855
971.0000,1007.135850
972.0000,1014.927923
973.0000,998.077265
974.0000,1009.376588
975.0000,1009.772613
976.0000,1001.368965
977.0000,1010.978898
978.0000,1012.006380
979.0000,1019.300938
980.0000,1024.229868
981.0000,1016.354904
982.0000,1025.027304
983.0000,1026.079971
984.0000,1036.327221
985.0000,1036.268287
986.0000,1045.114090
987.0000,1048.552628
988.0000,1065.026264
989.0000,1077.499529
990.0000,1078.443662
991.0000,1098.091319
992.0000,1107.292305
993.0000,1136.407824
994.0000,1165.976599
995.0000,1208.949009
996.0000,1286.372040
997.0000,1379.204998
998.0000,1518.835104
999.0000,1712.725620
1000.0000,1916.072431
1001.0000,2019.692789
1002.0000,1915.603879
1003.0000,1727.663969
1004.0000,1529.010877
1005.0000,1387.136905
1006.0000,1302.197787
1007.0000,1235.673021
1008.0000,1183.492848
1009.0000,1165.970704
1010.0000,1136.236231
1011.0000,1125.142955
1012.0000,1118.193612
1013.0000,1108.679913
1014.0000,1085.446957
1015.0000,1089.753430
1016.0000,1103.003213
1017.0000,1087.702883
1018.0000,1092.337561
1019.0000,1101.950742
1020.0000,1097.903009
1021.0000,1105.250552
1022.0000,1113.207096
1023.0000,1129.779062
1024.0000,1147.050256
1025.0000,1159.749576
1026.0000,1193.135530
1027.0000,1231.031075
1028.0000,1284.746804
1029.0000,1371.121119
1030.0000,1434.868022
1031.0000,1475.612713
1032.0000,1441.006430
1033.0000,1374.067425
1034.0000,1295.483960
1035.0000,1245.326595
1036.0000,1191.786362
1037.0000,1162.750684
1038.0000,1135.895752
1039.0000,1126.563770
1040.0000,1125.084197
1041.0000,1103.760759
1042.0000,1103.631433
1043.0000,1096.659995
1044.0000,1089.168317
1045.0000,1084.804682
1046.0000,1088.910081
1047.0000,1077.454366
1048.0000,1070.802205
1049.0000,1090.525556
1050.0000,1082.815846
1051.0000,1090.656083
1052.0000,1079.251492
1053.0000,1078.786661
1054.0000,1083.537301
1055.0000,1083.259717
1056.0000,1085.214687
1057.0000,1077.886447
1058.0000,1078.209294
1059.0000,1075.010532
1060.0000,1081.313251
1061.0000,1086.101188
1062.0000,1079.223209
1063.0000,1074.433199
1064.0000,1096.943536
1065.0000,1079.238906
1066.0000,1093.025388
1067.0000,1088.064566
1068.0000,1076.885744
1069.0000,1082.950508
1070.0000,1094.211552
1071.0000,1098.327776
1072.0000,1085.229901
1073.0000,1080.814877
1074.0000,1089.918750
1075.0000,1093.043776
1076.0000,1090.728897
1077.0000,1084.808770
1078.0000,1087.209728
1079.0000,1100.913157
1080.0000,1090.563087
1081.0000,1093.293013
1082.0000,1092.565798
1083.0000,1082.628606
1084.0000,1103.844407
1085.0000,1095.173874
1086.0000,1102.598384
1087.0000,1094.482025
1088.0000,1100.158104
1089.0000,1099.747172
1090.0000,1110.194939
1091.0000,1098.975083
1092.0000,1111.244740
1093.0000,1099.834215
1094.0000,1107.642996
1095.0000,1101.295766
1096.0000,1108.512588
1097.0000,1106.804428
1098.0000,1106.423994
1099.0000,1116.961087
1100.0000,1116.276786
1101.0000,1111.979579
1102.0000,1104.646189
1103.0000,1110.661146
1104.0000,1102.947871
1105.0000,1114.415373
1106.0000,1104.269791
1107.0000,1117.986398
1108.0000,1121.804850
1109.0000,1116.529289
1110.0000,1110.724630
1111.0000,1120.952005
1112.0000,1124.537102
1113.0000,1127.427739
1114.0000,1120.855024
1115.0000,1126.420375
1116.0000,1113.855203
1117.0000,1126.798273
1118.0000,1116.647163
1119.0000,1129.916446
1120.0000,1131.933207
1121.0000,1118.469547
1122.0000,1130.891388
1123.0000,1133.761238
1124.0000,1141.920418
1125.0000,1145.539129
1126.0000,1129.091600
1127.0000,1142.573923
1128.0000,1125.964399
1129.0000,1125.703858
1130.0000,1131.086712
1131.0000,1138.154729
1132.0000,1144.733528
1133.0000,1139.226321
1134.0000,1143.199856
1135.0000,1141.630634
1136.0000,1151.039143
1137.0000,1139.799660
1138.0000,1154.152214
1139.0000,1153.249061
1140.0000,1156.869253
1141.0000,1153.420180
1142.0000,1167.517412
1143.0000,1161.718507
1144.0000,1155.044151
1145.0000,1164.501478
1146.0000,1180.416433
1147.0000,1184.233171
1148.0000,1193.372094
1149.0000,1206.283257
1150.0000,1221.372249
1151.0000,1233.520498
1152.0000,1252.132578
1153.0000,1267.009156
1154.0000,1274.839353
1155.0000,1283.405657
1156.0000,1282.972886
1157.0000,1269.376782
1158.0000,1263.178752
1159.0000,1228.593097
1160.0000,1223.425027
1161.0000,1219.128845
1162.0000,1202.721442
1163.0000,1199.926785
1164.0000,1194.585934
1165.0000,1185.138820
1166.0000,1188.900029
1167.0000,1188.750413
1168.0000,1171.128688
1169.0000,1185.483631
1170.0000,1204.279744
1171.0000,1192.721272
1172.0000,1183.761919
1173.0000,1183.330057
1174.0000,1209.565006
1175.0000,1196.629055
1176.0000,1206.374485
1177.0000,1206.991025
1178.0000,1224.723755
1179.0000,1247.495919
1180.0000,1254.813325
1181.0000,1266.963013
1182.0000,1283.698935
1183.0000,1300.248624
1184.0000,1288.768763
1185.0000,1267.498112
1186.0000,1250.417672
1187.0000,1233.208465
1188.0000,1235.603502
1189.0000,1217.606400
1190.0000,1201.944897
1191.0000,1201.128427
1192.0000,1196.163200
1193.0000,1193.381292
1194.0000,1199.103899
1195.0000,1179.695928
1196.0000,1188.729234
1197.0000,1185.658213
1198.0000,1189.017340
1199.0000,1187.400285
1200.0000,1191.799433
1201.0000,1189.531056
1202.0000,1188.187338
1203.0000,1187.943244
1204.0000,1195.513441
1205.0000,1188.782611
1206.0000,1195.240449
1207.0000,1182.414236
1208.0000,1180.586704
1209.0000,1184.693349
1210.0000,1191.651199
1211.0000,1195.661360
1212.0000,1179.472106
1213.0000,1177.583051
1214.0000,1194.181490
1215.0000,1190.418486
1216.0000,1175.876326
1217.0000,1187.025568
1218.0000,1195.752049
1219.0000,1189.601436
1220.0000,1187.477059
1221.0000,1184.113697
1222.0000,1187.346466
1223.0000,1182.002959
1224.0000,1196.963111
1225.0000,1189.083413
1226.0000,1199.040713
1227.0000,1189.570225
1228.0000,1195.230491
1229.0000,1189.741216
1230.0000,1204.471331
1231.0000,1198.685639
1232.0000,1208.885444
1233.0000,1200.365915
1234.0000,1199.058529
1235.0000,1195.899474
1236.0000,1197.133875
1237.0000,1195.335053
1238.0000,1207.432880
1239.0000,1209.224176
1240.0000,1202.898951
1241.0000,1195.884203
1242.0000,1208.636522
1243.0000,1216.834559
1244.0000,1213.474529
1245.0000,1203.525796
1246.0000,1202.156756
1247.0000,1199.133050
1248.0000,1204.360314
1249.0000,1210.195199
1250.0000,1212.777410
1251.0000,1208.963726
1252.0000,1209.371826
1253.0000,1216.947010
1254.0000,1209.442396
1255.0000,1203.751577
1256.0000,1199.302355
1257.0000,1212.507617
1258.0000,1210.657220
1259.0000,1206.339158
1260.0000,1208.436381
1261.0000,1208.407513
1262.0000,1205.623527
1263.0000,1217.942869
1264.0000,1222.831714
1265.0000,1207.856088
1266.0000,1220.908554
1267.0000,1224.013594
1268.0000,1203.888794
1269.0000,1209.769262
1270.0000,1225.941286
1271.0000,1204.404298
1272.0000,1215.471802
1273.0000,1200.952152
1274.0000,1211.041622
1275.0000,1224.893266
1276.0000,1216.951918
1277.0000,1211.046951
1278.0000,1225.103514
1279.0000,1223.423933
1280.0000,1214.891476
1281.0000,1221.053572
1282.0000,1221.701443
1283.0000,1215.388608
1284.0000,1217.873603
1285.0000,1219.458751
1286.0000,1235.695182
1287.0000,1222.036892
1288.0000,1223.061447
1289.0000,1222.000321
1290.0000,1222.119046
1291.0000,1221.939900
1292.0000,1241.451356
1293.0000,1225.761832
1294.0000,1220.745086
1295.0000,1224.024834
1296.0000,1229.833173
1297.0000,1220.023261
1298.0000,1237.692319
1299.0000,1232.670867
1300.0000,1239.453925
1301.0000,1228.408440
1302.0000,1224.819554
1303.0000,1237.268893
1304.0000,1224.168266
1305.0000,1239.763698
1306.0000,1225.214729
1307.0000,1230.618712
1308.0000,1225.437099
1309.0000,1229.800153
1310.0000,1230.260344
1311.0000,1235.395846
1312.0000,1228.172247
1313.0000,1230.263425
1314.0000,1230.533359
1315.0000,1238.446121
1316.0000,1242.817616
1317.0000,1243.787704
1318.0000,1229.553668
1319.0000,1237.596310
1320.0000,1234.454338
1321.0000,1237.513023
1322.0000,1245.382762
1323.0000,1238.448493
1324.0000,1237.292534
1325.0000,1243.619837
1326.0000,1243.471914
1327.0000,1246.197619
1328.0000,1236.369631
1329.0000,1242.515308
1330.0000,1252.637315
1331.0000,1244.902771
1332.0000,1253.909270
1333.0000,1233.171711
1334.0000,1235.493945
1335.0000,1251.094220
1336.0000,1235.176904
1337.0000,1243.607232
1338.0000,1235.923013
1339.0000,1252.112954
1340.0000,1240.048087
1341.0000,1247.631050
1342.0000,1238.454915
1343.0000,1242.595513
1344.0000,1250.234000
1345.0000,1262.117265
1346.0000,1254.688772
1347.0000,1247.358483
1348.0000,1251.729435
1349.0000,1254.685079
1350.0000,1250.387272
1351.0000,1237.831511
1352.0000,1261.988632
1353.0000,1264.016589
1354.0000,1244.553674
1355.0000,1256.569908
1356.0000,1256.870807
1357.0000,1257.190205
1358.0000,1257.123700
1359.0000,1247.612005
1360.0000,1257.244576
1361.0000,1256.475563
1362.0000,1244.825430
1363.0000,1247.197884
1364.0000,1262.822415
1365.0000,1247.783294
1366.0000,1247.212571
1367.0000,1251.071705
1368.0000,1254.202124
1369.0000,1251.393433
1370.0000,1252.338656
1371.0000,1248.116057
1372.0000,1258.979421
1373.0000,1270.165470
1374.0000,1261.877493
1375.0000,1260.734283
1376.0000,1261.427774
1377.0000,1256.755049
1378.0000,1263.520030
1379.0000,1248.402831
1380.0000,1262.169555
1381.0000,1258.584866
1382.0000,1267.740447
1383.0000,1254.524877
1384.0000,1260.509656
1385.0000,1269.201492
1386.0000,1257.951660
1387.0000,1257.231455
1388.0000,1259.044461
1389.0000,1265.504021
1390.0000,1273.192340
1391.0000,1257.931775
1392.0000,1248.720575
1393.0000,1263.825437
1394.0000,1258.417166
1395.0000,1270.026618
1396.0000,1260.259029
1397.0000,1257.158588
1398.0000,1260.578616
1399.0000,1262.443514
1400.0000,1263.232753
1401.0000,1262.920033
1402.0000,1262.855985
1403.0000,1267.669323
1404.0000,1258.486844
1405.0000,1261.500466
1406.0000,1271.058448
1407.0000,1270.188127
1408.0000,1273.974625
1409.0000,1266.753511
1410.0000,1269.530554
1411.0000,1274.501069
1412.0000,1269.358649
1413.0000,1276.750672
1414.0000,1275.399167
1415.0000,1258.586597
1416.0000,1282.901501
1417.0000,1267.893844
1418.0000,1277.335252
1419.0000,1281.082907
1420.0000,1276.847968
1421.0000,1267.843531
1422.0000,1276.208097
1423.0000,1281.294435
1424.0000,1280.257052
1425.0000,1279.734792
1426.0000,1289.616125
1427.0000,1282.577538
1428.0000,1291.968911
1429.0000,1293.756389
1430.0000,1296.843505
1431.0000,1293.456925
1432.0000,1292.038887
1433.0000,1294.872543
1434.0000,1293.625636
1435.0000,1298.698688
1436.0000,1300.125211
1437.0000,1303.810842
1438.0000,1319.523756
1439.0000,1336.469129
1440.0000,1338.240352
1441.0000,1349.659273
1442.0000,1366.057635
1443.0000,1380.490971
1444.0000,1392.562529
1445.0000,1406.094578
1446.0000,1437.410555
1447.0000,1441.976952
1448.0000,1472.234755
1449.0000,1481.271384
1450.0000,1490.203957
1451.0000,1473.440639
1452.0000,1462.021957
1453.0000,1452.807196
1454.0000,1435.967671
1455.0000,1414.623675
1456.0000,1402.892416
1457.0000,1383.781705
1458.0000,1362.022287
1459.0000,1349.071283
1460.0000,1339.151440
1461.0000,1336.132255
1462.0000,1319.258084
1463.0000,1316.500116
1464.0000,1299.420568
1465.0000,1313.771227
1466.0000,1311.354585
1467.0000,1297.356518
1468.0000,1287.509082
1469.0000,1297.314435
1470.0000,1306.538777
1471.0000,1290.872649
1472.0000,1287.199368
1473.0000,1296.310012
1474.0000,1278.711370
1475.0000,1292.566703
1476.0000,1294.066185
1477.0000,1292.229964
1478.0000,1275.576141
1479.0000,1278.834158
1480.0000,1286.598155
1481.0000,1284.197704
1482.0000,1289.419986
1483.0000,1278.848944
1484.0000,1282.100309
1485.0000,1285.729869
1486.0000,1276.070817
1487.0000,1284.088903
1488.0000,1273.271830
1489.0000,1282.830217
1490.0000,1286.199074
1491.0000,1280.410002
1492.0000,1278.965829
1493.0000,1263.000067
1494.0000,1276.009511
1495.0000,1274.055697
1496.0000,1281.071654
1497.0000,1269.297086
1498.0000,1271.293421
1499.0000,1273.166268
1500.0000,1270.266967
1501.0000,1277.738396
1502.0000,1270.590130
1503.0000,1264.756644
1504.0000,1274.137188
1505.0000,1280.967039
1506.0000,1280.027785
1507.0000,1272.002246
1508.0000,1275.749564
1509.0000,1275.597326
1510.0000,1283.304434
1511.0000,1270.416280
1512.0000,1278.075380
1513.0000,1273.042039
1514.0000,1270.264310
1515.0000,1282.346015
1516.0000,1277.868180
1517.0000,1265.349660
1518.0000,1281.163996
1519.0000,1277.401448
1520.0000,1276.420080
1521.0000,1273.200284
1522.0000,1274.180508
1523.0000,1280.307087
1524.0000,1279.585638
1525.0000,1279.043013
1526.0000,1281.909259
1527.0000,1287.711637
1528.0000,1264.253972
1529.0000,1272.178417
1530.0000,1292.241668
1531.0000,1268.865596
1532.0000,1275.966897
1533.0000,1266.239436
1534.0000,1268.900691
1535.0000,1269.719385
1536.0000,1259.835723
1537.0000,1261.986190
1538.0000,1278.912524
1539.0000,1277.372067
1540.0000,1271.853506
1541.0000,1275.604598
1542.0000,1266.137253
1543.0000,1270.690897
1544.0000,1268.441309
1545.0000,1280.664657
1546.0000,1275.307162
1547.0000,1285.693439
1548.0000,1276.065831
1549.0000,1276.642592
1550.0000,1267.391181
1551.0000,1270.896931
1552.0000,1278.136682
1553.0000,1265.698762
1554.0000,1287.687445
1555.0000,1278.239435
1556.0000,1273.329245
1557.0000,1272.785739
1558.0000,1282.818621
1559.0000,1287.957324
1560.0000,1282.718878
1561.0000,1285.099428
1562.0000,1284.798618
1563.0000,1281.862365
1564.0000,1285.160407
1565.0000,1284.381848
1566.0000,1285.869125
1567.0000,1297.067897
1568.0000,1285.315702
1569.0000,1301.395202
1570.0000,1288.599664
1571.0000,1301.963215
1572.0000,1317.949943
1573.0000,1309.791743
1574.0000,1319.877689
1575.0000,1325.998461
1576.0000,1355.343598
1577.0000,1365.138143
1578.0000,1367.435241
1579.0000,1402.806485
1580.0000,1420.635745
1581.0000,1456.440928
1582.0000,1480.621842
1583.0000,1487.146327
1584.0000,1480.800520
1585.0000,1475.870161
1586.0000,1431.306673
1587.0000,1427.127157
1588.0000,1398.593430
1589.0000,1388.051044
1590.0000,1400.964157
1591.0000,1382.924477
1592.0000,1388.866569
1593.0000,1401.634184
1594.0000,1422.244312
1595.0000,1431.789272
1596.0000,1477.167966
1597.0000,1520.512893
1598.0000,1567.229419
1599.0000,1674.219770
1600.0000,1763.566549
1601.0000,1851.044872
1602.0000,1890.102289
1603.0000,1854.943314
1604.0000,1756.236192
1605.0000,1663.061072
1606.0000,1570.100794
1607.0000,1513.713381
1608.0000,1459.935615
1609.0000,1418.503709
1610.0000,1381.989712
1611.0000,1356.825600
1612.0000,1342.269417
1613.0000,1342.469827
1614.0000,1321.406575
1615.0000,1301.949592
1616.0000,1301.867142
1617.0000,1299.245388
1618.0000,1299.125156
1619.0000,1291.184847
1620.0000,1283.768167
1621.0000,1292.770300
1622.0000,1281.601872
1623.0000,1277.278312
1624.0000,1272.268282
1625.0000,1272.793639
1626.0000,1265.207803
1627.0000,1259.358904
1628.0000,1275.672547
1629.0000,1272.411755
1630.0000,1266.589466
1631.0000,1264.335537
1632.0000,1266.112966
1633.0000,1273.622469
1634.0000,1247.104804
1635.0000,1254.957000
1636.0000,1257.121993
1637.0000,1267.000867
1638.0000,1256.608720
1639.0000,1251.489973
1640.0000,1249.035538
1641.0000,1255.833069
1642.0000,1246.975546
1643.0000,1246.757434
1644.0000,1246.712434
1645.0000,1261.552878
1646.0000,1260.065525
1647.0000,1251.755346
1648.0000,1257.704041
1649.0000,1252.976264
1650.0000,1247.385743
1651.0000,1249.807576
1652.0000,1250.934898
1653.0000,1257.839057
1654.0000,1238.001848
1655.0000,1244.455137
1656.0000,1245.679047
1657.0000,1251.132818
1658.0000,1251.390243
1659.0000,1245.135095
1660.0000,1241.491431
1661.0000,1233.354507
1662.0000,1224.520088
1663.0000,1237.275667
1664.0000,1238.943913
1665.0000,1243.999306
1666.0000,1244.841983
1667.0000,1248.254496
1668.0000,1256.543759
1669.0000,1243.017503
1670.0000,1240.417637
1671.0000,1244.290570
1672.0000,1238.074521
1673.0000,1234.893290
1674.0000,1236.734344
1675.0000,1241.842770
1676.0000,1232.967959
1677.0000,1229.661410
1678.0000,1228.091702
1679.0000,1233.580325
1680.0000,1239.291077
1681.0000,1226.813275
1682.0000,1234.077406
1683.0000,1240.728261
1684.0000,1229.019706
1685.0000,1232.650215
1686.0000,1237.966736
1687.0000,1230.968612
1688.0000,1229.346404
1689.0000,1230.427672
1690.0000,1226.789817
1691.0000,1230.760049
1692.0000,1227.122659
1693.0000,1234.526714
1694.0000,1229.831259
1695.0000,1235.268777
1696.0000,1228.953400
1697.0000,1222.115115
1698.0000,1229.473868
1699.0000,1219.933149
1700.0000,1232.110137
1701.0000,1223.264012
1702.0000,1226.507215
1703.0000,1226.693524
1704.0000,1232.030300
1705.0000,1216.575561
1706.0000,1226.139834
1707.0000,1230.488006
1708.0000,1226.917284
1709.0000,1221.181464
1710.0000,1221.595604
1711.0000,1229.054494
1712.0000,1232.375891
1713.0000,1222.775107
1714.0000,1221.733979
1715.0000,1219.769206
1716.0000,1218.259533
1717.0000,1224.025377
1718.0000,1220.920185
1719.0000,1210.325749
1720.0000,1219.547585
1721.0000,1214.370773
1722.0000,1217.201841
1723.0000,1216.465273
1724.0000,1225.374926
1725.0000,1214.800689
1726.0000,1220.316030
1727.0000,1209.269924
1728.0000,1215.996159
1729.0000,1211.800732
1730.0000,1209.311921
1731.0000,1214.776605
1732.0000,1213.427592
1733.0000,1206.725774
1734.0000,1201.702857
1735.0000,1223.557017
1736.0000,1196.288629
1737.0000,1216.758343
1738.0000,1215.527570
1739.0000,1204.720046
1740.0000,1201.563891
1741.0000,1208.628792
1742.0000,1203.185137
1743.0000,1205.945823
1744.0000,1210.613368
1745.0000,1202.692833
1746.0000,1200.333468
1747.0000,1200.663547
1748.0000,1193.595849
1749.0000,1208.363466
1750.0000,1203.226852
1751.0000,1203.654625
1752.0000,1208.869243
1753.0000,1203.286942
1754.0000,1199.637712
1755.0000,1203.362697
1756.0000,1203.752028
1757.0000,1208.099282
1758.0000,1205.373032
1759.0000,1192.795276
1760.0000,1209.319251
1761.0000,1206.715148
1762.0000,1206.066028
1763.0000,1188.201206
1764.0000,1193.442650
1765.0000,1198.116983
1766.0000,1198.639095
1767.0000,1197.456355
1768.0000,1195.061374
1769.0000,1182.862181
1770.0000,1196.224312
1771.0000,1189.480467
1772.0000,1190.378545
1773.0000,1179.249631
1774.0000,1192.042206
1775.0000,1180.774759
1776.0000,1184.525575
1777.0000,1197.828619
1778.0000,1194.661211
1779.0000,1195.502316
1780.0000,1188.239824
1781.0000,1179.281469
1782.0000,1192.283169
1783.0000,1198.756397
1784.0000,1186.077836
1785.0000,1192.900240
1786.0000,1188.407267
1787.0000,1180.464791
1788.0000,1196.230405
1789.0000,1179.729250
1790.0000,1179.960635
1791.0000,1189.376501
1792.0000,1166.978186
1793.0000,1187.079004
1794.0000,1179.348946
1795.0000,1187.334057
1796.0000,1173.815926
1797.0000,1177.751924
1798.0000,1181.200370
1799.0000,1171.314847
1800.0000,1185.488997
1801.0000,1177.475320
1802.0000,1173.602691
1803.0000,1166.351090
1804.0000,1176.894079
1805.0000,1177.806230
1806.0000,1185.240419
1807.0000,1185.046181
1808.0000,1185.568122
1809.0000,1182.579865
1810.0000,1175.221721
1811.0000,1174.114978
1812.0000,1180.901835
1813.0000,1179.272084
1814.0000,1158.004347
1815.0000,1172.017398
1816.0000,1173.879530
1817.0000,1170.069567
1818.0000,1173.872368
1819.0000,1173.288242
1820.0000,1167.108094
1821.0000,1173.827307
1822.0000,1165.310270
1823.0000,1155.812587
1824.0000,1168.748506
1825.0000,1162.647925
1826.0000,1169.468623
1827.0000,1164.697595
1828.0000,1168.437702
1829.0000,1159.148822
1830.0000,1168.028971
1831.0000,1173.351389
1832.0000,1163.740824
1833.0000,1162.824078
1834.0000,1152.486703
1835.0000,1172.202972
1836.0000,1156.779998
1837.0000,1163.665918
1838.0000,1161.694874
1839.0000,1163.033423
1840.0000,1162.626543
1841.0000,1156.659744
1842.0000,1149.950072
1843.0000,1157.296050
1844.0000,1155.854268
1845.0000,1153.102770
1846.0000,1151.121559
1847.0000,1141.974814
1848.0000,1159.918321
1849.0000,1138.158639
1850.0000,1152.265065
1851.0000,1155.584025
1852.0000,1154.058153
1853.0000,1142.569813
1854.0000,1151.958318
1855.0000,1144.236123
1856.0000,1152.939181
1857.0000,1145.863078
1858.0000,1144.908912
1859.0000,1140.283233
1860.0000,1140.736901
1861.0000,1139.339631
1862.0000,1153.447157
1863.0000,1145.348388
1864.0000,1138.884213
1865.0000,1147.242435
1866.0000,1137.759876
1867.0000,1143.759117
1868.0000,1145.767082
1869.0000,1139.282924
1870.0000,1142.374045
1871.0000,1141.842197
1872.0000,1133.031946
1873.0000,1142.045248
1874.0000,1129.971439
1875.0000,1132.159419
1876.0000,1137.733188
1877.0000,1137.432876
1878.0000,1137.093630
1879.0000,1134.648002
1880.0000,1124.854975
1881.0000,1138.967628
1882.0000,1125.155533
1883.0000,1123.248435
1884.0000,1141.811486
1885.0000,1127.317616
1886.0000,1123.946796
1887.0000,1119.532522
1888.0000,1132.621164
1889.0000,1118.611510
1890.0000,1121.400497
1891.0000,1128.162756
1892.0000,1115.457665
1893.0000,1139.702820
1894.0000,1121.901547
1895.0000,1125.304441
1896.0000,1128.274407
1897.0000,1122.867978
1898.0000,1123.787405
1899.0000,1117.674008
1900.0000,1130.686329
1901.0000,1119.499299
1902.0000,1131.272281
1903.0000,1126.035278
1904.0000,1125.278087
1905.0000,1113.840107
1906.0000,1116.016598
1907.0000,1107.221849
1908.0000,1124.321337
1909.0000,1105.787799
1910.0000,1112.577984
1911.0000,1119.298155
1912.0000,1101.015396
1913.0000,1116.895710
1914.0000,1102.830630
1915.0000,1111.497585
1916.0000,1111.300612
1917.0000,1113.158736
1918.0000,1110.280443
1919.0000,1106.615576
1920.0000,1109.915494
1921.0000,1117.779290
1922.0000,1100.105642
1923.0000,1106.918063
1924.0000,1104.766526
1925.0000,1108.726085
1926.0000,1097.992307
1927.0000,1093.408027
1928.0000,1112.182612
1929.0000,1102.513276
1930.0000,1103.203463
1931.0000,1123.973475
1932.0000,1101.772782
1933.0000,1111.806833
1934.0000,1102.786752
1935.0000,1088.902099
1936.0000,1093.823745
1937.0000,1100.867418
1938.0000,1098.679309
1939.0000,1104.047369
1940.0000,1097.667540
1941.0000,1091.945913
1942.0000,1089.059456
1943.0000,1092.223802
1944.0000,1098.370900
1945.0000,1100.780865
1946.0000,1107.798314
1947.0000,1092.234081
1948.0000,1089.336702
1949.0000,1078.712751
1950.0000,1080.481059
1951.0000,1082.310238
1952.0000,1087.759251
1953.0000,1097.139973
1954.0000,1090.175395
1955.0000,1083.462239
1956.0000,1093.150977
1957.0000,1082.204761
1958.0000,1081.882160
1959.0000,1080.052871
1960.0000,1080.012227
1961.0000,1085.987231
1962.0000,1075.921374
1963.0000,1083.073803
1964.0000,1074.160128
1965.0000,1073.758961
1966.0000,1075.340418
1967.0000,1073.640826
1968.0000,1081.149589
1969.0000,1082.447642
1970.0000,1073.306315
1971.0000,1074.709755
1972.0000,1067.024520
1973.0000,1070.832292
1974.0000,1070.983298
1975.0000,1080.588118
1976.0000,1073.916268
1977.0000,1069.532977
1978.0000,1072.050685
1979.0000,1077.525599
1980.0000,1071.003673
1981.0000,1074.924837
1982.0000,1068.181132
1983.0000,1072.571619
1984.0000,1068.095165
1985.0000,1069.051137
1986.0000,1060.645916
1987.0000,1076.844853
1988.0000,1071.613703
1989.0000,1060.335634
1990.0000,1060.330385
1991.0000,1057.098105
1992.0000,1056.037107
1993.0000,1059.835120
1994.0000,1060.676067
1995.0000,1048.442052
1996.0000,1062.440291
1997.0000,1063.916355
1998.0000,1056.941586
1999.0000,1055.548583
2000.0000,1058.715955
