raman_shift_cm-1,intensity
200.0000,17.677723
201.0000,-3.215362
202.0000,11.915648
203.0000,-1.391548
204.0000,-6.056769
205.0000,-5.695786
206.0000,1.058928
207.0000,2.361932
208.0000,5.285389
209.0000,-3.030439
210.0000,-0.274320
211.0000,6.382455
212.0000,5.398873
213.0000,2.786077
214.0000,-12.084437
215.0000,2.853339
216.0000,5.271421
217.0000,-1.672670
218.0000,-4.575388
219.0000,6.900946
220.0000,-0.783898
221.0000,3.226097
222.0000,-2.218613
223.0000,2.987928
224.0000,-1.592277
225.0000,-2.684328
226.0000,-8.060934
227.0000,0.588146
228.0000,10.874702
229.0000,3.693649
230.0000,-7.971946
231.0000,-17.209080
232.0000,8.106371
233.0000,2.201019
234.0000,2.392956
235.0000,3.387633
236.0000,-5.157524
237.0000,-1.251490
238.0000,-6.174621
239.0000,2.499855
240.0000,10.077624
241.0000,4.132312
242.0000,4.631640
243.0000,8.364789
244.0000,2.351977
245.0000,10.887767
246.0000,4.111101
247.0000,2.730368
248.0000,2.506505
249.0000,7.352718
250.0000,7.088094
251.0000,-0.151427
252.0000,6.645204
253.0000,14.179552
254.0000,3.879259
255.0000,2.488675
256.0000,2.711160
257.0000,-2.549136
258.0000,1.992947
259.0000,-2.858517
260.0000,-1.657490
261.0000,-11.439127
262.0000,6.167653
263.0000,1.662544
264.0000,-19.915567
265.0000,9.154069
266.0000,0.900883
267.0000,-4.920955
268.0000,-0.343171
269.0000,6.986507
270.0000,6.175485
271.0000,-4.753259
272.0000,-8.551611
273.0000,-5.903885
274.0000,-0.342751
275.0000,6.571088
276.0000,-9.356627
277.0000,5.866112
278.0000,2.018797
279.0000,-7.314930
280.0000,-2.928565
281.0000,-7.330381
282.0000,-0.639294
283.0000,-2.180814
284.0000,-0.778481
285.0000,-3.633623
286.0000,-11.612528
287.0000,-1.844234
288.0000,-4.653117
289.0000,-18.874551
290.0000,-8.468578
291.0000,6.458762
292.0000,0.571608
293.0000,-11.112697
294.0000,-3.517223
295.0000,10.979109
296.0000,-5.798089
297.0000,7.613289
298.0000,3.895586
299.0000,-4.153494
300.0000,-1.363913
301.0000,13.683914
302.0000,4.772376
303.0000,-2.729021
304.0000,4.451466
305.0000,-0.248528
306.0000,0.416328
307.0000,-2.980314
308.0000,-1.442633
309.0000,-2.721908
310.0000,-2.081038
311.0000,-7.810435
312.0000,5.981936
313.0000,13.544442
314.0000,5.171554
315.0000,-9.013665
316.0000,11.182867
317.0000,-10.035518
318.0000,-3.493687
319.0000,-4.429525
320.0000,-12.561234
321.0000,8.423438
322.0000,1.290260
323.0000,1.445705
324.0000,5.255448
325.0000,13.209341
326.0000,5.344930
327.0000,5.505113
328.0000,-1.044620
329.0000,5.077376
330.0000,0.036553
331.0000,7.685691
332.0000,5.975621
333.0000,1.852239
334.0000,2.769908
335.0000,4.526944
336.0000,-1.286751
337.0000,3.183879
338.0000,-0.641449
339.0000,-2.321234
340.0000,3.144767
341.0000,0.073906
342.0000,-1.665413
343.0000,-13.746199
344.0000,-0.923469
345.0000,0.790543
346.0000,3.100665
347.0000,1.187212
348.0000,-3.597328
349.0000,-2.862288
350.0000,-1.410615
351.0000,7.561272
352.0000,3.676395
353.0000,5.705282
354.0000,-5.652056
355.0000,5.258523
356.0000,9.459179
357.0000,-3.325354
358.0000,3.789523
359.0000,-0.124326
360.0000,1.397497
361.0000,9.026400
362.0000,-5.808703
363.0000,-0.753019
364.0000,2.943659
365.0000,2.925140
366.0000,-2.636619
367.0000,-5.205221
368.0000,7.417790
369.0000,6.983835
370.0000,-5.200239
371.0000,2.527523
372.0000,-15.956300
373.0000,-4.996803
374.0000,1.525842
375.0000,9.105719
376.0000,0.538664
377.0000,2.188912
378.0000,-2.347765
379.0000,8.793791
380.0000,2.915822
381.0000,-1.799924
382.0000,-6.556606
383.0000,-2.012386
384.0000,-3.047273
385.0000,-2.039309
386.0000,-7.881751
387.0000,12.717307
388.0000,5.696322
389.0000,-0.181510
390.0000,0.180417
391.0000,-1.122475
392.0000,18.565523
393.0000,-3.103392
394.0000,5.973383
395.0000,8.410002
396.0000,-0.490224
397.0000,-4.999535
398.0000,-5.527315
399.0000,8.012099
400.0000,-6.506559
401.0000,6.844668
402.0000,-4.635945
403.0000,-1.148675
404.0000,-1.398871
405.0000,-4.296282
406.0000,-5.067146
407.0000,-4.727383
408.0000,-0.798621
409.0000,-5.665714
410.0000,-3.401646
411.0000,-3.875240
412.0000,-5.890819
413.0000,-4.068833
414.0000,-1.701307
415.0000,3.269732
416.0000,3.056143
417.0000,-9.906410
418.0000,8.147860
419.0000,6.704604
420.0000,-1.819900
421.0000,0.219075
422.0000,1.532403
423.0000,13.726988
424.0000,8.436607
425.0000,-17.039645
426.0000,0.724608
427.0000,-4.567763
428.0000,1.169880
429.0000,5.842652
430.0000,6.099114
431.0000,3.952844
432.0000,2.956410
433.0000,5.974837
434.0000,5.528864
435.0000,-7.271346
436.0000,0.344436
437.0000,1.080899
438.0000,-0.156180
439.0000,-2.560211
440.0000,6.347488
441.0000,1.998755
442.0000,-4.742664
443.0000,10.748131
444.0000,3.158788
445.0000,-11.990703
446.0000,7.776210
447.0000,1.504825
448.0000,-7.179931
449.0000,-3.443420
450.0000,-2.059531
451.0000,-1.987392
452.0000,3.170196
453.0000,4.393102
454.0000,5.495844
455.0000,-7.971860
456.0000,-8.852257
457.0000,8.121603
458.0000,1.682919
459.0000,-4.235548
460.0000,10.371851
461.0000,-5.178231
462.0000,1.654304
463.0000,2.859869
464.0000,4.038235
465.0000,-1.575739
466.0000,-0.674716
467.0000,4.582183
468.0000,-0.292829
469.0000,-12.065957
470.0000,-2.935154
471.0000,0.513213
472.0000,3.626769
473.0000,-5.690306
474.0000,-3.199241
475.0000,-5.633510
476.0000,-13.496721
477.0000,9.014505
478.0000,-2.920596
479.0000,-11.542083
480.0000,5.340640
481.0000,1.787714
482.0000,0.266131
483.0000,2.747400
484.0000,-3.023633
485.0000,-4.739659
486.0000,2.594387
487.0000,2.624127
488.0000,-0.255406
489.0000,13.007185
490.0000,-7.076746
491.0000,9.944194
492.0000,-1.722136
493.0000,-0.648992
494.0000,0.565992
495.0000,0.753780
496.0000,10.161065
497.0000,-1.078878
498.0000,-4.063751
499.0000,-12.709030
500.0000,-2.412202
501.0000,-4.516945
502.0000,-6.523338
503.0000,-2.892142
504.0000,-5.830470
505.0000,6.596968
506.0000,-4.267784
507.0000,-2.917703
508.0000,6.570000
509.0000,-6.755179
510.0000,-5.521520
511.0000,0.433909
512.0000,11.044080
513.0000,-8.580162
514.0000,1.106622
515.0000,2.214416
516.0000,-3.376699
517.0000,5.349167
518.0000,3.333678
519.0000,-8.117215
520.0000,3.873990
521.0000,-3.520980
522.0000,0.600209
523.0000,1.368632
524.0000,-6.381616
525.0000,12.478009
526.0000,-2.399979
527.0000,-2.172408
528.0000,5.147060
529.0000,-3.368805
530.0000,-2.784747
531.0000,13.222112
532.0000,2.075691
533.0000,-7.420497
534.0000,-2.564095
535.0000,-0.018183
536.0000,-0.189084
537.0000,-5.311966
538.0000,0.390688
539.0000,3.362315
540.0000,4.717791
541.0000,-0.507761
542.0000,5.199265
543.0000,3.954053
544.0000,-5.274796
545.0000,-3.041487
546.0000,13.566991
547.0000,-4.877008
548.0000,-2.292441
549.0000,-1.558203
550.0000,-3.760679
551.0000,0.888176
552.0000,-1.076113
553.0000,-7.572677
554.0000,16.929053
555.0000,2.863432
556.0000,-7.285721
557.0000,-3.945600
558.0000,1.455280
559.0000,2.714494
560.0000,5.074931
561.0000,1.264560
562.0000,4.778340
563.0000,-8.839937
564.0000,4.033823
565.0000,4.818013
566.0000,-1.694053
567.0000,3.199662
568.0000,2.870963
569.0000,14.851019
570.0000,-0.375723
571.0000,-1.013458
572.0000,-0.408249
573.0000,6.347469
574.0000,-2.735113
575.0000,0.817224
576.0000,2.243021
577.0000,9.516182
578.0000,6.224705
579.0000,-13.739534
580.0000,-5.227212
581.0000,5.317843
582.0000,3.459955
583.0000,7.658478
584.0000,-4.335968
585.0000,-0.949068
586.0000,7.608408
587.0000,18.196843
588.0000,4.642958
589.0000,6.972541
590.0000,13.955905
591.0000,8.807523
592.0000,-0.514046
593.0000,7.908313
594.0000,8.329678
595.0000,4.173838
596.0000,11.720874
597.0000,8.600135
598.0000,17.042669
599.0000,6.365188
600.0000,10.665293
601.0000,6.662646
602.0000,3.986137
603.0000,10.011363
604.0000,13.493548
605.0000,8.606730
606.0000,9.284786
607.0000,31.809510
608.0000,42.731954
609.0000,29.320919
610.0000,24.565519
611.0000,38.438214
612.0000,37.124407
613.0000,50.097783
614.0000,61.851120
615.0000,77.553251
616.0000,93.249625
617.0000,128.118671
618.0000,170.133456
619.0000,170.626504
620.0000,180.559322
621.0000,161.770812
622.0000,155.872336
623.0000,127.715648
624.0000,106.127641
625.0000,80.639886
626.0000,76.802490
627.0000,45.875746
628.0000,45.752352
629.0000,47.667698
630.0000,35.314473
631.0000,35.596962
632.0000,18.223642
633.0000,14.574536
634.0000,11.229733
635.0000,10.098491
636.0000,13.435675
637.0000,15.228732
638.0000,6.027136
639.0000,18.063141
640.0000,0.604211
641.0000,12.163730
642.0000,8.012293
643.0000,10.092976
644.0000,12.158036
645.0000,12.695544
646.0000,3.680765
647.0000,7.220958
648.0000,4.322301
649.0000,5.924716
650.0000,-1.175371
651.0000,-2.964359
652.0000,5.239264
653.0000,12.395528
654.0000,-1.666394
655.0000,4.370386
656.0000,-2.636022
657.0000,7.388724
658.0000,2.280444
659.0000,-2.478446
660.0000,0.231956
661.0000,16.288602
662.0000,0.111469
663.0000,1.798133
664.0000,5.413293
665.0000,-0.502885
666.0000,2.176578
667.0000,-4.883160
668.0000,5.743619
669.0000,-0.968276
670.0000,6.331206
671.0000,3.253979
672.0000,6.026750
673.0000,3.645936
674.0000,-3.513769
675.0000,4.768949
676.0000,-1.510219
677.0000,-0.964538
678.0000,11.635593
679.0000,7.837636
680.0000,2.685671
681.0000,3.431858
682.0000,2.546586
683.0000,-0.200097
684.0000,-3.905467
685.0000,6.889612
686.0000,-2.079585
687.0000,-2.477480
688.0000,6.826419
689.0000,10.132667
690.0000,-0.546784
691.0000,8.570385
692.0000,-3.149181
693.0000,13.419160
694.0000,6.363432
695.0000,2.817519
696.0000,2.680747
697.0000,6.506611
698.0000,2.816299
699.0000,10.393292
700.0000,2.388711
701.0000,11.869445
702.0000,-9.569433
703.0000,6.890650
704.0000,15.545372
705.0000,-2.978152
706.0000,9.548663
707.0000,-0.961008
708.0000,5.458597
709.0000,3.256211
710.0000,0.943306
711.0000,3.103949
712.0000,8.013786
713.0000,-5.675595
714.0000,7.508300
715.0000,1.041794
716.0000,-2.994035
717.0000,9.269140
718.0000,0.018455
719.0000,-8.465594
720.0000,8.945886
721.0000,5.038160
722.0000,-0.206205
723.0000,3.489148
724.0000,4.278736
725.0000,-8.038728
726.0000,-15.203033
727.0000,4.241521
728.0000,6.273313
729.0000,-4.842279
730.0000,10.538559
731.0000,3.198559
732.0000,12.087612
733.0000,2.131910
734.0000,-0.274570
735.0000,6.975186
736.0000,-0.974508
737.0000,4.339761
738.0000,10.083021
739.0000,1.436983
740.0000,1.361921
741.0000,2.924786
742.0000,-0.872727
743.0000,5.829714
744.0000,-13.779443
745.0000,6.268160
746.0000,-0.730341
747.0000,-6.690169
748.0000,1.622236
749.0000,-8.610951
750.0000,-0.509643
751.0000,-2.369951
752.0000,5.277457
753.0000,11.779619
754.0000,0.971190
755.0000,9.925794
756.0000,-1.951098
757.0000,2.687734
758.0000,-6.152022
759.0000,1.831599
760.0000,-1.117086
761.0000,6.500832
762.0000,0.640355
763.0000,16.040349
764.0000,6.625232
765.0000,7.969939
766.0000,-6.665985
767.0000,9.491405
768.0000,-1.800217
769.0000,11.385715
770.0000,15.067522
771.0000,15.112864
772.0000,0.554542
773.0000,2.670294
774.0000,5.693666
775.0000,4.417608
776.0000,10.335281
777.0000,17.020998
778.0000,11.414907
779.0000,17.132273
780.0000,27.429524
781.0000,20.999081
782.0000,18.569792
783.0000,17.587028
784.0000,32.234376
785.0000,26.692770
786.0000,32.964583
787.0000,34.104543
788.0000,40.315636
789.0000,32.956538
790.0000,60.371869
791.0000,80.270865
792.0000,88.767654
793.0000,102.009733
794.0000,96.427565
795.0000,100.476796
796.0000,90.079884
797.0000,83.150276
798.0000,86.579237
799.0000,69.737728
800.0000,61.394750
801.0000,43.690569
802.0000,37.839922
803.0000,32.548374
804.0000,46.230787
805.0000,35.654140
806.0000,32.626778
807.0000,34.552585
808.0000,24.674740
809.0000,8.447200
810.0000,13.841689
811.0000,23.509794
812.0000,16.666699
813.0000,10.414643
814.0000,2.193504
815.0000,3.293197
816.0000,10.766658
817.0000,1.782146
818.0000,9.116423
819.0000,2.497444
820.0000,5.309927
821.0000,10.128219
822.0000,8.904890
823.0000,-3.338214
824.0000,3.690498
825.0000,2.881381
826.0000,-3.171120
827.0000,1.263395
828.0000,4.946412
829.0000,4.153165
830.0000,1.787094
831.0000,2.496494
832.0000,-8.525850
833.0000,-0.870197
834.0000,-2.765002
835.0000,7.972400
836.0000,-10.164343
837.0000,3.705491
838.0000,-6.868853
839.0000,1.811051
840.0000,0.416173
841.0000,4.811382
842.0000,-8.322895
843.0000,3.054709
844.0000,7.885000
845.0000,-1.470663
846.0000,0.468488
847.0000,4.089428
848.0000,-9.046775
849.0000,5.616303
850.0000,-5.057781
851.0000,-13.342670
852.0000,4.669018
853.0000,1.771288
854.0000,0.323118
855.0000,6.177305
856.0000,0.561144
857.0000,10.118826
858.0000,-3.825506
859.0000,0.802126
860.0000,2.039466
861.0000,6.120863
862.0000,-9.299625
863.0000,3.164279
864.0000,10.511419
865.0000,3.288442
866.0000,7.169208
867.0000,-4.668815
868.0000,3.602971
869.0000,-0.447451
870.0000,-6.553075
871.0000,-9.384973
872.0000,-0.132364
873.0000,9.117326
874.0000,-0.168187
875.0000,10.486510
876.0000,-5.284219
877.0000,1.682232
878.0000,14.853347
879.0000,-10.170832
880.0000,-10.972200
881.0000,2.983962
882.0000,10.232496
883.0000,13.217662
884.0000,-0.385615
885.0000,6.504044
886.0000,5.545554
887.0000,5.230195
888.0000,2.830979
889.0000,1.398003
890.0000,9.208709
891.0000,3.179019
892.0000,3.342803
893.0000,-0.645712
894.0000,-3.219618
895.0000,2.141650
896.0000,-1.979065
897.0000,0.945355
898.0000,-4.831981
899.0000,3.516120
900.0000,9.300107
901.0000,5.519015
902.0000,-4.054154
903.0000,0.370827
904.0000,6.244116
905.0000,6.508418
906.0000,3.665824
907.0000,4.692831
908.0000,-2.249591
909.0000,-7.531615
910.0000,8.472843
911.0000,-0.078562
912.0000,-4.682969
913.0000,10.830630
914.0000,2.778708
915.0000,-4.575139
916.0000,-1.593985
917.0000,11.138709
918.0000,9.668456
919.0000,-2.915582
920.0000,-15.537590
921.0000,-8.868795
922.0000,-7.957944
923.0000,-0.335193
924.0000,9.384617
925.0000,6.314509
926.0000,0.906440
927.0000,-4.400501
928.0000,-6.758546
929.0000,-0.928075
930.0000,7.166304
931.0000,8.383739
932.0000,-10.074428
933.0000,3.468668
934.0000,4.189445
935.0000,3.439759
936.0000,-6.644402
937.0000,1.001042
938.0000,3.875763
939.0000,0.822994
940.0000,11.060945
941.0000,-0.805441
942.0000,5.875655
943.0000,-3.228444
944.0000,1.575230
945.0000,9.382853
946.0000,2.294884
947.0000,6.812385
948.0000,5.769953
949.0000,-3.011681
950.0000,5.815788
951.0000,4.094368
952.0000,9.943015
953.0000,13.253952
954.0000,-1.065577
955.0000,1.083577
956.0000,1.154406
957.0000,8.816325
958.0000,2.534512
959.0000,9.538426
960.0000,6.888219
961.0000,3.021775
962.0000,11.470880
963.0000,4.435489
964.0000,2.190054
965.0000,-0.118999
966.0000,13.378991
967.0000,9.242443
968.0000,14.081459
969.0000,6.942033
970.0000,13.768913
971.0000,5.417350
972.0000,10.267654
973.0000,17.711863
974.0000,9.269490
975.0000,11.966727
976.0000,6.966503
977.0000,13.860392
978.0000,21.789917
979.0000,17.357713
980.0000,13.028015
981.0000,14.670618
982.0000,26.406030
983.0000,24.693382
984.0000,27.493377
985.0000,28.812313
986.0000,45.746756
987.0000,42.899932
988.0000,56.840671
989.0000,64.702206
990.0000,66.106271
991.0000,93.687394
992.0000,98.477028
993.0000,127.416559
994.0000,163.009763
995.0000,194.373399
996.0000,266.992806
997.0000,362.812527
998.0000,511.581414
999.0000,688.498621
1000.0000,899.982971
1001.0000,996.916700
1002.0000,898.521191
1003.0000,695.147770
1004.0000,504.877937
1005.0000,364.568606
1006.0000,272.291015
1007.0000,195.710344
1008.0000,171.679523
1009.0000,129.318209
1010.0000,112.502676
1011.0000,94.534566
1012.0000,88.626645
1013.0000,71.327350
1014.0000,67.145982
1015.0000,60.153046
1016.0000,69.130026
1017.0000,53.668990
1018.0000,63.785505
1019.0000,62.139049
1020.0000,70.521623
1021.0000,62.343547
1022.0000,71.638990
1023.0000,93.381691
1024.0000,91.965096
1025.0000,127.406166
1026.0000,151.130117
1027.0000,193.247994
1028.0000,256.779905
1029.0000,318.192978
1030.0000,397.530803
1031.0000,429.493726
1032.0000,393.860342
1033.0000,327.863062
1034.0000,253.679935
1035.0000,193.616678
1036.0000,140.290031
1037.0000,107.336983
1038.0000,94.451801
1039.0000,72.829089
1040.0000,60.017249
1041.0000,62.378679
1042.0000,41.207544
1043.0000,30.963316
1044.0000,35.135604
1045.0000,34.331617
1046.0000,17.274486
1047.0000,17.287612
1048.0000,23.656990
1049.0000,14.445983
1050.0000,15.137328
1051.0000,24.517659
1052.0000,10.183606
1053.0000,27.839900
1054.0000,21.492464
1055.0000,5.294790
1056.0000,14.708648
1057.0000,8.812645
1058.0000,7.029919
1059.0000,3.452990
1060.0000,9.584083
1061.0000,8.834415
1062.0000,4.233374
1063.0000,11.711995
1064.0000,8.999432
1065.0000,-3.823136
1066.0000,5.758989
1067.0000,17.045987
1068.0000,10.591951
1069.0000,7.558146
1070.0000,7.999067
1071.0000,13.339034
1072.0000,8.526384
1073.0000,-1.954657
1074.0000,10.657223
1075.0000,8.098962
1076.0000,-12.481227
1077.0000,10.053131
1078.0000,6.974634
1079.0000,3.390724
1080.0000,-5.716302
1081.0000,1.696178
1082.0000,10.566104
1083.0000,5.376575
1084.0000,8.121961
1085.0000,1.043194
1086.0000,-4.662569
1087.0000,-6.917302
1088.0000,-2.301748
1089.0000,-4.071643
1090.0000,11.938513
1091.0000,-3.368033
1092.0000,7.327676
1093.0000,0.931535
1094.0000,14.543906
1095.0000,3.588573
1096.0000,-1.497367
1097.0000,12.396506
1098.0000,8.182762
1099.0000,9.393277
1100.0000,8.874375
1101.0000,-0.439286
1102.0000,-7.977484
1103.0000,13.094287
1104.0000,13.824181
1105.0000,3.953258
1106.0000,0.499183
1107.0000,8.018607
1108.0000,6.103341
1109.0000,11.011113
1110.0000,3.055995
1111.0000,9.909117
1112.0000,8.312475
1113.0000,2.404971
1114.0000,2.118269
1115.0000,7.397779
1116.0000,5.300165
1117.0000,9.727203
1118.0000,-0.556547
1119.0000,0.308638
1120.0000,14.836970
1121.0000,3.710000
1122.0000,2.168326
1123.0000,12.470247
1124.0000,4.727911
1125.0000,0.238817
1126.0000,10.253995
1127.0000,-2.346070
1128.0000,-4.676034
1129.0000,-3.953880
1130.0000,0.462293
1131.0000,5.878204
1132.0000,6.522786
1133.0000,10.178385
1134.0000,5.332904
1135.0000,1.188196
1136.0000,15.192335
1137.0000,8.315948
1138.0000,15.051373
1139.0000,13.613313
1140.0000,22.448639
1141.0000,19.201350
1142.0000,18.899894
1143.0000,26.049685
1144.0000,31.909202
1145.0000,34.289476
1146.0000,23.270747
1147.0000,45.867206
1148.0000,56.050645
1149.0000,63.175206
1150.0000,87.924841
1151.0000,97.336255
1152.0000,105.843699
1153.0000,130.322659
1154.0000,149.289190
1155.0000,140.339619
1156.0000,135.280264
1157.0000,122.309073
1158.0000,102.126881
1159.0000,81.124955
1160.0000,73.333803
1161.0000,66.802260
1162.0000,54.942833
1163.0000,53.538495
1164.0000,41.577430
1165.0000,30.730965
1166.0000,39.388022
1167.0000,36.826718
1168.0000,33.991493
1169.0000,27.140641
1170.0000,20.189022
1171.0000,34.471061
1172.0000,34.508910
1173.0000,25.052163
1174.0000,29.356601
1175.0000,39.872469
1176.0000,53.947210
1177.0000,56.507860
1178.0000,62.755721
1179.0000,76.170666
1180.0000,90.674913
1181.0000,107.862409
1182.0000,119.049385
1183.0000,131.732588
1184.0000,122.579508
1185.0000,100.647597
1186.0000,86.114561
1187.0000,69.078136
1188.0000,58.476193
1189.0000,44.218075
1190.0000,40.704874
1191.0000,43.291029
1192.0000,25.180941
1193.0000,17.225441
1194.0000,19.058095
1195.0000,10.990360
1196.0000,18.127980
1197.0000,16.183987
1198.0000,21.083891
1199.0000,6.479338
1200.0000,13.401359
1201.0000,8.373037
1202.0000,2.207019
1203.0000,13.794545
1204.0000,6.069501
1205.0000,0.264938
1206.0000,13.402763
1207.0000,2.218150
1208.0000,9.458479
1209.0000,3.955399
1210.0000,-2.179647
1211.0000,7.181643
1212.0000,4.672611
1213.0000,4.932499
1214.0000,-2.562854
1215.0000,12.240266
1216.0000,14.399024
1217.0000,-8.243400
1218.0000,6.533717
1219.0000,-1.786203
1220.0000,3.484992
1221.0000,-4.706055
1222.0000,-2.684939
1223.0000,-3.178936
1224.0000,9.913941
1225.0000,-7.114758
1226.0000,7.024205
1227.0000,8.381238
1228.0000,-4.561583
1229.0000,7.136024
1230.0000,-5.444981
1231.0000,-3.613281
1232.0000,-1.598083
1233.0000,1.390042
1234.0000,3.102528
1235.0000,2.730110
1236.0000,4.215378
1237.0000,-2.499691
1238.0000,4.855602
1239.0000,-4.835130
1240.0000,-2.417521
1241.0000,0.589147
1242.0000,0.972669
1243.0000,-8.697862
1244.0000,-9.591820
1245.0000,-0.355499
1246.0000,-0.967330
1247.0000,3.191787
1248.0000,-6.651372
1249.0000,-5.075082
1250.0000,16.328181
1251.0000,0.285104
1252.0000,-5.505491
1253.0000,-6.377264
1254.0000,0.034346
1255.0000,4.241769
1256.0000,2.010257
1257.0000,7.347273
1258.0000,10.697361
1259.0000,9.022898
1260.0000,13.826022
1261.0000,-1.481952
1262.0000,-4.514315
1263.0000,10.495200
1264.0000,-2.151196
1265.0000,-10.044533
1266.0000,3.961867
1267.0000,-0.856706
1268.0000,-2.108725
1269.0000,-5.313181
1270.0000,-1.939999
1271.0000,5.958383
1272.0000,1.257889
1273.0000,3.590408
1274.0000,6.337288
1275.0000,-1.775367
1276.0000,-6.184202
1277.0000,6.282468
1278.0000,7.634778
1279.0000,15.509830
1280.0000,3.340223
1281.0000,-7.215526
1282.0000,3.902455
1283.0000,3.902525
1284.0000,-0.555560
1285.0000,-3.233443
1286.0000,-7.423226
1287.0000,0.495177
1288.0000,1.315753
1289.0000,8.823823
1290.0000,4.683390
1291.0000,0.998160
1292.0000,-0.254018
1293.0000,-4.342332
1294.0000,1.379716
1295.0000,7.846983
1296.0000,-5.259070
1297.0000,3.235387
1298.0000,-4.465082
1299.0000,-7.796729
1300.0000,2.511739
1301.0000,-5.189338
1302.0000,11.116919
1303.0000,-15.914365
1304.0000,-8.510067
1305.0000,3.566357
1306.0000,2.168747
1307.0000,-0.140467
1308.0000,-1.822585
1309.0000,1.848355
1310.0000,-2.531202
1311.0000,4.902708
1312.0000,3.844965
1313.0000,0.976090
1314.0000,5.189455
1315.0000,9.043532
1316.0000,-0.267395
1317.0000,-11.624677
1318.0000,-1.956051
1319.0000,-6.974145
1320.0000,5.597636
1321.0000,5.071939
1322.0000,0.013842
1323.0000,8.135047
1324.0000,-1.222275
1325.0000,7.339377
1326.0000,16.195302
1327.0000,1.304702
1328.0000,1.796464
1329.0000,-2.712480
1330.0000,-2.743669
1331.0000,14.487566
1332.0000,-9.085099
1333.0000,-4.793286
1334.0000,9.741683
1335.0000,4.777253
1336.0000,-1.116301
1337.0000,8.549327
1338.0000,-2.637831
1339.0000,9.324234
1340.0000,-8.464239
1341.0000,8.705604
1342.0000,5.133820
1343.0000,-2.891778
1344.0000,7.342099
1345.0000,9.585867
1346.0000,8.426632
1347.0000,5.939265
1348.0000,7.710276
1349.0000,-2.836618
1350.0000,3.343738
1351.0000,2.730523
1352.0000,2.782157
1353.0000,-8.880985
1354.0000,1.440756
1355.0000,3.794056
1356.0000,8.840024
1357.0000,0.343736
1358.0000,2.877735
1359.0000,7.926943
1360.0000,-4.415365
1361.0000,15.107621
1362.0000,0.600071
1363.0000,-1.619587
1364.0000,8.942772
1365.0000,7.960949
1366.0000,1.347385
1367.0000,11.239308
1368.0000,5.897607
1369.0000,-1.702895
1370.0000,3.324189
1371.0000,1.237715
1372.0000,14.594261
1373.0000,0.501278
1374.0000,-2.380957
1375.0000,-7.883416
1376.0000,5.012307
1377.0000,-0.024222
1378.0000,5.887344
1379.0000,4.399712
1380.0000,10.494248
1381.0000,-0.992510
1382.0000,-7.772106
1383.0000,2.617609
1384.0000,8.713109
1385.0000,-2.299349
1386.0000,11.733579
1387.0000,-0.964452
1388.0000,9.024979
1389.0000,6.005111
1390.0000,5.428885
1391.0000,0.726824
1392.0000,4.860860
1393.0000,-1.172482
1394.0000,7.711030
1395.0000,15.308438
1396.0000,4.040912
1397.0000,1.310337
1398.0000,20.573184
1399.0000,4.689294
1400.0000,18.911023
1401.0000,13.678485
1402.0000,11.467140
1403.0000,12.941160
1404.0000,4.278007
1405.0000,3.610925
1406.0000,10.975230
1407.0000,5.036821
1408.0000,7.112394
1409.0000,12.384047
1410.0000,0.185048
1411.0000,8.556498
1412.0000,12.550139
1413.0000,10.940312
1414.0000,8.294005
1415.0000,0.361181
1416.0000,2.426494
1417.0000,10.209061
1418.0000,19.028430
1419.0000,14.896231
1420.0000,12.318885
1421.0000,22.262343
1422.0000,18.505443
1423.0000,10.039588
1424.0000,17.342450
1425.0000,23.533692
1426.0000,9.844995
1427.0000,10.938310
1428.0000,26.144016
1429.0000,19.254668
1430.0000,15.929415
1431.0000,32.723424
1432.0000,30.190803
1433.0000,28.464314
1434.0000,31.147436
1435.0000,48.643429
1436.0000,40.677424
1437.0000,47.971402
1438.0000,45.706511
1439.0000,65.205504
1440.0000,70.398864
1441.0000,77.533234
1442.0000,95.075635
1443.0000,119.936016
1444.0000,129.030065
1445.0000,146.163655
1446.0000,165.442557
1447.0000,180.719575
1448.0000,198.164219
1449.0000,222.345617
1450.0000,225.019169
1451.0000,221.459993
1452.0000,201.288525
1453.0000,183.442091
1454.0000,172.248605
1455.0000,158.427649
1456.0000,130.087192
1457.0000,110.287590
1458.0000,86.729622
1459.0000,83.991411
1460.0000,72.682751
1461.0000,61.677202
1462.0000,61.006259
1463.0000,50.960323
1464.0000,49.720033
1465.0000,51.003733
1466.0000,26.887445
1467.0000,33.644968
1468.0000,32.581515
1469.0000,28.422726
1470.0000,20.428801
1471.0000,27.326772
1472.0000,23.691159
1473.0000,13.289056
1474.0000,11.899628
1475.0000,15.744948
1476.0000,25.551304
1477.0000,11.281554
1478.0000,11.843491
1479.0000,13.183918
1480.0000,6.094657
1481.0000,15.848918
1482.0000,14.188650
1483.0000,15.301937
1484.0000,9.455633
1485.0000,10.524919
1486.0000,15.030170
1487.0000,7.385095
1488.0000,11.720061
1489.0000,20.966303
1490.0000,8.813265
1491.0000,6.301018
1492.0000,13.150698
1493.0000,11.718076
1494.0000,8.808290
1495.0000,6.987657
1496.0000,5.634620
1497.0000,4.152222
1498.0000,14.476387
1499.0000,9.970619
1500.0000,3.326182
1501.0000,11.052746
1502.0000,1.686336
1503.0000,6.838880
1504.0000,4.214083
1505.0000,-1.738317
1506.0000,8.678836
1507.0000,10.315429
1508.0000,14.438613
1509.0000,8.257234
1510.0000,-3.747052
1511.0000,0.007115
1512.0000,5.306459
1513.0000,9.865687
1514.0000,-0.977432
1515.0000,1.798291
1516.0000,9.113888
1517.0000,-2.229112
1518.0000,7.670248
1519.0000,7.020487
1520.0000,4.984761
1521.0000,14.835699
1522.0000,10.133984
1523.0000,-8.748264
1524.0000,2.999011
1525.0000,6.486966
1526.0000,3.750203
1527.0000,13.232541
1528.0000,-3.103632
1529.0000,5.686760
1530.0000,0.438335
1531.0000,2.413795
1532.0000,9.732289
1533.0000,18.210066
1534.0000,8.103112
1535.0000,2.165265
1536.0000,-1.694980
1537.0000,10.867005
1538.0000,3.066777
1539.0000,15.213035
1540.0000,12.037257
1541.0000,5.470396
1542.0000,6.653401
1543.0000,4.184919
1544.0000,8.014833
1545.0000,19.090203
1546.0000,7.987148
1547.0000,13.208331
1548.0000,5.093698
1549.0000,10.474938
1550.0000,12.142503
1551.0000,11.426692
1552.0000,24.624945
1553.0000,6.399504
1554.0000,19.486765
1555.0000,11.235823
1556.0000,7.271943
1557.0000,3.591372
1558.0000,17.322079
1559.0000,20.873468
1560.0000,14.334152
1561.0000,16.951536
1562.0000,12.308872
1563.0000,15.017646
1564.0000,28.556536
1565.0000,25.198006
1566.0000,36.134333
1567.0000,26.670375
1568.0000,29.227962
1569.0000,33.882114
1570.0000,32.144780
1571.0000,37.778252
1572.0000,45.112116
1573.0000,49.725515
1574.0000,53.053495
1575.0000,73.445111
1576.0000,78.306596
1577.0000,96.460076
1578.0000,116.412118
1579.0000,138.099564
1580.0000,171.250651
1581.0000,192.471518
1582.0000,218.011322
1583.0000,221.918654
1584.0000,227.975763
1585.0000,204.572010
1586.0000,193.868307
1587.0000,169.594027
1588.0000,154.649158
1589.0000,150.273958
1590.0000,123.790938
1591.0000,126.015569
1592.0000,134.151998
1593.0000,147.730921
1594.0000,152.983742
1595.0000,183.336662
1596.0000,228.726985
1597.0000,251.325577
1598.0000,332.709865
1599.0000,417.991682
1600.0000,515.297744
1601.0000,597.217514
1602.0000,627.527858
1603.0000,586.486736
1604.0000,517.933587
1605.0000,397.521872
1606.0000,311.165997
1607.0000,251.210081
1608.0000,191.430189
1609.0000,155.622591
1610.0000,141.592639
1611.0000,110.590703
1612.0000,100.947310
1613.0000,93.945317
1614.0000,74.490946
1615.0000,53.179516
1616.0000,62.984790
1617.0000,39.016137
1618.0000,53.483711
1619.0000,34.669101
1620.0000,33.958230
1621.0000,36.245184
1622.0000,22.884789
1623.0000,16.579166
1624.0000,27.030577
1625.0000,20.072161
1626.0000,20.024997
1627.0000,18.836135
1628.0000,17.479030
1629.0000,13.666534
1630.0000,13.517528
1631.0000,7.913281
1632.0000,6.032526
1633.0000,16.583876
1634.0000,10.831295
1635.0000,21.154367
1636.0000,4.380417
1637.0000,5.834361
1638.0000,11.294860
1639.0000,15.173177
1640.0000,12.466010
1641.0000,3.431912
1642.0000,2.577988
1643.0000,9.915342
1644.0000,1.210323
1645.0000,13.554596
1646.0000,4.784660
1647.0000,2.410925
1648.0000,-6.903983
1649.0000,13.363297
1650.0000,13.115797
1651.0000,10.388409
1652.0000,-8.035260
1653.0000,5.318852
1654.0000,6.782794
1655.0000,7.436160
1656.0000,-2.347592
1657.0000,4.168247
1658.0000,8.435519
1659.0000,-9.513811
1660.0000,3.131022
1661.0000,10.686153
1662.0000,-1.674145
1663.0000,7.081479
1664.0000,7.628733
1665.0000,14.325226
1666.0000,3.338827
1667.0000,3.587441
1668.0000,-1.236773
1669.0000,2.981757
1670.0000,1.493222
1671.0000,4.792599
1672.0000,6.795395
1673.0000,-5.071028
1674.0000,12.088412
1675.0000,0.578835
1676.0000,0.117500
1677.0000,-7.879156
1678.0000,9.739677
1679.0000,2.836451
1680.0000,9.466009
1681.0000,3.220475
1682.0000,7.487505
1683.0000,-1.497609
1684.0000,-0.546678
1685.0000,8.668661
1686.0000,5.144030
1687.0000,5.161305
1688.0000,0.170575
1689.0000,0.923394
1690.0000,-7.905225
1691.0000,0.609944
1692.0000,-1.590498
1693.0000,7.015329
1694.0000,3.713247
1695.0000,0.814979
1696.0000,-0.677249
1697.0000,0.891355
1698.0000,-10.498540
1699.0000,-0.065978
1700.0000,1.466075
1701.0000,2.248601
1702.0000,-0.916533
1703.0000,-4.274771
1704.0000,7.086215
1705.0000,-3.135480
1706.0000,4.184801
1707.0000,4.099504
1708.0000,7.430138
1709.0000,-3.324824
1710.0000,-7.060983
1711.0000,-0.491597
1712.0000,-3.714335
1713.0000,-0.907187
1714.0000,-2.668657
1715.0000,3.505417
1716.0000,-2.504913
1717.0000,6.929128
1718.0000,6.449443
1719.0000,3.267147
1720.0000,-4.899055
1721.0000,-0.340725
1722.0000,-4.600209
1723.0000,2.902895
1724.0000,-2.757853
1725.0000,1.987257
1726.0000,6.530985
1727.0000,-8.902764
1728.0000,10.971335
1729.0000,-8.808792
1730.0000,0.383011
1731.0000,10.198396
1732.0000,-2.151178
1733.0000,0.406893
1734.0000,2.336312
1735.0000,0.740807
1736.0000,11.727577
1737.0000,3.246736
1738.0000,-4.453395
1739.0000,3.244888
1740.0000,-0.276029
1741.0000,3.281749
1742.0000,0.408572
1743.0000,-1.557290
1744.0000,-1.293349
1745.0000,-6.007225
1746.0000,-0.519114
1747.0000,4.201613
1748.0000,-2.426618
1749.0000,6.236497
1750.0000,-3.326908
1751.0000,-9.963322
1752.0000,6.890980
1753.0000,4.517193
1754.0000,1.939728
1755.0000,2.423410
1756.0000,-0.137100
1757.0000,-3.133614
1758.0000,-1.530751
1759.0000,7.970101
1760.0000,2.485270
1761.0000,-1.957977
1762.0000,-0.281378
1763.0000,-3.247467
1764.0000,-10.352438
1765.0000,6.498006
1766.0000,0.395622
1767.0000,-0.580607
1768.0000,-1.681879
1769.0000,-1.896915
1770.0000,11.429979
1771.0000,2.943593
1772.0000,-3.629526
1773.0000,-6.738737
1774.0000,5.730597
1775.0000,-4.181775
1776.0000,4.324122
1777.0000,-7.490362
1778.0000,8.603221
1779.0000,-5.246073
1780.0000,-7.073833
1781.0000,7.022394
1782.0000,-0.974629
1783.0000,-2.821552
1784.0000,4.531111
1785.0000,1.931998
1786.0000,-2.006583
1787.0000,13.317122
1788.0000,-7.813594
1789.0000,15.738214
1790.0000,3.636680
1791.0000,-0.931699
1792.0000,4.045932
1793.0000,-7.546536
1794.0000,-2.782504
1795.0000,-1.684521
1796.0000,-10.859053
1797.0000,2.462688
1798.0000,2.602182
1799.0000,-9.865057
1800.0000,3.932866
1801.0000,4.970579
1802.0000,-0.464514
1803.0000,-2.554542
1804.0000,-10.394501
1805.0000,3.627122
1806.0000,11.229524
1807.0000,-8.308647
1808.0000,20.371752
1809.0000,-2.649077
1810.0000,2.541513
1811.0000,1.674578
1812.0000,14.213330
1813.0000,-4.453115
1814.0000,-1.876227
1815.0000,-9.772745
1816.0000,0.460916
1817.0000,-4.966143
1818.0000,2.176113
1819.0000,-3.397884
1820.0000,-3.997630
1821.0000,3.273291
1822.0000,1.065297
1823.0000,4.227253
1824.0000,-18.114938
1825.0000,-1.506001
1826.0000,-0.503049
1827.0000,-1.425457
1828.0000,-17.363609
1829.0000,5.780236
1830.0000,7.893629
1831.0000,-0.639239
1832.0000,2.780179
1833.0000,6.427295
1834.0000,-12.666462
1835.0000,-5.266222
1836.0000,3.028572
1837.0000,-4.990031
1838.0000,-0.824013
1839.0000,4.553783
1840.0000,-7.577630
1841.0000,-2.828213
1842.0000,-6.548814
1843.0000,8.741042
1844.0000,10.073304
1845.0000,-4.642854
1846.0000,-7.282221
1847.0000,1.756117
1848.0000,11.577529
1849.0000,9.887392
1850.0000,-4.684489
1851.0000,-6.455440
1852.0000,-4.491308
1853.0000,2.390109
1854.0000,-4.372026
1855.0000,-0.415195
1856.0000,-4.072763
1857.0000,15.598165
1858.0000,-11.552160
1859.0000,0.900661
1860.0000,-2.650120
1861.0000,-1.421744
1862.0000,13.583764
1863.0000,1.375460
1864.0000,-9.933092
1865.0000,9.695189
1866.0000,-1.341830
1867.0000,2.086658
1868.0000,-0.091887
1869.0000,2.159944
1870.0000,8.970822
1871.0000,4.120079
1872.0000,-0.696751
1873.0000,-3.244537
1874.0000,-3.294461
1875.0000,-8.633752
1876.0000,0.126924
1877.0000,2.613744
1878.0000,2.292700
1879.0000,4.809011
1880.0000,5.407164
1881.0000,8.601076
1882.0000,-7.432500
1883.0000,-6.175802
1884.0000,3.556596
1885.0000,0.127538
1886.0000,0.742821
1887.0000,5.105369
1888.0000,-10.111600
1889.0000,1.761833
1890.0000,6.768943
1891.0000,-5.804232
1892.0000,-5.854198
1893.0000,0.295185
1894.0000,2.648665
1895.0000,-3.279950
1896.0000,-1.802285
1897.0000,-0.159726
1898.0000,-4.108836
1899.0000,-2.956338
1900.0000,1.608517
1901.0000,8.099262
1902.0000,-1.514667
1903.0000,13.524609
1904.0000,0.622996
1905.0000,-4.878460
1906.0000,0.428192
1907.0000,-3.203069
1908.0000,4.508913
1909.0000,0.335652
1910.0000,3.332799
1911.0000,-0.786984
1912.0000,-10.265354
1913.0000,-6.707266
1914.0000,6.236853
1915.0000,-10.503436
1916.0000,0.391990
1917.0000,6.386911
1918.0000,-4.944434
1919.0000,8.163131
1920.0000,0.362980
1921.0000,4.104724
1922.0000,4.152333
1923.0000,-8.425681
1924.0000,-1.751418
1925.0000,1.371137
1926.0000,-4.126605
1927.0000,6.349982
1928.0000,-0.707597
1929.0000,-2.508055
1930.0000,-0.957238
1931.0000,5.820423
1932.0000,-1.825432
1933.0000,-11.070842
1934.0000,3.049979
1935.0000,-1.314927
1936.0000,-0.850960
1937.0000,0.619472
1938.0000,2.446450
1939.0000,-6.120240
1940.0000,-4.523631
1941.0000,0.619213
1942.0000,2.936852
1943.0000,7.885428
1944.0000,-3.758094
1945.0000,-7.202469
1946.0000,2.303636
1947.0000,-11.418467
1948.0000,5.410375
1949.0000,0.490946
1950.0000,0.170021
1951.0000,1.967970
1952.0000,-1.853771
1953.0000,7.978501
1954.0000,8.537118
1955.0000,-5.038011
1956.0000,-5.117395
1957.0000,-11.660681
1958.0000,-15.891021
1959.0000,-8.577966
1960.0000,3.606757
1961.0000,-8.435212
1962.0000,13.673254
1963.0000,1.119512
1964.0000,11.343131
1965.0000,-1.176935
1966.0000,4.354298
1967.0000,8.126558
1968.0000,-5.361131
1969.0000,-4.008697
1970.0000,0.121601
1971.0000,0.526092
1972.0000,3.345641
1973.0000,-1.124173
1974.0000,-1.562914
1975.0000,-3.678251
1976.0000,-4.601425
1977.0000,1.225257
1978.0000,-8.339053
1979.0000,1.393187
1980.0000,-2.170925
1981.0000,3.892460
1982.0000,-2.165186
1983.0000,4.178531
1984.0000,-7.836658
1985.0000,0.742319
1986.0000,5.951630
1987.0000,0.279758
1988.0000,-0.363329
1989.0000,2.710629
1990.0000,1.613995
1991.0000,-10.751967
1992.0000,-6.207194
1993.0000,-7.426772
1994.0000,1.118867
1995.0000,12.315367
1996.0000,4.288876
1997.0000,1.674654
1998.0000,9.118703
1999.0000,-3.514958
2000.0000,10.190015
