raman_shift_cm-1,intensity
200.0000,-5.773319
201.0000,-2.682601
202.0000,9.559479
203.0000,3.530606
204.0000,-1.250978
205.0000,-9.181184
206.0000,6.188985
207.0000,-1.235970
208.0000,3.175780
209.0000,4.345368
210.0000,-0.423064
211.0000,0.591944
212.0000,2.841740
213.0000,1.177332
214.0000,-4.362946
215.0000,-1.478890
216.0000,-4.555000
217.0000,0.773440
218.0000,-8.505841
219.0000,-2.993731
220.0000,8.614767
221.0000,5.601327
222.0000,5.446238
223.0000,-7.759318
224.0000,8.669716
225.0000,-8.352061
226.0000,6.879468
227.0000,9.451544
228.0000,4.978759
229.0000,-5.905867
230.0000,3.747361
231.0000,9.937246
232.0000,-1.743816
233.0000,1.080978
234.0000,7.761932
235.0000,-1.342248
236.0000,-2.290738
237.0000,3.405682
238.0000,1.848056
239.0000,7.515276
240.0000,7.281487
241.0000,5.114144
242.0000,4.177924
243.0000,11.941399
244.0000,-1.642957
245.0000,2.832451
246.0000,5.440606
247.0000,8.228552
248.0000,-0.810318
249.0000,20.367713
250.0000,-2.148203
251.0000,-14.804228
252.0000,-0.149473
253.0000,-0.000406
254.0000,-2.279887
255.0000,9.968376
256.0000,11.004706
257.0000,0.781019
258.0000,-5.961518
259.0000,-7.672360
260.0000,16.377484
261.0000,-5.008312
262.0000,-3.452296
263.0000,4.054185
264.0000,8.143034
265.0000,1.470432
266.0000,7.853395
267.0000,5.760028
268.0000,-1.655879
269.0000,-0.022580
270.0000,6.496130
271.0000,0.050648
272.0000,2.886671
273.0000,-1.559641
274.0000,3.752572
275.0000,5.332321
276.0000,4.246070
277.0000,2.168136
278.0000,3.220043
279.0000,-5.614988
280.0000,4.992822
281.0000,2.778116
282.0000,-8.597612
283.0000,-3.778895
284.0000,-5.771136
285.0000,-0.287287
286.0000,3.841346
287.0000,0.783883
288.0000,-11.232946
289.0000,3.404010
290.0000,6.531391
291.0000,7.036806
292.0000,1.609123
293.0000,4.283887
294.0000,1.811300
295.0000,-4.192266
296.0000,13.258730
297.0000,-4.550988
298.0000,1.592199
299.0000,3.557420
300.0000,-3.671551
301.0000,-7.897545
302.0000,1.153263
303.0000,-0.004334
304.0000,-0.370323
305.0000,-9.129270
306.0000,4.589759
307.0000,-0.119041
308.0000,2.857217
309.0000,0.458551
310.0000,3.690474
311.0000,20.880280
312.0000,-7.976554
313.0000,7.478604
314.0000,-5.368814
315.0000,-0.485709
316.0000,-2.660407
317.0000,9.147445
318.0000,-10.312287
319.0000,2.329469
320.0000,11.968261
321.0000,-0.991596
322.0000,4.161294
323.0000,-12.642635
324.0000,0.553760
325.0000,3.125030
326.0000,-6.600786
327.0000,-0.466862
328.0000,-1.232083
329.0000,-8.594511
330.0000,-4.590219
331.0000,-2.712206
332.0000,8.108367
333.0000,-2.860175
334.0000,-11.026014
335.0000,1.025207
336.0000,-7.537462
337.0000,1.905562
338.0000,-2.265390
339.0000,-5.514486
340.0000,-2.767567
341.0000,-2.279307
342.0000,-1.276450
343.0000,-3.039670
344.0000,5.397452
345.0000,4.322515
346.0000,-5.580790
347.0000,2.830176
348.0000,3.812867
349.0000,3.763697
350.0000,10.726369
351.0000,-3.701630
352.0000,-0.145922
353.0000,-0.276747
354.0000,3.160775
355.0000,-0.968418
356.0000,-7.123609
357.0000,5.263162
358.0000,-8.999954
359.0000,-7.929672
360.0000,0.056594
361.0000,-1.590362
362.0000,-3.355362
363.0000,9.339188
364.0000,-5.865886
365.0000,-2.666552
366.0000,-7.417561
367.0000,-0.232533
368.0000,8.147662
369.0000,-0.428048
370.0000,-0.148354
371.0000,6.504157
372.0000,-5.744194
373.0000,-0.358306
374.0000,2.414271
375.0000,0.949946
376.0000,8.712319
377.0000,-2.813920
378.0000,-0.716984
379.0000,2.875552
380.0000,-3.598492
381.0000,8.399594
382.0000,-14.596920
383.0000,-0.889276
384.0000,9.149906
385.0000,-5.706378
386.0000,0.399758
387.0000,15.474259
388.0000,-1.127591
389.0000,-8.379484
390.0000,-8.774753
391.0000,11.147026
392.0000,-0.574222
393.0000,-8.603831
394.0000,-0.009008
395.0000,-3.883752
396.0000,3.653435
397.0000,-0.586159
398.0000,8.611508
399.0000,5.377027
400.0000,-0.671943
401.0000,-12.312028
402.0000,15.041672
403.0000,4.152658
404.0000,-4.578182
405.0000,0.900150
406.0000,5.840021
407.0000,6.664032
408.0000,-5.402964
409.0000,-4.281527
410.0000,6.476991
411.0000,-3.027373
412.0000,5.418057
413.0000,1.757510
414.0000,2.172505
415.0000,-2.137242
416.0000,-0.113556
417.0000,-4.536102
418.0000,4.327373
419.0000,-12.415685
420.0000,-5.420461
421.0000,-3.094996
422.0000,-1.738226
423.0000,-1.826613
424.0000,-1.109366
425.0000,8.606367
426.0000,2.742597
427.0000,-5.219125
428.0000,2.066607
429.0000,-0.207613
430.0000,3.456764
431.0000,0.123287
432.0000,0.327818
433.0000,-8.730498
434.0000,-2.139719
435.0000,0.356938
436.0000,-1.074426
437.0000,-4.499984
438.0000,2.178701
439.0000,4.209033
440.0000,-0.858958
441.0000,-5.786372
442.0000,-7.505339
443.0000,-5.232270
444.0000,2.832061
445.0000,-6.655133
446.0000,-3.980413
447.0000,-3.579582
448.0000,-2.827974
449.0000,-14.441439
450.0000,9.520240
451.0000,2.052049
452.0000,2.092789
453.0000,3.933413
454.0000,6.838735
455.0000,-2.422478
456.0000,3.571608
457.0000,-6.376096
458.0000,-7.144971
459.0000,8.036227
460.0000,0.251431
461.0000,-0.537347
462.0000,-1.036561
463.0000,3.525054
464.0000,4.127686
465.0000,-2.505855
466.0000,-3.563363
467.0000,6.148409
468.0000,0.723826
469.0000,-6.439837
470.0000,0.064959
471.0000,0.126233
472.0000,1.353047
473.0000,-2.848206
474.0000,2.857315
475.0000,0.384201
476.0000,-0.923699
477.0000,7.706050
478.0000,6.592371
479.0000,0.038295
480.0000,2.396670
481.0000,1.216061
482.0000,-1.541887
483.0000,-5.227649
484.0000,3.462976
485.0000,-2.093546
486.0000,-2.103021
487.0000,-3.381894
488.0000,-5.689933
489.0000,-2.263984
490.0000,9.848835
491.0000,4.700202
492.0000,6.323475
493.0000,-3.444230
494.0000,4.348057
495.0000,-3.490249
496.0000,-8.050620
497.0000,-11.378937
498.0000,8.658834
499.0000,-2.209230
500.0000,-1.253153
501.0000,6.535795
502.0000,6.742384
503.0000,-13.537182
504.0000,6.564591
505.0000,2.352129
506.0000,2.109102
507.0000,1.253073
508.0000,-2.073988
509.0000,5.758199
510.0000,1.919823
511.0000,1.095543
512.0000,-4.629806
513.0000,8.333053
514.0000,2.435203
515.0000,-3.640464
516.0000,0.347029
517.0000,5.192165
518.0000,-9.568512
519.0000,-5.345598
520.0000,5.697804
521.0000,4.748966
522.0000,-9.359705
523.0000,-3.891850
524.0000,3.161225
525.0000,-3.370060
526.0000,-2.728851
527.0000,6.448073
528.0000,8.256304
529.0000,-12.210148
530.0000,5.821216
531.0000,4.559078
532.0000,-2.626830
533.0000,3.336176
534.0000,10.577784
535.0000,13.968193
536.0000,5.496697
537.0000,-9.908358
538.0000,8.392221
539.0000,15.534254
540.0000,-5.461522
541.0000,-1.539257
542.0000,0.444632
543.0000,-0.263853
544.0000,-3.233730
545.0000,-9.248812
546.0000,-3.707579
547.0000,13.784840
548.0000,-1.709647
549.0000,-5.642332
550.0000,4.146466
551.0000,-3.524507
552.0000,4.789998
553.0000,1.372930
554.0000,1.139955
555.0000,0.449907
556.0000,-1.532005
557.0000,5.893348
558.0000,-4.520639
559.0000,9.606571
560.0000,4.940145
561.0000,1.095961
562.0000,-10.139375
563.0000,-0.447624
564.0000,7.921011
565.0000,9.354080
566.0000,-1.278262
567.0000,8.838704
568.0000,3.029907
569.0000,-9.638141
570.0000,4.410260
571.0000,-2.915585
572.0000,2.022221
573.0000,10.314414
574.0000,3.097479
575.0000,-0.636410
576.0000,8.270356
577.0000,-8.370506
578.0000,-7.962483
579.0000,5.346863
580.0000,2.525115
581.0000,4.653500
582.0000,7.020013
583.0000,-3.076636
584.0000,3.433350
585.0000,1.193788
586.0000,4.043902
587.0000,6.426261
588.0000,5.848253
589.0000,-1.062109
590.0000,2.584243
591.0000,8.656196
592.0000,8.193723
593.0000,-1.713286
594.0000,-3.282102
595.0000,4.933963
596.0000,-6.013634
597.0000,5.930937
598.0000,9.294868
599.0000,-1.205249
600.0000,14.551257
601.0000,15.702638
602.0000,6.822652
603.0000,6.757182
604.0000,15.743683
605.0000,13.773061
606.0000,12.875981
607.0000,18.395587
608.0000,26.999700
609.0000,8.574884
610.0000,35.896642
611.0000,41.582370
612.0000,43.868635
613.0000,52.011356
614.0000,57.946164
615.0000,87.915844
616.0000,100.837246
617.0000,124.555648
618.0000,153.790738
619.0000,169.006284
620.0000,186.119206
621.0000,169.573615
622.0000,146.565651
623.0000,110.455560
624.0000,102.238282
625.0000,87.458920
626.0000,72.763199
627.0000,59.773980
628.0000,45.570880
629.0000,36.087990
630.0000,27.933385
631.0000,25.658339
632.0000,24.585421
633.0000,17.181462
634.0000,18.882543
635.0000,14.014832
636.0000,14.739290
637.0000,17.623055
638.0000,-3.623923
639.0000,15.867973
640.0000,19.383897
641.0000,4.949774
642.0000,6.596333
643.0000,7.332147
644.0000,7.083977
645.0000,2.688943
646.0000,1.221679
647.0000,3.350821
648.0000,-0.763344
649.0000,-2.394398
650.0000,2.166800
651.0000,3.499467
652.0000,-1.716329
653.0000,10.409818
654.0000,2.998584
655.0000,-2.805217
656.0000,3.047658
657.0000,1.462647
658.0000,2.448719
659.0000,7.422557
660.0000,5.427941
661.0000,-0.725347
662.0000,1.979312
663.0000,7.146479
664.0000,-3.250515
665.0000,3.240873
666.0000,4.512213
667.0000,2.341928
668.0000,1.066265
669.0000,1.029936
670.0000,-0.859858
671.0000,0.062176
672.0000,1.774370
673.0000,16.866976
674.0000,7.938840
675.0000,11.176366
676.0000,0.456805
677.0000,9.362835
678.0000,7.406378
679.0000,4.756992
680.0000,-2.822082
681.0000,-2.580400
682.0000,-10.216770
683.0000,-0.177289
684.0000,9.892989
685.0000,-5.762676
686.0000,4.613352
687.0000,-0.467029
688.0000,1.652249
689.0000,-0.586135
690.0000,1.673647
691.0000,-8.112852
692.0000,3.031913
693.0000,-1.177031
694.0000,-3.333721
695.0000,7.288700
696.0000,2.813954
697.0000,8.523584
698.0000,5.830034
699.0000,17.455071
700.0000,7.110407
701.0000,9.894757
702.0000,10.479929
703.0000,-3.721269
704.0000,-5.383141
705.0000,-5.501389
706.0000,1.486343
707.0000,-2.979850
708.0000,-7.310224
709.0000,11.659055
710.0000,-4.396742
711.0000,-5.085723
712.0000,6.160790
713.0000,-4.306743
714.0000,2.988784
715.0000,1.133818
716.0000,-0.495080
717.0000,5.762206
718.0000,8.612680
719.0000,6.820793
720.0000,-10.298121
721.0000,-2.765928
722.0000,-2.316758
723.0000,2.012149
724.0000,4.806367
725.0000,0.739886
726.0000,-6.536403
727.0000,-4.912989
728.0000,-8.566241
729.0000,-0.327029
730.0000,1.963895
731.0000,4.852477
732.0000,1.362524
733.0000,-3.878797
734.0000,5.096856
735.0000,7.455134
736.0000,10.019829
737.0000,1.216678
738.0000,6.579965
739.0000,18.752112
740.0000,12.386756
741.0000,-3.343091
742.0000,2.179670
743.0000,0.401126
744.0000,-0.033473
745.0000,3.009644
746.0000,-0.638471
747.0000,4.330381
748.0000,6.024379
749.0000,-1.736408
750.0000,0.103520
751.0000,-3.956698
752.0000,1.401940
753.0000,1.813522
754.0000,11.873296
755.0000,-1.187681
756.0000,16.486450
757.0000,7.331286
758.0000,2.189352
759.0000,-6.915756
760.0000,-2.870509
761.0000,4.376579
762.0000,-4.212205
763.0000,9.222779
764.0000,2.307043
765.0000,11.128298
766.0000,-5.427452
767.0000,11.232418
768.0000,11.908855
769.0000,1.244933
770.0000,3.623768
771.0000,1.821365
772.0000,-1.257849
773.0000,4.760161
774.0000,2.304339
775.0000,0.994150
776.0000,12.977911
777.0000,10.104825
778.0000,19.750785
779.0000,18.068343
780.0000,3.871148
781.0000,20.689333
782.0000,14.708039
783.0000,21.454285
784.0000,25.194814
785.0000,25.636991
786.0000,28.366098
787.0000,47.064197
788.0000,28.508315
789.0000,44.100569
790.0000,69.070495
791.0000,68.887537
792.0000,83.460097
793.0000,97.091371
794.0000,100.381060
795.0000,110.418955
796.0000,98.329016
797.0000,83.065987
798.0000,68.839290
799.0000,58.266671
800.0000,67.870370
801.0000,44.104148
802.0000,45.031921
803.0000,37.390150
804.0000,26.089096
805.0000,15.986956
806.0000,18.756127
807.0000,21.807225
808.0000,12.018410
809.0000,8.632692
810.0000,12.991610
811.0000,16.980777
812.0000,11.626773
813.0000,5.155522
814.0000,17.388376
815.0000,8.594641
816.0000,12.018304
817.0000,9.347702
818.0000,9.594144
819.0000,10.640988
820.0000,11.406898
821.0000,6.486328
822.0000,-2.908895
823.0000,5.961987
824.0000,-1.076624
825.0000,9.319330
826.0000,0.496442
827.0000,-2.839632
828.0000,-1.931957
829.0000,-1.119295
830.0000,-4.808499
831.0000,0.559972
832.0000,6.611752
833.0000,5.796371
834.0000,-6.787331
835.0000,1.899315
836.0000,-0.606077
837.0000,-0.849936
838.0000,-3.720510
839.0000,11.733171
840.0000,8.381312
841.0000,1.204899
842.0000,6.534210
843.0000,-4.845864
844.0000,-3.638530
845.0000,-9.867330
846.0000,-1.273348
847.0000,5.144325
848.0000,-0.501972
849.0000,-0.629332
850.0000,-0.260404
851.0000,1.796619
852.0000,13.569121
853.0000,10.370670
854.0000,-2.547982
855.0000,-4.522852
856.0000,-1.983759
857.0000,3.086862
858.0000,7.813996
859.0000,-0.824941
860.0000,-1.822333
861.0000,-3.644483
862.0000,-2.349849
863.0000,-2.843714
864.0000,5.734696
865.0000,-3.013308
866.0000,1.028934
867.0000,4.694678
868.0000,-5.635883
869.0000,-0.947152
870.0000,-9.457824
871.0000,-11.323712
872.0000,10.517196
873.0000,-0.366701
874.0000,-3.475855
875.0000,4.855033
876.0000,1.768395
877.0000,0.577247
878.0000,-15.564414
879.0000,3.267998
880.0000,5.816435
881.0000,9.838177
882.0000,4.136239
883.0000,6.872595
884.0000,-10.245266
885.0000,9.884827
886.0000,3.632565
887.0000,4.371945
888.0000,3.442155
889.0000,2.515808
890.0000,3.837131
891.0000,3.184571
892.0000,-6.892388
893.0000,12.587696
894.0000,-6.504715
895.0000,0.747933
896.0000,-1.852692
897.0000,8.122809
898.0000,-9.729348
899.0000,-8.096881
900.0000,13.392691
901.0000,0.507453
902.0000,-2.882221
903.0000,-3.019313
904.0000,-9.298502
905.0000,-4.985757
906.0000,10.129251
907.0000,1.815525
908.0000,-4.928370
909.0000,9.607145
910.0000,-2.568053
911.0000,-4.543339
912.0000,3.352999
913.0000,-1.085396
914.0000,2.288604
915.0000,10.392493
916.0000,-3.176520
917.0000,-3.886094
918.0000,-16.191510
919.0000,-3.249728
920.0000,-2.259598
921.0000,-6.042847
922.0000,9.754113
923.0000,-13.255210
924.0000,10.519248
925.0000,3.564400
926.0000,6.895220
927.0000,1.144043
928.0000,-1.900442
929.0000,8.048685
930.0000,6.718860
931.0000,1.416103
932.0000,9.661598
933.0000,11.167642
934.0000,-0.115927
935.0000,7.888272
936.0000,5.469583
937.0000,-1.180052
938.0000,7.755255
939.0000,5.674423
940.0000,1.249922
941.0000,6.121379
942.0000,-1.774800
943.0000,-8.501353
944.0000,8.694838
945.0000,10.861876
946.0000,2.970972
947.0000,-0.252001
948.0000,3.391796
949.0000,0.782144
950.0000,4.883386
951.0000,6.843672
952.0000,6.772203
953.0000,8.198387
954.0000,3.507852
955.0000,1.317061
956.0000,10.883585
957.0000,1.082799
958.0000,-0.015449
959.0000,13.875164
960.0000,20.739675
961.0000,11.893997
962.0000,3.763911
963.0000,15.559438
964.0000,1.020756
965.0000,18.217235
966.0000,5.417596
967.0000,2.343328
968.0000,8.941134
969.0000,22.328945
970.0000,3.468480
971.0000,4.794483
972.0000,16.370696
973.0000,12.038258
974.0000,17.580163
975.0000,14.552170
976.0000,15.161282
977.0000,8.778308
978.0000,13.149806
979.0000,23.370490
980.0000,30.513298
981.0000,25.599363
982.0000,25.900637
983.0000,21.843787
984.0000,36.451639
985.0000,44.625962
986.0000,43.221539
987.0000,43.130905
988.0000,57.376404
989.0000,55.869054
990.0000,76.644320
991.0000,93.497066
992.0000,99.761695
993.0000,121.494328
994.0000,161.307762
995.0000,202.535973
996.0000,272.714270
997.0000,371.846322
998.0000,502.946393
999.0000,689.540815
1000.0000,898.555041
1001.0000,1002.203271
1002.0000,893.959760
1003.0000,695.650812
1004.0000,506.931054
1005.0000,369.933160
1006.0000,258.196281
1007.0000,207.181745
1008.0000,168.311114
1009.0000,140.024167
1010.0000,101.886981
1011.0000,108.166813
1012.0000,70.319167
1013.0000,79.846736
1014.0000,58.668030
1015.0000,56.001213
1016.0000,53.071359
1017.0000,67.358395
1018.0000,53.474592
1019.0000,65.095341
1020.0000,60.683394
1021.0000,63.422654
1022.0000,78.409953
1023.0000,95.904385
1024.0000,93.129489
1025.0000,119.437005
1026.0000,148.102180
1027.0000,198.890888
1028.0000,256.494501
1029.0000,330.123351
1030.0000,400.518681
1031.0000,442.842157
1032.0000,389.121797
1033.0000,326.207437
1034.0000,250.070069
1035.0000,194.384273
1036.0000,139.814141
1037.0000,115.976964
1038.0000,80.998221
1039.0000,85.159899
1040.0000,53.647654
1041.0000,54.795330
1042.0000,49.030791
1043.0000,31.168172
1044.0000,43.608634
1045.0000,21.318439
1046.0000,24.631814
1047.0000,22.485615
1048.0000,23.029029
1049.0000,19.298497
1050.0000,26.095741
1051.0000,13.822919
1052.0000,12.720435
1053.0000,22.873162
1054.0000,21.507247
1055.0000,16.618177
1056.0000,3.397685
1057.0000,12.201753
1058.0000,-0.674399
1059.0000,14.744029
1060.0000,4.992994
1061.0000,14.588923
1062.0000,17.789157
1063.0000,15.038816
1064.0000,5.705402
1065.0000,5.805235
1066.0000,10.043168
1067.0000,3.577542
1068.0000,6.583153
1069.0000,12.813845
1070.0000,11.188824
1071.0000,3.492122
1072.0000,-8.309695
1073.0000,12.736899
1074.0000,-2.467229
1075.0000,1.177410
1076.0000,-3.398006
1077.0000,-1.674248
1078.0000,9.853936
1079.0000,4.843681
1080.0000,7.327841
1081.0000,2.780439
1082.0000,-0.639273
1083.0000,-7.175173
1084.0000,8.676062
1085.0000,7.103229
1086.0000,7.204885
1087.0000,-0.828589
1088.0000,6.891620
1089.0000,8.158711
1090.0000,9.615115
1091.0000,1.332855
1092.0000,6.628776
1093.0000,5.304815
1094.0000,-1.209212
1095.0000,6.667207
1096.0000,0.269775
1097.0000,-0.002337
1098.0000,4.311499
1099.0000,3.264495
1100.0000,10.763421
1101.0000,-0.038645
1102.0000,9.831318
1103.0000,13.044796
1104.0000,-1.495467
1105.0000,3.231641
1106.0000,1.187741
1107.0000,8.902625
1108.0000,1.178332
1109.0000,-1.699674
1110.0000,8.737917
1111.0000,3.660135
1112.0000,5.757298
1113.0000,4.039236
1114.0000,10.244448
1115.0000,3.471940
1116.0000,2.469241
1117.0000,-3.212488
1118.0000,1.832525
1119.0000,8.867584
1120.0000,1.270352
1121.0000,1.164462
1122.0000,7.229345
1123.0000,9.561715
1124.0000,9.935028
1125.0000,2.561814
1126.0000,3.115199
1127.0000,-1.693179
1128.0000,9.907288
1129.0000,-2.109451
1130.0000,15.033213
1131.0000,18.934418
1132.0000,7.791113
1133.0000,6.558349
1134.0000,5.585636
1135.0000,10.133185
1136.0000,7.239769
1137.0000,11.857078
1138.0000,13.551873
1139.0000,10.121910
1140.0000,4.630446
1141.0000,26.801243
1142.0000,14.291713
1143.0000,20.363056
1144.0000,25.534417
1145.0000,37.450765
1146.0000,27.992964
1147.0000,49.552917
1148.0000,50.582454
1149.0000,58.022226
1150.0000,70.061391
1151.0000,82.141389
1152.0000,106.082985
1153.0000,125.117422
1154.0000,128.098606
1155.0000,139.876929
1156.0000,136.147334
1157.0000,119.075180
1158.0000,111.129941
1159.0000,85.231129
1160.0000,78.957246
1161.0000,56.291794
1162.0000,60.296138
1163.0000,52.465133
1164.0000,30.975348
1165.0000,42.523471
1166.0000,31.297929
1167.0000,26.598313
1168.0000,32.626689
1169.0000,25.853407
1170.0000,35.717522
1171.0000,38.086818
1172.0000,26.316881
1173.0000,35.861281
1174.0000,30.098568
1175.0000,38.964992
1176.0000,50.955759
1177.0000,52.419191
1178.0000,55.039500
1179.0000,66.301156
1180.0000,92.286494
1181.0000,106.075199
1182.0000,112.727244
1183.0000,132.088232
1184.0000,112.625670
1185.0000,95.371337
1186.0000,81.812296
1187.0000,65.045482
1188.0000,54.335204
1189.0000,52.042590
1190.0000,40.117467
1191.0000,25.617039
1192.0000,33.772424
1193.0000,25.912420
1194.0000,21.226982
1195.0000,7.419440
1196.0000,20.037704
1197.0000,23.563999
1198.0000,5.091804
1199.0000,7.146465
1200.0000,8.046726
1201.0000,2.694180
1202.0000,17.438419
1203.0000,19.468619
1204.0000,18.045457
1205.0000,7.906993
1206.0000,11.118917
1207.0000,2.832581
1208.0000,18.583934
1209.0000,2.814724
1210.0000,14.706461
1211.0000,-8.835464
1212.0000,-3.344617
1213.0000,3.832209
1214.0000,8.055458
1215.0000,6.087642
1216.0000,-0.945340
1217.0000,5.312835
1218.0000,-10.087835
1219.0000,0.149633
1220.0000,4.105530
1221.0000,1.905759
1222.0000,-1.943883
1223.0000,-1.192333
1224.0000,9.179290
1225.0000,6.742787
1226.0000,-3.700040
1227.0000,-6.380183
1228.0000,12.280210
1229.0000,6.717267
1230.0000,-9.248486
1231.0000,-6.401974
1232.0000,-4.749288
1233.0000,4.755266
1234.0000,-5.919537
1235.0000,2.415160
1236.0000,-1.271219
1237.0000,-3.917506
1238.0000,-2.210537
1239.0000,4.748157
1240.0000,-2.676378
1241.0000,0.776376
1242.0000,5.901699
1243.0000,5.634714
1244.0000,-3.161359
1245.0000,13.296264
1246.0000,-0.266246
1247.0000,-5.081795
1248.0000,6.429737
1249.0000,1.148514
1250.0000,-3.874419
1251.0000,6.699595
1252.0000,2.016149
1253.0000,-11.460817
1254.0000,-2.215975
1255.0000,7.253193
1256.0000,3.316894
1257.0000,-2.985197
1258.0000,8.761899
1259.0000,-5.858923
1260.0000,-4.531610
1261.0000,-0.505124
1262.0000,0.281209
1263.0000,-7.806380
1264.0000,1.413092
1265.0000,-4.402976
1266.0000,6.970644
1267.0000,-1.382098
1268.0000,12.471252
1269.0000,-7.220588
1270.0000,-9.510343
1271.0000,3.688148
1272.0000,-8.990023
1273.0000,2.194942
1274.0000,11.737288
1275.0000,2.771889
1276.0000,0.665457
1277.0000,7.331554
1278.0000,7.754357
1279.0000,-5.669022
1280.0000,-0.973800
1281.0000,5.734901
1282.0000,-5.338722
1283.0000,-13.458778
1284.0000,-6.399231
1285.0000,7.354481
1286.0000,-7.923487
1287.0000,-1.742495
1288.0000,13.542360
1289.0000,1.919081
1290.0000,-4.658293
1291.0000,3.632861
1292.0000,13.138009
1293.0000,1.062718
1294.0000,-10.697431
1295.0000,-1.205090
1296.0000,-2.239258
1297.0000,4.268831
1298.0000,-3.483463
1299.0000,3.531578
1300.0000,4.115235
1301.0000,1.066596
1302.0000,0.435749
1303.0000,12.359208
1304.0000,3.130416
1305.0000,-1.527130
1306.0000,-1.920255
1307.0000,-0.039536
1308.0000,11.837827
1309.0000,0.229475
1310.0000,1.891270
1311.0000,-4.705231
1312.0000,0.401177
1313.0000,7.832478
1314.0000,10.795290
1315.0000,3.624204
1316.0000,-3.999119
1317.0000,-2.275106
1318.0000,8.366183
1319.0000,-2.590397
1320.0000,-2.897969
1321.0000,-4.789550
1322.0000,-10.719087
1323.0000,16.159124
1324.0000,6.502002
1325.0000,-3.512895
1326.0000,4.653016
1327.0000,3.685395
1328.0000,8.004206
1329.0000,-13.294595
1330.0000,8.990141
1331.0000,-2.285342
1332.0000,11.800567
1333.0000,0.270026
1334.0000,-1.858420
1335.0000,1.798930
1336.0000,-8.546757
1337.0000,12.774027
1338.0000,13.395370
1339.0000,1.606242
1340.0000,0.087934
1341.0000,14.731804
1342.0000,-5.717849
1343.0000,4.239700
1344.0000,2.485505
1345.0000,7.934670
1346.0000,-4.607310
1347.0000,10.027484
1348.0000,-0.631263
1349.0000,2.485815
1350.0000,9.792714
1351.0000,1.482814
1352.0000,3.392676
1353.0000,4.321709
1354.0000,-0.347870
1355.0000,10.487389
1356.0000,2.391256
1357.0000,-1.615086
1358.0000,-1.307710
1359.0000,0.491041
1360.0000,3.555820
1361.0000,1.772586
1362.0000,-1.088945
1363.0000,9.312961
1364.0000,3.249604
1365.0000,1.761614
1366.0000,2.084755
1367.0000,-4.339933
1368.0000,4.964773
1369.0000,9.333978
1370.0000,8.755854
1371.0000,6.003533
1372.0000,-1.971703
1373.0000,7.700590
1374.0000,3.565873
1375.0000,2.113416
1376.0000,9.228544
1377.0000,-4.052088
1378.0000,10.308735
1379.0000,-5.121044
1380.0000,20.642219
1381.0000,0.486617
1382.0000,6.781078
1383.0000,1.066281
1384.0000,-5.931444
1385.0000,6.663973
1386.0000,0.418519
1387.0000,-3.764280
1388.0000,6.908000
1389.0000,-3.312885
1390.0000,9.935294
1391.0000,-1.128075
1392.0000,-3.393784
1393.0000,9.277346
1394.0000,-0.986687
1395.0000,7.346738
1396.0000,2.035798
1397.0000,10.762335
1398.0000,-6.679189
1399.0000,4.746791
1400.0000,2.955179
1401.0000,13.885727
1402.0000,11.285320
1403.0000,11.506783
1404.0000,9.129153
1405.0000,7.098784
1406.0000,2.783299
1407.0000,4.831518
1408.0000,1.097121
1409.0000,10.453992
1410.0000,3.936994
1411.0000,20.849126
1412.0000,0.415556
1413.0000,16.294380
1414.0000,13.825696
1415.0000,21.700059
1416.0000,10.992405
1417.0000,5.316072
1418.0000,3.192704
1419.0000,11.457300
1420.0000,10.276687
1421.0000,2.935075
1422.0000,9.774666
1423.0000,24.872085
1424.0000,20.171479
1425.0000,12.923349
1426.0000,11.862173
1427.0000,22.704835
1428.0000,17.536743
1429.0000,30.180250
1430.0000,27.339677
1431.0000,23.306331
1432.0000,30.010654
1433.0000,42.974781
1434.0000,40.880944
1435.0000,42.831624
1436.0000,51.249242
1437.0000,48.783733
1438.0000,57.136651
1439.0000,52.557993
1440.0000,80.767969
1441.0000,81.205926
1442.0000,98.376037
1443.0000,113.713280
1444.0000,126.477081
1445.0000,151.373232
1446.0000,170.350515
1447.0000,193.419384
1448.0000,208.540829
1449.0000,215.114620
1450.0000,222.888025
1451.0000,211.935700
1452.0000,196.601025
1453.0000,185.607425
1454.0000,171.111620
1455.0000,138.772505
1456.0000,124.022109
1457.0000,106.815582
1458.0000,95.023993
1459.0000,78.387302
1460.0000,72.433449
1461.0000,51.689267
1462.0000,59.720727
1463.0000,53.312670
1464.0000,48.721556
1465.0000,28.874173
1466.0000,20.960529
1467.0000,22.054269
1468.0000,29.735231
1469.0000,17.897068
1470.0000,28.349173
1471.0000,16.484442
1472.0000,24.752763
1473.0000,12.380048
1474.0000,22.152109
1475.0000,18.883430
1476.0000,21.005974
1477.0000,11.735812
1478.0000,17.068943
1479.0000,15.640962
1480.0000,22.118919
1481.0000,5.938596
1482.0000,13.544976
1483.0000,2.411633
1484.0000,2.958576
1485.0000,7.576380
1486.0000,6.841769
1487.0000,15.436153
1488.0000,4.526255
1489.0000,10.432345
1490.0000,6.922454
1491.0000,18.024614
1492.0000,0.784063
1493.0000,3.472727
1494.0000,15.621637
1495.0000,-2.875670
1496.0000,-6.687874
1497.0000,8.934147
1498.0000,12.165103
1499.0000,8.008817
1500.0000,13.773272
1501.0000,11.390488
1502.0000,13.244853
1503.0000,2.077099
1504.0000,2.886475
1505.0000,6.230751
1506.0000,6.525436
1507.0000,-2.909910
1508.0000,1.683314
1509.0000,8.289812
1510.0000,13.111132
1511.0000,7.135264
1512.0000,2.408148
1513.0000,3.435258
1514.0000,-2.205808
1515.0000,6.350724
1516.0000,-1.505936
1517.0000,3.294023
1518.0000,-5.734617
1519.0000,4.910430
1520.0000,11.213127
1521.0000,13.063460
1522.0000,-2.299281
1523.0000,0.942241
1524.0000,0.017541
1525.0000,9.824608
1526.0000,-2.118906
1527.0000,10.801121
1528.0000,12.202418
1529.0000,10.540904
1530.0000,-0.885946
1531.0000,2.586747
1532.0000,10.727083
1533.0000,8.624163
1534.0000,1.551899
1535.0000,14.136862
1536.0000,8.152823
1537.0000,4.432316
1538.0000,-3.539832
1539.0000,11.588777
1540.0000,-8.492294
1541.0000,6.975685
1542.0000,13.369826
1543.0000,12.557837
1544.0000,9.825733
1545.0000,-3.944075
1546.0000,-0.681764
1547.0000,17.938961
1548.0000,8.331018
1549.0000,0.038951
1550.0000,6.395739
1551.0000,6.976834
1552.0000,8.956392
1553.0000,11.350084
1554.0000,9.230250
1555.0000,12.535679
1556.0000,6.684305
1557.0000,12.577826
1558.0000,17.065326
1559.0000,26.620637
1560.0000,24.447464
1561.0000,8.596414
1562.0000,22.323685
1563.0000,21.844178
1564.0000,17.348572
1565.0000,20.116103
1566.0000,24.595803
1567.0000,34.961199
1568.0000,31.628696
1569.0000,22.356000
1570.0000,34.584087
1571.0000,38.406370
1572.0000,43.360940
1573.0000,53.687406
1574.0000,47.359162
1575.0000,69.020804
1576.0000,90.168228
1577.0000,108.624628
1578.0000,120.431665
1579.0000,140.043955
1580.0000,165.097949
1581.0000,195.804359
1582.0000,212.211242
1583.0000,220.885185
1584.0000,217.665584
1585.0000,203.938721
1586.0000,178.003520
1587.0000,167.664647
1588.0000,145.070376
1589.0000,133.372942
1590.0000,130.173671
1591.0000,117.500745
1592.0000,130.168751
1593.0000,145.611889
1594.0000,157.223324
1595.0000,178.041795
1596.0000,203.515022
1597.0000,266.370691
1598.0000,323.815997
1599.0000,408.517850
1600.0000,521.093554
1601.0000,606.251042
1602.0000,632.077403
1603.0000,593.879037
1604.0000,505.784312
1605.0000,408.729884
1606.0000,319.227988
1607.0000,255.339753
1608.0000,196.183823
1609.0000,158.562112
1610.0000,129.211101
1611.0000,103.615997
1612.0000,91.215832
1613.0000,77.368907
1614.0000,77.827165
1615.0000,56.081752
1616.0000,45.195419
1617.0000,54.959550
1618.0000,39.000506
1619.0000,37.799258
1620.0000,35.218934
1621.0000,35.652056
1622.0000,29.760757
1623.0000,28.579701
1624.0000,18.849892
1625.0000,6.685173
1626.0000,20.446973
1627.0000,17.132139
1628.0000,7.737479
1629.0000,14.232868
1630.0000,17.538134
1631.0000,11.803076
1632.0000,20.501445
1633.0000,12.596201
1634.0000,11.319865
1635.0000,15.327609
1636.0000,4.099548
1637.0000,17.297881
1638.0000,-1.049093
1639.0000,5.475509
1640.0000,11.991684
1641.0000,3.931572
1642.0000,-1.516410
1643.0000,-2.660787
1644.0000,4.750904
1645.0000,7.158614
1646.0000,1.565565
1647.0000,6.387956
1648.0000,8.526518
1649.0000,6.083794
1650.0000,-2.764845
1651.0000,14.638159
1652.0000,16.673693
1653.0000,-5.889844
1654.0000,6.842038
1655.0000,14.764310
1656.0000,2.406999
1657.0000,3.999733
1658.0000,3.149757
1659.0000,8.723800
1660.0000,6.311354
1661.0000,0.085638
1662.0000,5.602328
1663.0000,4.738254
1664.0000,0.597310
1665.0000,1.017662
1666.0000,-6.677843
1667.0000,0.737204
1668.0000,4.617566
1669.0000,6.248854
1670.0000,-0.232146
1671.0000,-0.455430
1672.0000,1.366497
1673.0000,7.207726
1674.0000,10.065313
1675.0000,5.383206
1676.0000,6.025988
1677.0000,-0.394177
1678.0000,3.357900
1679.0000,-1.464430
1680.0000,-4.164865
1681.0000,14.916909
1682.0000,1.553456
1683.0000,3.589179
1684.0000,-11.783817
1685.0000,0.179659
1686.0000,-8.909225
1687.0000,-3.456838
1688.0000,2.737054
1689.0000,4.385396
1690.0000,3.236429
1691.0000,11.834465
1692.0000,-1.991949
1693.0000,-2.615302
1694.0000,0.630909
1695.0000,-7.098744
1696.0000,7.841047
1697.0000,7.143387
1698.0000,-6.470537
1699.0000,0.412560
1700.0000,-9.253780
1701.0000,6.140240
1702.0000,13.518522
1703.0000,10.143135
1704.0000,3.441367
1705.0000,9.254010
1706.0000,0.509168
1707.0000,5.038712
1708.0000,2.400972
1709.0000,9.986677
1710.0000,0.185746
1711.0000,-0.352521
1712.0000,2.471411
1713.0000,13.522866
1714.0000,-3.439851
1715.0000,15.232541
1716.0000,5.742597
1717.0000,6.250443
1718.0000,-4.122100
1719.0000,-4.995160
1720.0000,-2.022317
1721.0000,-0.895565
1722.0000,-5.220322
1723.0000,1.593801
1724.0000,9.832845
1725.0000,-0.771904
1726.0000,3.026699
1727.0000,-8.615965
1728.0000,-5.816669
1729.0000,-1.116660
1730.0000,3.462489
1731.0000,-7.058525
1732.0000,0.306337
1733.0000,-5.444482
1734.0000,2.769031
1735.0000,-2.742959
1736.0000,-9.396136
1737.0000,11.653461
1738.0000,-2.936138
1739.0000,-8.467299
1740.0000,2.035865
1741.0000,-4.702103
1742.0000,4.749878
1743.0000,-5.714066
1744.0000,0.681414
1745.0000,6.217777
1746.0000,-1.462158
1747.0000,-6.435748
1748.0000,-1.624429
1749.0000,9.026086
1750.0000,6.353345
1751.0000,5.180935
1752.0000,13.005070
1753.0000,-2.017125
1754.0000,-6.916008
1755.0000,-3.799057
1756.0000,8.856799
1757.0000,-3.770006
1758.0000,0.105202
1759.0000,2.129380
1760.0000,-3.186990
1761.0000,-0.587276
1762.0000,10.139534
1763.0000,-0.887669
1764.0000,-8.705066
1765.0000,0.955253
1766.0000,-1.960248
1767.0000,-13.739774
1768.0000,-4.537479
1769.0000,1.143025
1770.0000,-2.421724
1771.0000,-5.174530
1772.0000,-8.269724
1773.0000,8.341451
1774.0000,0.004467
1775.0000,-3.805765
1776.0000,0.223407
1777.0000,4.394775
1778.0000,2.484392
1779.0000,1.017213
1780.0000,-2.335210
1781.0000,0.393032
1782.0000,2.253399
1783.0000,-0.320101
1784.0000,2.678165
1785.0000,0.112361
1786.0000,-3.100757
1787.0000,-0.981198
1788.0000,-10.754162
1789.0000,6.111571
1790.0000,-4.755399
1791.0000,4.078927
1792.0000,-6.349638
1793.0000,-8.069543
1794.0000,-7.160179
1795.0000,-5.050723
1796.0000,1.308217
1797.0000,2.699771
1798.0000,-4.180487
1799.0000,-7.243113
1800.0000,-7.676971
1801.0000,1.981919
1802.0000,-2.745711
1803.0000,6.290983
1804.0000,-9.226981
1805.0000,-0.736460
1806.0000,-0.126075
1807.0000,7.536819
1808.0000,5.703231
1809.0000,4.745555
1810.0000,-4.863991
1811.0000,-4.480837
1812.0000,4.007279
1813.0000,-7.442275
1814.0000,1.233831
1815.0000,-0.170481
1816.0000,5.622988
1817.0000,-6.266470
1818.0000,-7.985091
1819.0000,4.530953
1820.0000,4.688137
1821.0000,-2.941636
1822.0000,13.712371
1823.0000,4.390526
1824.0000,-5.371606
1825.0000,1.053812
1826.0000,16.538159
1827.0000,-9.233479
1828.0000,8.151125
1829.0000,-1.881000
1830.0000,-0.070360
1831.0000,-4.128996
1832.0000,-2.207256
1833.0000,0.169212
1834.0000,-2.812136
1835.0000,12.316320
1836.0000,2.664812
1837.0000,7.551538
1838.0000,-3.133791
1839.0000,3.758256
1840.0000,-0.604442
1841.0000,3.305104
1842.0000,17.246409
1843.0000,2.621101
1844.0000,-4.240725
1845.0000,-0.638303
1846.0000,-7.967773
1847.0000,9.018906
1848.0000,-1.620741
1849.0000,-10.524384
1850.0000,9.542871
1851.0000,-5.008699
1852.0000,5.716811
1853.0000,4.895247
1854.0000,1.920663
1855.0000,-8.025516
1856.0000,2.615399
1857.0000,0.096634
1858.0000,-1.128119
1859.0000,-11.694232
1860.0000,-6.442304
1861.0000,-7.162004
1862.0000,2.687055
1863.0000,-5.965831
1864.0000,1.192688
1865.0000,-4.290038
1866.0000,-9.619521
1867.0000,1.790879
1868.0000,2.318837
1869.0000,-4.628129
1870.0000,-8.153522
1871.0000,5.415591
1872.0000,2.125862
1873.0000,5.880167
1874.0000,3.087562
1875.0000,-3.805996
1876.0000,-6.118080
1877.0000,-6.897568
1878.0000,-9.509555
1879.0000,1.390581
1880.0000,5.310807
1881.0000,-2.364463
1882.0000,10.260469
1883.0000,-4.859108
1884.0000,-9.184824
1885.0000,-6.036987
1886.0000,2.732978
1887.0000,-0.500411
1888.0000,5.204762
1889.0000,-1.280962
1890.0000,-0.979245
1891.0000,1.635921
1892.0000,3.777405
1893.0000,5.212313
1894.0000,-0.670812
1895.0000,3.783468
1896.0000,-1.601957
1897.0000,-2.749340
1898.0000,-5.641795
1899.0000,-8.602474
1900.0000,-6.262392
1901.0000,-2.783552
1902.0000,6.373711
1903.0000,-11.990087
1904.0000,-7.959811
1905.0000,-4.850966
1906.0000,3.676627
1907.0000,6.029379
1908.0000,5.015739
1909.0000,-2.359673
1910.0000,1.684999
1911.0000,6.845268
1912.0000,5.915609
1913.0000,0.884171
1914.0000,-0.542873
1915.0000,4.167739
1916.0000,9.633066
1917.0000,-1.529177
1918.0000,-6.336768
1919.0000,-6.890185
1920.0000,10.994457
1921.0000,13.035374
1922.0000,8.957252
1923.0000,-13.155970
1924.0000,-2.868529
1925.0000,-6.700800
1926.0000,10.796136
1927.0000,-3.350880
1928.0000,3.268443
1929.0000,5.632186
1930.0000,-6.492111
1931.0000,-0.596407
1932.0000,6.409548
1933.0000,-5.273054
1934.0000,-5.425793
1935.0000,-1.734151
1936.0000,-9.859151
1937.0000,5.909027
1938.0000,-4.495533
1939.0000,14.025263
1940.0000,-8.976611
1941.0000,-6.466759
1942.0000,-1.671903
1943.0000,-0.688345
1944.0000,-8.696958
1945.0000,10.327157
1946.0000,7.549971
1947.0000,3.315877
1948.0000,-6.207133
1949.0000,2.179488
1950.0000,0.743206
1951.0000,8.694082
1952.0000,1.960604
1953.0000,-0.927468
1954.0000,-0.249721
1955.0000,2.306871
1956.0000,-16.469029
1957.0000,1.791702
1958.0000,-4.711530
1959.0000,2.224857
1960.0000,6.288451
1961.0000,-13.392702
1962.0000,7.174635
1963.0000,-0.441206
1964.0000,-4.110634
1965.0000,-5.221042
1966.0000,-2.910220
1967.0000,2.117112
1968.0000,-3.415744
1969.0000,-8.284568
1970.0000,4.601895
1971.0000,-6.622853
1972.0000,9.687317
1973.0000,1.075374
1974.0000,-3.017071
1975.0000,-2.480481
1976.0000,-7.729829
1977.0000,-2.683048
1978.0000,13.346002
1979.0000,-3.994004
1980.0000,-8.705925
1981.0000,0.938053
1982.0000,10.785165
1983.0000,4.942945
1984.0000,11.518654
1985.0000,-0.982990
1986.0000,-4.438894
1987.0000,1.629228
1988.0000,2.841307
1989.0000,9.794660
1990.0000,6.298058
1991.0000,-3.364354
1992.0000,4.948394
1993.0000,10.957907
1994.0000,0.367664
1995.0000,3.371717
1996.0000,-3.716124
1997.0000,-2.627270
1998.0000,0.041652
1999.0000,-3.232337
2000.0000,3.415403
