raman_shift_cm-1,intensity
200.0000,1.043874
201.0000,-0.943404
202.0000,-4.493293
203.0000,6.651937
204.0000,-4.277906
205.0000,-1.874888
206.0000,-2.005872
207.0000,-2.107989
208.0000,16.873763
209.0000,2.499963
210.0000,6.261827
211.0000,5.899939
212.0000,9.647944
213.0000,-1.247656
214.0000,0.315439
215.0000,-2.583036
216.0000,2.542926
217.0000,5.711691
218.0000,8.830027
219.0000,-0.595438
220.0000,15.576895
221.0000,0.305667
222.0000,5.072955
223.0000,2.288324
224.0000,9.533589
225.0000,0.745147
226.0000,8.890142
227.0000,-0.486138
228.0000,9.286602
229.0000,-0.557631
230.0000,10.046114
231.0000,-7.317376
232.0000,1.444148
233.0000,0.978384
234.0000,-2.521574
235.0000,3.412110
236.0000,2.160271
237.0000,-3.868355
238.0000,-2.086594
239.0000,-7.299556
240.0000,-3.793601
241.0000,-11.637103
242.0000,-6.200691
243.0000,0.274784
244.0000,1.378831
245.0000,9.065500
246.0000,-7.334121
247.0000,-9.877133
248.0000,9.481557
249.0000,-9.509212
250.0000,6.805894
251.0000,-1.119632
252.0000,8.451043
253.0000,-3.190941
254.0000,13.385384
255.0000,-0.421223
256.0000,-0.556833
257.0000,4.098377
258.0000,0.694766
259.0000,6.493503
260.0000,1.943531
261.0000,1.609958
262.0000,2.134983
263.0000,2.711612
264.0000,-3.248708
265.0000,-1.545984
266.0000,5.061192
267.0000,-3.198350
268.0000,18.026804
269.0000,-7.846511
270.0000,2.431094
271.0000,5.094603
272.0000,7.794989
273.0000,-2.203680
274.0000,-2.537135
275.0000,6.257426
276.0000,3.093171
277.0000,2.809634
278.0000,-13.669376
279.0000,-7.457041
280.0000,7.758957
281.0000,4.178027
282.0000,9.139226
283.0000,3.154315
284.0000,-4.232062
285.0000,1.370242
286.0000,-0.785485
287.0000,-5.441002
288.0000,4.966424
289.0000,-1.235716
290.0000,-10.149555
291.0000,-4.937202
292.0000,-0.655749
293.0000,-0.650251
294.0000,5.566902
295.0000,-4.384446
296.0000,-4.108792
297.0000,6.318511
298.0000,-3.532601
299.0000,4.030509
300.0000,-0.996797
301.0000,-2.287766
302.0000,-0.558319
303.0000,-4.022964
304.0000,-5.530851
305.0000,1.499882
306.0000,-2.482646
307.0000,-2.351893
308.0000,0.638795
309.0000,0.786812
310.0000,-5.473564
311.0000,3.725828
312.0000,-2.071203
313.0000,6.800075
314.0000,2.216945
315.0000,6.581306
316.0000,0.629778
317.0000,2.451412
318.0000,1.829707
319.0000,8.683389
320.0000,-4.141126
321.0000,-0.438498
322.0000,-5.864378
323.0000,-1.701770
324.0000,14.290063
325.0000,0.783087
326.0000,9.931055
327.0000,2.159199
328.0000,-10.130630
329.0000,-5.256071
330.0000,-5.208711
331.0000,8.676956
332.0000,-0.563766
333.0000,8.534006
334.0000,-4.877885
335.0000,-1.856819
336.0000,2.865565
337.0000,3.673860
338.0000,-1.293560
339.0000,4.723351
340.0000,1.156412
341.0000,2.767103
342.0000,-5.427804
343.0000,3.571604
344.0000,3.746506
345.0000,4.069627
346.0000,-0.724092
347.0000,5.598088
348.0000,-1.035656
349.0000,-4.166822
350.0000,-2.197222
351.0000,-3.367236
352.0000,-0.209603
353.0000,-5.262722
354.0000,-4.747714
355.0000,3.235200
356.0000,-3.844479
357.0000,-0.788216
358.0000,-10.274601
359.0000,-4.880032
360.0000,2.241583
361.0000,3.194637
362.0000,-2.573269
363.0000,-1.284585
364.0000,0.019490
365.0000,-4.701907
366.0000,-8.817302
367.0000,-0.228230
368.0000,0.732269
369.0000,6.943422
370.0000,-2.374393
371.0000,-9.980366
372.0000,-8.208138
373.0000,-2.459915
374.0000,-2.998684
375.0000,-3.633893
376.0000,15.651818
377.0000,-0.990164
378.0000,-1.275166
379.0000,-1.242382
380.0000,6.398007
381.0000,0.883609
382.0000,9.116690
383.0000,-1.777864
384.0000,-1.024639
385.0000,9.028162
386.0000,2.768934
387.0000,0.904684
388.0000,-1.949605
389.0000,5.320615
390.0000,3.721053
391.0000,-5.272326
392.0000,-1.568410
393.0000,0.142253
394.0000,1.348057
395.0000,-3.909004
396.0000,6.184506
397.0000,0.663313
398.0000,-0.227974
399.0000,-3.843239
400.0000,-2.498554
401.0000,1.030567
402.0000,-9.940756
403.0000,12.991893
404.0000,-5.537901
405.0000,-7.152798
406.0000,-10.137811
407.0000,-1.619816
408.0000,-13.208287
409.0000,-5.471926
410.0000,-2.742200
411.0000,1.246338
412.0000,-0.116728
413.0000,3.020299
414.0000,-1.359068
415.0000,-7.045245
416.0000,0.563566
417.0000,0.352725
418.0000,-0.806428
419.0000,-3.906731
420.0000,-0.456581
421.0000,2.794759
422.0000,-0.806345
423.0000,-11.314087
424.0000,1.856337
425.0000,-2.025213
426.0000,-8.548791
427.0000,-2.013404
428.0000,-0.994233
429.0000,-2.496496
430.0000,6.265101
431.0000,1.773322
432.0000,2.322864
433.0000,-11.377874
434.0000,5.732300
435.0000,2.359898
436.0000,-1.663121
437.0000,-1.703888
438.0000,1.865053
439.0000,-4.734073
440.0000,-0.494057
441.0000,-0.361247
442.0000,-0.391599
443.0000,8.957468
444.0000,-3.290580
445.0000,-2.106146
446.0000,1.379707
447.0000,-3.577724
448.0000,1.369436
449.0000,4.630904
450.0000,-2.739361
451.0000,-2.708519
452.0000,-0.070337
453.0000,-0.776634
454.0000,-5.853882
455.0000,-4.563709
456.0000,-2.216982
457.0000,1.197901
458.0000,-6.121578
459.0000,8.448629
460.0000,3.033614
461.0000,6.705788
462.0000,4.693869
463.0000,0.668746
464.0000,-4.625931
465.0000,6.277741
466.0000,-1.669549
467.0000,6.703530
468.0000,-3.293481
469.0000,8.290301
470.0000,-5.200052
471.0000,-5.223591
472.0000,3.831465
473.0000,-6.156355
474.0000,8.983691
475.0000,-0.834940
476.0000,8.093879
477.0000,7.979196
478.0000,-3.901045
479.0000,1.802749
480.0000,4.199884
481.0000,-14.740821
482.0000,-5.094113
483.0000,7.164056
484.0000,3.763798
485.0000,-0.994465
486.0000,3.290582
487.0000,-9.022135
488.0000,4.174245
489.0000,7.483410
490.0000,-4.830005
491.0000,4.569306
492.0000,-10.896882
493.0000,2.352967
494.0000,-2.462682
495.0000,-1.121514
496.0000,-3.947851
497.0000,6.744231
498.0000,-10.901758
499.0000,-4.332383
500.0000,3.868468
501.0000,-9.829661
502.0000,8.945812
503.0000,12.100179
504.0000,2.853321
505.0000,7.254297
506.0000,0.243967
507.0000,-6.250486
508.0000,-5.188257
509.0000,8.907496
510.0000,2.371040
511.0000,3.940855
512.0000,-4.828688
513.0000,-4.251525
514.0000,4.664714
515.0000,-0.383735
516.0000,3.481405
517.0000,-4.457627
518.0000,-4.819875
519.0000,1.062162
520.0000,-7.154318
521.0000,-2.167057
522.0000,-5.020707
523.0000,6.612157
524.0000,1.417057
525.0000,5.809079
526.0000,0.557434
527.0000,-7.045947
528.0000,6.622413
529.0000,1.557985
530.0000,-6.845869
531.0000,4.148983
532.0000,2.639071
533.0000,-4.597417
534.0000,-3.192606
535.0000,3.088845
536.0000,4.064058
537.0000,-0.429686
538.0000,2.354280
539.0000,6.621995
540.0000,-0.260505
541.0000,-8.184089
542.0000,5.322784
543.0000,-1.558370
544.0000,-1.419299
545.0000,-0.400814
546.0000,-16.500015
547.0000,5.001919
548.0000,1.396186
549.0000,-2.925679
550.0000,4.651475
551.0000,-3.553221
552.0000,-9.627088
553.0000,13.711300
554.0000,1.395523
555.0000,2.545726
556.0000,-3.007961
557.0000,-1.550410
558.0000,-7.942954
559.0000,1.784889
560.0000,2.174887
561.0000,2.990629
562.0000,1.518217
563.0000,8.050342
564.0000,-3.552995
565.0000,-0.505118
566.0000,-1.212407
567.0000,2.199029
568.0000,2.299789
569.0000,-5.116014
570.0000,8.817860
571.0000,-6.046530
572.0000,5.919635
573.0000,2.797596
574.0000,-6.350244
575.0000,-0.138152
576.0000,4.174613
577.0000,-11.111986
578.0000,6.218672
579.0000,9.750322
580.0000,-1.017459
581.0000,5.913249
582.0000,4.994077
583.0000,3.607220
584.0000,-4.335713
585.0000,9.962717
586.0000,-2.418265
587.0000,3.234435
588.0000,-3.491797
589.0000,-2.666481
590.0000,4.564342
591.0000,10.027083
592.0000,1.929090
593.0000,4.431930
594.0000,12.811037
595.0000,-4.610673
596.0000,6.134848
597.0000,4.055777
598.0000,6.963544
599.0000,8.401407
600.0000,13.242073
601.0000,2.085311
602.0000,-0.992395
603.0000,13.465122
604.0000,15.351585
605.0000,21.195116
606.0000,10.645104
607.0000,20.213662
608.0000,22.164391
609.0000,25.938828
610.0000,27.637980
611.0000,32.947454
612.0000,43.327479
613.0000,54.150358
614.0000,67.763790
615.0000,82.737186
616.0000,87.844749
617.0000,123.608786
618.0000,154.421312
619.0000,177.214412
620.0000,176.292251
621.0000,175.804815
622.0000,155.222501
623.0000,130.136675
624.0000,94.102625
625.0000,82.428726
626.0000,61.367816
627.0000,60.195253
628.0000,41.097843
629.0000,42.270449
630.0000,33.215131
631.0000,24.987052
632.0000,31.276285
633.0000,17.640621
634.0000,12.818114
635.0000,23.589055
636.0000,15.722897
637.0000,12.190809
638.0000,-0.930092
639.0000,4.387766
640.0000,1.668358
641.0000,6.960029
642.0000,7.102296
643.0000,6.985575
644.0000,16.592780
645.0000,-3.552780
646.0000,5.471966
647.0000,0.579573
648.0000,4.307572
649.0000,2.627415
650.0000,23.319332
651.0000,1.803816
652.0000,-4.587984
653.0000,0.219056
654.0000,5.800479
655.0000,3.157152
656.0000,3.689053
657.0000,4.156104
658.0000,12.499602
659.0000,2.275193
660.0000,-2.076645
661.0000,4.576930
662.0000,9.512313
663.0000,5.695963
664.0000,-8.542667
665.0000,9.908388
666.0000,1.585629
667.0000,-0.056348
668.0000,6.597789
669.0000,-13.626317
670.0000,-4.112621
671.0000,-1.302980
672.0000,1.396268
673.0000,9.265416
674.0000,-4.101056
675.0000,-4.475995
676.0000,13.205414
677.0000,-10.363483
678.0000,-3.379462
679.0000,0.559468
680.0000,7.648264
681.0000,-6.006652
682.0000,7.489981
683.0000,0.916131
684.0000,6.403056
685.0000,6.853240
686.0000,1.514511
687.0000,0.507849
688.0000,-3.097231
689.0000,10.329597
690.0000,4.267616
691.0000,7.713363
692.0000,7.519127
693.0000,-4.294112
694.0000,0.346951
695.0000,1.514638
696.0000,-12.753872
697.0000,10.441280
698.0000,2.943358
699.0000,8.076130
700.0000,2.803970
701.0000,3.290628
702.0000,8.470877
703.0000,1.446510
704.0000,-9.289506
705.0000,-4.018252
706.0000,7.958643
707.0000,-0.806973
708.0000,1.774581
709.0000,2.797880
710.0000,0.029537
711.0000,5.045890
712.0000,-5.951144
713.0000,0.725996
714.0000,0.110307
715.0000,6.581561
716.0000,2.779580
717.0000,0.784481
718.0000,4.817422
719.0000,-0.337085
720.0000,3.902891
721.0000,-7.238701
722.0000,9.088022
723.0000,-3.730515
724.0000,-2.701810
725.0000,3.727109
726.0000,11.410048
727.0000,1.296633
728.0000,3.358531
729.0000,0.600494
730.0000,0.170068
731.0000,4.539792
732.0000,-0.302289
733.0000,-2.446969
734.0000,13.060308
735.0000,-12.327985
736.0000,1.908217
737.0000,9.611143
738.0000,0.931662
739.0000,10.919633
740.0000,8.586858
741.0000,10.323189
742.0000,2.110223
743.0000,-5.159015
744.0000,4.992449
745.0000,6.261720
746.0000,2.571659
747.0000,7.682591
748.0000,-3.226501
749.0000,12.558172
750.0000,-1.865052
751.0000,-1.202992
752.0000,1.056215
753.0000,-6.213215
754.0000,2.388469
755.0000,5.181686
756.0000,13.912790
757.0000,2.851226
758.0000,5.021211
759.0000,2.325366
760.0000,7.570644
761.0000,-0.769904
762.0000,-0.343688
763.0000,1.615421
764.0000,0.788004
765.0000,8.567800
766.0000,8.840700
767.0000,-0.166200
768.0000,8.369109
769.0000,-0.100823
770.0000,5.754066
771.0000,8.331441
772.0000,8.696575
773.0000,4.142219
774.0000,5.751095
775.0000,23.881007
776.0000,8.643622
777.0000,13.052223
778.0000,5.164474
779.0000,14.736276
780.0000,15.412822
781.0000,25.472382
782.0000,6.492917
783.0000,31.029496
784.0000,24.014422
785.0000,30.345329
786.0000,30.807034
787.0000,39.871132
788.0000,41.731932
789.0000,57.926548
790.0000,54.563592
791.0000,69.090408
792.0000,76.598018
793.0000,93.802375
794.0000,90.166150
795.0000,104.118181
796.0000,106.285714
797.0000,91.101565
798.0000,76.935330
799.0000,75.989373
800.0000,61.295672
801.0000,41.360566
802.0000,33.583042
803.0000,29.352119
804.0000,33.735279
805.0000,25.618614
806.0000,23.107957
807.0000,23.103330
808.0000,17.650389
809.0000,9.229024
810.0000,6.150846
811.0000,24.642199
812.0000,23.149738
813.0000,9.743879
814.0000,6.411261
815.0000,10.716389
816.0000,8.074087
817.0000,14.936292
818.0000,6.303049
819.0000,10.868138
820.0000,10.763415
821.0000,5.822069
822.0000,-1.264665
823.0000,11.885079
824.0000,13.774200
825.0000,16.230995
826.0000,8.688369
827.0000,-3.364484
828.0000,9.659858
829.0000,10.203741
830.0000,5.252772
831.0000,7.752368
832.0000,5.861278
833.0000,3.954223
834.0000,2.590329
835.0000,5.781152
836.0000,-6.560636
837.0000,-3.730454
838.0000,0.382685
839.0000,17.342740
840.0000,0.235193
841.0000,1.325970
842.0000,3.578955
843.0000,-5.735760
844.0000,-0.936717
845.0000,4.724148
846.0000,-0.887592
847.0000,-12.606227
848.0000,7.401432
849.0000,-1.518391
850.0000,5.134304
851.0000,2.174007
852.0000,-0.051485
853.0000,-1.897697
854.0000,1.668401
855.0000,5.361249
856.0000,2.810040
857.0000,5.843916
858.0000,9.222494
859.0000,-1.039915
860.0000,-2.832326
861.0000,-10.025783
862.0000,-4.979327
863.0000,5.496088
864.0000,3.688813
865.0000,5.377434
866.0000,4.631112
867.0000,6.228985
868.0000,-1.905305
869.0000,-8.446067
870.0000,-8.777074
871.0000,3.930618
872.0000,-6.557859
873.0000,-5.554437
874.0000,10.539015
875.0000,8.295329
876.0000,3.909831
877.0000,-3.776509
878.0000,5.841085
879.0000,-1.176842
880.0000,-2.136197
881.0000,-3.136791
882.0000,4.424123
883.0000,-3.646652
884.0000,2.339611
885.0000,16.499989
886.0000,2.914713
887.0000,5.548830
888.0000,5.465400
889.0000,4.476717
890.0000,4.926392
891.0000,12.142609
892.0000,1.600776
893.0000,10.348522
894.0000,0.375906
895.0000,4.386626
896.0000,-5.177817
897.0000,8.459265
898.0000,-0.492621
899.0000,0.779678
900.0000,-2.717189
901.0000,9.151025
902.0000,10.132555
903.0000,-6.562231
904.0000,4.232649
905.0000,1.036119
906.0000,-3.701371
907.0000,2.913699
908.0000,2.259665
909.0000,0.790431
910.0000,7.050468
911.0000,4.229977
912.0000,7.318617
913.0000,0.668496
914.0000,-4.598838
915.0000,-4.037392
916.0000,0.518269
917.0000,11.405995
918.0000,0.804623
919.0000,4.267474
920.0000,-0.160447
921.0000,-4.320321
922.0000,-0.999311
923.0000,-3.163025
924.0000,-0.296154
925.0000,23.345545
926.0000,-1.361538
927.0000,2.397461
928.0000,7.097683
929.0000,9.846290
930.0000,2.328725
931.0000,7.376814
932.0000,2.876666
933.0000,-0.886135
934.0000,-0.436524
935.0000,-5.838059
936.0000,1.565752
937.0000,6.201384
938.0000,7.157479
939.0000,-1.031016
940.0000,-1.134184
941.0000,9.818881
942.0000,-0.910718
943.0000,5.982677
944.0000,0.822234
945.0000,11.432482
946.0000,3.748634
947.0000,-0.101154
948.0000,0.969765
949.0000,5.650584
950.0000,3.525703
951.0000,12.734082
952.0000,5.997302
953.0000,-2.047369
954.0000,4.121172
955.0000,2.643244
956.0000,-8.734416
957.0000,10.627854
958.0000,5.612128
959.0000,6.013829
960.0000,2.246021
961.0000,10.250780
962.0000,4.011364
963.0000,16.417827
964.0000,8.360636
965.0000,11.813625
966.0000,14.713497
967.0000,15.649726
968.0000,15.316051
969.0000,5.466758
970.0000,5.549945
971.0000,13.541347
972.0000,10.225181
973.0000,18.266809
974.0000,15.962590
975.0000,20.236349
976.0000,12.415759
977.0000,19.141440
978.0000,17.797663
979.0000,22.735527
980.0000,21.302926
981.0000,27.070474
982.0000,11.514047
983.0000,34.563102
984.0000,35.462463
985.0000,24.963714
986.0000,39.817157
987.0000,33.233541
988.0000,59.461309
989.0000,74.425348
990.0000,70.564161
991.0000,86.260284
992.0000,97.353194
993.0000,124.398599
994.0000,154.302758
995.0000,201.797359
996.0000,261.634667
997.0000,369.323155
998.0000,490.544873
999.0000,686.453868
1000.0000,897.419327
1001.0000,998.717495
1002.0000,906.355340
1003.0000,692.373690
1004.0000,507.582340
1005.0000,361.733719
1006.0000,271.913551
1007.0000,195.727784
1008.0000,148.019021
1009.0000,132.307670
1010.0000,113.991229
1011.0000,98.076659
1012.0000,77.432751
1013.0000,75.770307
1014.0000,75.919784
1015.0000,79.435933
1016.0000,51.280098
1017.0000,57.525912
1018.0000,55.085285
1019.0000,60.343045
1020.0000,57.027031
1021.0000,63.462523
1022.0000,73.563265
1023.0000,84.385738
1024.0000,97.104787
1025.0000,120.973995
1026.0000,145.763942
1027.0000,191.199478
1028.0000,245.350319
1029.0000,327.603473
1030.0000,388.352134
1031.0000,433.378340
1032.0000,396.493068
1033.0000,318.338209
1034.0000,255.142847
1035.0000,193.172636
1036.0000,155.712832
1037.0000,115.367546
1038.0000,94.180048
1039.0000,83.111055
1040.0000,55.734457
1041.0000,58.498132
1042.0000,43.116682
1043.0000,52.936976
1044.0000,32.355424
1045.0000,31.730386
1046.0000,24.977351
1047.0000,23.318706
1048.0000,24.171962
1049.0000,19.335013
1050.0000,15.735828
1051.0000,15.891545
1052.0000,10.439437
1053.0000,10.657478
1054.0000,1.522528
1055.0000,19.880891
1056.0000,6.973036
1057.0000,18.776705
1058.0000,17.928215
1059.0000,13.446494
1060.0000,4.023468
1061.0000,13.486824
1062.0000,9.844389
1063.0000,-5.512177
1064.0000,14.362744
1065.0000,17.810495
1066.0000,5.003527
1067.0000,-0.333914
1068.0000,8.642788
1069.0000,6.121892
1070.0000,6.421631
1071.0000,0.428293
1072.0000,13.806387
1073.0000,5.685619
1074.0000,17.177959
1075.0000,-2.800077
1076.0000,-0.746706
1077.0000,8.864297
1078.0000,6.212567
1079.0000,10.418125
1080.0000,3.229366
1081.0000,11.028394
1082.0000,-3.332135
1083.0000,8.486066
1084.0000,8.841564
1085.0000,0.127414
1086.0000,-1.492133
1087.0000,3.683131
1088.0000,3.292784
1089.0000,4.893045
1090.0000,7.125951
1091.0000,2.606905
1092.0000,13.113149
1093.0000,4.057353
1094.0000,-6.127775
1095.0000,8.544908
1096.0000,-8.137265
1097.0000,5.990790
1098.0000,8.550913
1099.0000,-2.368370
1100.0000,2.939727
1101.0000,-6.510077
1102.0000,-2.164830
1103.0000,-6.374794
1104.0000,-0.241172
1105.0000,10.918054
1106.0000,-4.872792
1107.0000,11.391680
1108.0000,5.500976
1109.0000,6.235594
1110.0000,3.968574
1111.0000,10.287239
1112.0000,10.162669
1113.0000,2.401759
1114.0000,3.965617
1115.0000,13.120040
1116.0000,17.371246
1117.0000,6.145528
1118.0000,14.775739
1119.0000,2.465948
1120.0000,5.450951
1121.0000,8.672828
1122.0000,8.229544
1123.0000,15.530373
1124.0000,5.517836
1125.0000,3.378747
1126.0000,3.292022
1127.0000,8.899430
1128.0000,15.573846
1129.0000,7.386428
1130.0000,-10.018251
1131.0000,-2.404257
1132.0000,2.437339
1133.0000,9.269128
1134.0000,14.098268
1135.0000,19.572506
1136.0000,20.476874
1137.0000,-0.042175
1138.0000,16.578191
1139.0000,8.290325
1140.0000,6.824822
1141.0000,23.426416
1142.0000,15.918930
1143.0000,21.254944
1144.0000,24.676091
1145.0000,37.111925
1146.0000,34.791155
1147.0000,45.870892
1148.0000,46.916799
1149.0000,68.469732
1150.0000,81.118887
1151.0000,89.782784
1152.0000,109.340752
1153.0000,127.621141
1154.0000,133.429480
1155.0000,137.881711
1156.0000,142.811744
1157.0000,126.327112
1158.0000,109.981614
1159.0000,85.740113
1160.0000,80.533800
1161.0000,62.061888
1162.0000,54.362546
1163.0000,51.922445
1164.0000,44.206836
1165.0000,40.873815
1166.0000,33.547064
1167.0000,33.550466
1168.0000,26.209762
1169.0000,28.267306
1170.0000,35.393371
1171.0000,34.041004
1172.0000,23.008742
1173.0000,36.039175
1174.0000,33.248087
1175.0000,36.691208
1176.0000,46.026529
1177.0000,46.009118
1178.0000,65.084692
1179.0000,79.306818
1180.0000,92.175480
1181.0000,108.844918
1182.0000,127.191912
1183.0000,117.990103
1184.0000,112.949979
1185.0000,102.344066
1186.0000,91.941202
1187.0000,64.389845
1188.0000,57.627435
1189.0000,43.799896
1190.0000,42.992654
1191.0000,33.291504
1192.0000,19.477914
1193.0000,34.114696
1194.0000,28.510699
1195.0000,8.960599
1196.0000,14.101686
1197.0000,5.865109
1198.0000,12.943252
1199.0000,15.795807
1200.0000,11.881213
1201.0000,2.677815
1202.0000,2.172979
1203.0000,-2.583033
1204.0000,14.405558
1205.0000,13.259745
1206.0000,16.533030
1207.0000,13.987403
1208.0000,7.077128
1209.0000,6.402770
1210.0000,13.270296
1211.0000,6.770083
1212.0000,4.903636
1213.0000,1.487000
1214.0000,-3.227505
1215.0000,-3.880288
1216.0000,2.869047
1217.0000,-1.405621
1218.0000,15.864805
1219.0000,8.828127
1220.0000,6.782120
1221.0000,7.325450
1222.0000,10.467609
1223.0000,6.026021
1224.0000,-5.412896
1225.0000,-9.338574
1226.0000,10.003343
1227.0000,-4.239341
1228.0000,-4.010253
1229.0000,-2.188590
1230.0000,4.526376
1231.0000,17.605531
1232.0000,0.280358
1233.0000,-1.633896
1234.0000,6.352661
1235.0000,-1.342573
1236.0000,-0.235677
1237.0000,22.552864
1238.0000,-5.504579
1239.0000,6.648726
1240.0000,3.051172
1241.0000,2.855553
1242.0000,3.453022
1243.0000,-2.803185
1244.0000,7.110810
1245.0000,4.046819
1246.0000,7.508037
1247.0000,2.531864
1248.0000,7.995501
1249.0000,-1.597136
1250.0000,-10.492285
1251.0000,1.904249
1252.0000,-8.898588
1253.0000,-0.604987
1254.0000,3.548500
1255.0000,2.284549
1256.0000,-1.868611
1257.0000,-5.222054
1258.0000,-2.331079
1259.0000,-5.166151
1260.0000,0.323814
1261.0000,-3.465180
1262.0000,5.734543
1263.0000,0.439394
1264.0000,0.268661
1265.0000,4.113890
1266.0000,-13.672519
1267.0000,-6.111814
1268.0000,-8.013437
1269.0000,8.768022
1270.0000,8.349572
1271.0000,2.647234
1272.0000,-1.274093
1273.0000,-3.430777
1274.0000,2.030922
1275.0000,2.349581
1276.0000,4.474444
1277.0000,-13.275424
1278.0000,2.056052
1279.0000,7.396722
1280.0000,-2.555994
1281.0000,6.681783
1282.0000,-0.103295
1283.0000,-1.372666
1284.0000,-3.031151
1285.0000,-2.748295
1286.0000,15.106311
1287.0000,6.763824
1288.0000,5.281045
1289.0000,-2.957223
1290.0000,-5.567505
1291.0000,4.626230
1292.0000,8.663217
1293.0000,-5.235594
1294.0000,4.665901
1295.0000,-2.334793
1296.0000,0.113509
1297.0000,-3.725508
1298.0000,20.791840
1299.0000,-6.333764
1300.0000,1.602882
1301.0000,7.582533
1302.0000,-1.745011
1303.0000,-0.633894
1304.0000,3.234562
1305.0000,4.169927
1306.0000,3.594963
1307.0000,-1.121518
1308.0000,-4.648981
1309.0000,5.869136
1310.0000,-3.823076
1311.0000,6.151060
1312.0000,2.030893
1313.0000,4.294188
1314.0000,-4.059266
1315.0000,-4.012287
1316.0000,-11.288489
1317.0000,-2.567358
1318.0000,1.752340
1319.0000,-4.642311
1320.0000,-11.360539
1321.0000,2.133404
1322.0000,6.843869
1323.0000,1.931436
1324.0000,-2.163057
1325.0000,2.319087
1326.0000,0.899716
1327.0000,-18.700337
1328.0000,-2.599747
1329.0000,3.369446
1330.0000,-1.475762
1331.0000,-5.730006
1332.0000,12.327246
1333.0000,12.549995
1334.0000,4.853677
1335.0000,4.167987
1336.0000,-1.346097
1337.0000,-9.280181
1338.0000,-13.477086
1339.0000,7.141444
1340.0000,2.623831
1341.0000,-2.812708
1342.0000,1.204274
1343.0000,4.422951
1344.0000,8.476625
1345.0000,2.548674
1346.0000,5.664028
1347.0000,-1.973878
1348.0000,-5.644251
1349.0000,3.006738
1350.0000,1.248593
1351.0000,-0.332398
1352.0000,13.435078
1353.0000,-2.434547
1354.0000,-5.693077
1355.0000,0.142049
1356.0000,-5.924094
1357.0000,0.718642
1358.0000,1.683723
1359.0000,-7.924919
1360.0000,5.184573
1361.0000,3.782747
1362.0000,2.461471
1363.0000,4.415998
1364.0000,12.422928
1365.0000,8.721279
1366.0000,7.793690
1367.0000,6.195296
1368.0000,8.579632
1369.0000,-6.826230
1370.0000,-1.809893
1371.0000,1.253286
1372.0000,3.979163
1373.0000,-1.396762
1374.0000,-1.948608
1375.0000,9.195202
1376.0000,7.067301
1377.0000,3.492135
1378.0000,3.889926
1379.0000,6.898150
1380.0000,4.153670
1381.0000,9.016498
1382.0000,1.357776
1383.0000,0.447133
1384.0000,-3.701123
1385.0000,7.585790
1386.0000,-3.245597
1387.0000,-0.959519
1388.0000,9.172260
1389.0000,8.888021
1390.0000,-6.051061
1391.0000,-0.114132
1392.0000,5.791992
1393.0000,10.253372
1394.0000,-0.232641
1395.0000,9.126813
1396.0000,5.503326
1397.0000,13.341858
1398.0000,3.337713
1399.0000,-1.723302
1400.0000,-6.733312
1401.0000,2.629700
1402.0000,1.761273
1403.0000,1.002203
1404.0000,6.736888
1405.0000,-10.954261
1406.0000,11.405356
1407.0000,15.274123
1408.0000,6.600284
1409.0000,14.585907
1410.0000,-1.077654
1411.0000,20.371317
1412.0000,14.288778
1413.0000,17.402044
1414.0000,11.400486
1415.0000,2.322137
1416.0000,11.243217
1417.0000,13.128724
1418.0000,9.785293
1419.0000,8.305123
1420.0000,13.196749
1421.0000,11.418151
1422.0000,13.334930
1423.0000,8.396030
1424.0000,6.885100
1425.0000,23.223706
1426.0000,22.758977
1427.0000,19.737542
1428.0000,28.836372
1429.0000,28.614647
1430.0000,25.018467
1431.0000,16.889212
1432.0000,35.838880
1433.0000,32.042441
1434.0000,48.554515
1435.0000,37.367505
1436.0000,37.548768
1437.0000,51.525042
1438.0000,57.747389
1439.0000,57.673899
1440.0000,65.720582
1441.0000,98.873001
1442.0000,97.272709
1443.0000,120.050323
1444.0000,127.764826
1445.0000,145.877403
1446.0000,177.795850
1447.0000,192.244718
1448.0000,202.633004
1449.0000,218.648408
1450.0000,224.007590
1451.0000,213.180151
1452.0000,199.086089
1453.0000,190.234986
1454.0000,160.962195
1455.0000,149.343579
1456.0000,134.175386
1457.0000,115.003139
1458.0000,82.104527
1459.0000,81.871365
1460.0000,73.430852
1461.0000,57.634385
1462.0000,56.193620
1463.0000,59.994659
1464.0000,46.373196
1465.0000,37.119207
1466.0000,40.547746
1467.0000,18.577283
1468.0000,30.639526
1469.0000,28.273733
1470.0000,20.675860
1471.0000,15.984364
1472.0000,10.996701
1473.0000,23.263307
1474.0000,14.387583
1475.0000,15.734266
1476.0000,16.872303
1477.0000,19.264313
1478.0000,19.499584
1479.0000,17.839066
1480.0000,11.757928
1481.0000,10.539951
1482.0000,2.040994
1483.0000,0.132147
1484.0000,9.667580
1485.0000,-2.151296
1486.0000,9.096792
1487.0000,13.123010
1488.0000,12.956287
1489.0000,14.138929
1490.0000,21.997541
1491.0000,15.973263
1492.0000,-7.495588
1493.0000,8.674431
1494.0000,8.386879
1495.0000,17.058149
1496.0000,5.192635
1497.0000,14.470452
1498.0000,10.931175
1499.0000,4.300420
1500.0000,2.977626
1501.0000,6.260745
1502.0000,13.983929
1503.0000,3.448153
1504.0000,0.701915
1505.0000,-1.920447
1506.0000,-0.194745
1507.0000,5.132961
1508.0000,5.438361
1509.0000,4.117335
1510.0000,11.898645
1511.0000,1.966016
1512.0000,0.722683
1513.0000,-0.597257
1514.0000,11.466809
1515.0000,-4.419272
1516.0000,5.445686
1517.0000,7.462221
1518.0000,1.635050
1519.0000,7.270717
1520.0000,1.974274
1521.0000,8.053166
1522.0000,6.751256
1523.0000,7.713509
1524.0000,10.851912
1525.0000,5.504349
1526.0000,1.752039
1527.0000,4.026502
1528.0000,10.027284
1529.0000,5.163336
1530.0000,3.424171
1531.0000,6.039552
1532.0000,12.178783
1533.0000,-1.263066
1534.0000,2.186804
1535.0000,3.953644
1536.0000,10.684954
1537.0000,13.658789
1538.0000,10.917960
1539.0000,0.113556
1540.0000,10.946587
1541.0000,9.609297
1542.0000,7.095279
1543.0000,4.259495
1544.0000,6.659715
1545.0000,10.685783
1546.0000,5.142391
1547.0000,6.490055
1548.0000,0.234098
1549.0000,13.110720
1550.0000,9.928401
1551.0000,-3.260591
1552.0000,14.351541
1553.0000,12.854137
1554.0000,12.237858
1555.0000,12.496248
1556.0000,6.528417
1557.0000,17.224196
1558.0000,12.004570
1559.0000,8.887533
1560.0000,23.974532
1561.0000,20.072090
1562.0000,11.066932
1563.0000,22.212406
1564.0000,21.417789
1565.0000,16.742274
1566.0000,31.269209
1567.0000,22.058198
1568.0000,28.522627
1569.0000,26.811346
1570.0000,37.434509
1571.0000,39.893907
1572.0000,46.374866
1573.0000,56.816074
1574.0000,58.626959
1575.0000,69.065316
1576.0000,87.907774
1577.0000,96.529337
1578.0000,115.748765
1579.0000,138.494765
1580.0000,167.866569
1581.0000,193.078058
1582.0000,206.968383
1583.0000,211.794301
1584.0000,219.054113
1585.0000,199.799511
1586.0000,189.447095
1587.0000,166.577463
1588.0000,138.288032
1589.0000,123.834138
1590.0000,126.764491
1591.0000,111.984965
1592.0000,131.962250
1593.0000,150.233806
1594.0000,146.359157
1595.0000,179.441302
1596.0000,219.156434
1597.0000,265.917159
1598.0000,328.434500
1599.0000,411.019433
1600.0000,501.918621
1601.0000,589.549457
1602.0000,621.035636
1603.0000,586.718300
1604.0000,500.699989
1605.0000,403.219839
1606.0000,323.578657
1607.0000,255.901201
1608.0000,193.205584
1609.0000,159.628777
1610.0000,129.126788
1611.0000,107.619949
1612.0000,91.227739
1613.0000,84.174545
1614.0000,59.668431
1615.0000,65.309719
1616.0000,55.007367
1617.0000,38.213795
1618.0000,54.180685
1619.0000,39.800199
1620.0000,44.739306
1621.0000,29.554254
1622.0000,30.394521
1623.0000,20.877390
1624.0000,24.639734
1625.0000,13.099121
1626.0000,22.880589
1627.0000,15.933085
1628.0000,21.470262
1629.0000,11.010862
1630.0000,18.965047
1631.0000,10.856625
1632.0000,14.670916
1633.0000,14.818039
1634.0000,4.364660
1635.0000,13.081239
1636.0000,10.501884
1637.0000,0.663962
1638.0000,13.034243
1639.0000,16.645606
1640.0000,10.453526
1641.0000,14.611371
1642.0000,6.171514
1643.0000,6.789189
1644.0000,12.963218
1645.0000,-1.901852
1646.0000,3.639418
1647.0000,4.785770
1648.0000,10.228060
1649.0000,19.452142
1650.0000,-2.886331
1651.0000,8.692574
1652.0000,4.156725
1653.0000,5.642663
1654.0000,5.343998
1655.0000,2.725388
1656.0000,-2.643688
1657.0000,9.852550
1658.0000,10.326845
1659.0000,-8.095234
1660.0000,-3.932837
1661.0000,1.844508
1662.0000,1.276750
1663.0000,1.983383
1664.0000,3.978078
1665.0000,-2.706972
1666.0000,4.852480
1667.0000,4.158174
1668.0000,8.490434
1669.0000,9.279810
1670.0000,0.890555
1671.0000,5.780266
1672.0000,1.449042
1673.0000,7.916705
1674.0000,-0.159198
1675.0000,7.475565
1676.0000,-3.888088
1677.0000,9.682147
1678.0000,11.605596
1679.0000,-2.351361
1680.0000,11.015275
1681.0000,6.263529
1682.0000,0.054820
1683.0000,3.293001
1684.0000,5.465571
1685.0000,-2.642192
1686.0000,0.778639
1687.0000,4.162128
1688.0000,-2.719761
1689.0000,3.468686
1690.0000,0.066947
1691.0000,5.347216
1692.0000,3.359289
1693.0000,1.994727
1694.0000,10.713514
1695.0000,2.202389
1696.0000,-2.037044
1697.0000,6.105921
1698.0000,11.031627
1699.0000,3.224912
1700.0000,0.376957
1701.0000,-6.901402
1702.0000,-0.190584
1703.0000,1.595345
1704.0000,9.812961
1705.0000,4.834258
1706.0000,-6.912720
1707.0000,-1.872166
1708.0000,-3.431675
1709.0000,-6.644964
1710.0000,1.329553
1711.0000,1.580656
1712.0000,5.819365
1713.0000,10.199631
1714.0000,5.650220
1715.0000,-6.880471
1716.0000,6.829412
1717.0000,9.454028
1718.0000,4.473224
1719.0000,6.922980
1720.0000,-4.620563
1721.0000,6.956669
1722.0000,-5.448610
1723.0000,3.356035
1724.0000,-6.906983
1725.0000,4.552294
1726.0000,2.420077
1727.0000,13.523124
1728.0000,-3.429009
1729.0000,-2.119188
1730.0000,1.876440
1731.0000,5.076598
1732.0000,-2.651434
1733.0000,-3.764051
1734.0000,-4.654707
1735.0000,-6.742835
1736.0000,6.438072
1737.0000,5.232086
1738.0000,-6.754365
1739.0000,-6.216550
1740.0000,-7.166224
1741.0000,2.260241
1742.0000,2.760850
1743.0000,9.046189
1744.0000,-10.579620
1745.0000,-9.211284
1746.0000,-0.930955
1747.0000,-18.268293
1748.0000,-0.296046
1749.0000,2.378674
1750.0000,-3.199273
1751.0000,-0.604278
1752.0000,4.986869
1753.0000,-0.251907
1754.0000,-3.827044
1755.0000,4.384191
1756.0000,3.291935
1757.0000,14.687119
1758.0000,-3.703828
1759.0000,-3.121642
1760.0000,1.676693
1761.0000,-2.840213
1762.0000,17.483389
1763.0000,-1.118418
1764.0000,-6.140813
1765.0000,11.379795
1766.0000,-2.577742
1767.0000,3.340151
1768.0000,-2.271290
1769.0000,4.702999
1770.0000,-14.907876
1771.0000,-0.704165
1772.0000,-6.778625
1773.0000,3.980984
1774.0000,9.729961
1775.0000,1.577458
1776.0000,8.375707
1777.0000,1.118371
1778.0000,-2.988628
1779.0000,-3.963553
1780.0000,-2.840624
1781.0000,-8.726123
1782.0000,2.802503
1783.0000,3.613202
1784.0000,-0.581465
1785.0000,9.580016
1786.0000,-2.059142
1787.0000,-4.647367
1788.0000,-1.959028
1789.0000,1.347476
1790.0000,14.668821
1791.0000,-3.566303
1792.0000,4.067872
1793.0000,5.188202
1794.0000,-5.457583
1795.0000,-1.017492
1796.0000,7.023748
1797.0000,1.112516
1798.0000,-4.045934
1799.0000,9.940823
1800.0000,4.138363
1801.0000,7.104950
1802.0000,8.158275
1803.0000,-1.701333
1804.0000,5.636354
1805.0000,4.308972
1806.0000,-13.272997
1807.0000,1.154158
1808.0000,7.805322
1809.0000,4.073183
1810.0000,0.901270
1811.0000,-7.818283
1812.0000,-2.351909
1813.0000,6.649248
1814.0000,-3.230636
1815.0000,10.930531
1816.0000,4.597332
1817.0000,-0.887607
1818.0000,3.870648
1819.0000,6.576675
1820.0000,13.044242
1821.0000,16.868029
1822.0000,3.301803
1823.0000,-5.338131
1824.0000,3.721540
1825.0000,-1.141208
1826.0000,2.689497
1827.0000,-13.165310
1828.0000,-1.604730
1829.0000,-1.398334
1830.0000,1.546873
1831.0000,-0.456145
1832.0000,-4.119428
1833.0000,3.662132
1834.0000,-3.966773
1835.0000,11.459466
1836.0000,6.996785
1837.0000,3.426793
1838.0000,13.304701
1839.0000,5.218932
1840.0000,2.277452
1841.0000,-0.021118
1842.0000,1.171857
1843.0000,0.997802
1844.0000,-8.337082
1845.0000,15.532552
1846.0000,0.031401
1847.0000,2.586625
1848.0000,10.210561
1849.0000,0.661613
1850.0000,-6.328354
1851.0000,-0.060679
1852.0000,2.030021
1853.0000,-6.992729
1854.0000,3.099701
1855.0000,9.237101
1856.0000,0.879772
1857.0000,-3.509672
1858.0000,5.506340
1859.0000,4.087367
1860.0000,-5.155863
1861.0000,-8.039146
1862.0000,-0.753847
1863.0000,3.160961
1864.0000,-5.781218
1865.0000,13.216078
1866.0000,-8.666921
1867.0000,-2.990112
1868.0000,-1.050918
1869.0000,-3.696552
1870.0000,-4.975307
1871.0000,3.089175
1872.0000,9.942765
1873.0000,-3.364367
1874.0000,-5.231310
1875.0000,-13.990195
1876.0000,3.907085
1877.0000,4.323715
1878.0000,1.691217
1879.0000,-7.643575
1880.0000,19.507507
1881.0000,3.269397
1882.0000,6.000127
1883.0000,-4.869293
1884.0000,-8.232743
1885.0000,1.436881
1886.0000,3.806661
1887.0000,-1.868365
1888.0000,3.922431
1889.0000,3.881856
1890.0000,1.596284
1891.0000,-4.543306
1892.0000,6.365465
1893.0000,0.418973
1894.0000,-2.903784
1895.0000,-2.143591
1896.0000,6.614953
1897.0000,11.288286
1898.0000,-4.286724
1899.0000,8.147259
1900.0000,-4.610221
1901.0000,-7.879906
1902.0000,-0.109466
1903.0000,-2.345004
1904.0000,-6.888219
1905.0000,0.913414
1906.0000,-3.533516
1907.0000,6.943866
1908.0000,0.485618
1909.0000,2.498568
1910.0000,-3.889710
1911.0000,7.863512
1912.0000,-3.904374
1913.0000,0.725650
1914.0000,3.402334
1915.0000,5.989268
1916.0000,-7.555083
1917.0000,-12.031909
1918.0000,2.852912
1919.0000,-6.435089
1920.0000,2.919113
1921.0000,-1.809387
1922.0000,-3.154744
1923.0000,2.039872
1924.0000,8.193194
1925.0000,-9.743607
1926.0000,1.771277
1927.0000,8.221459
1928.0000,-9.982021
1929.0000,5.996397
1930.0000,18.110232
1931.0000,9.528478
1932.0000,4.467473
1933.0000,3.281936
1934.0000,-12.089929
1935.0000,5.919901
1936.0000,0.219279
1937.0000,10.529373
1938.0000,5.190105
1939.0000,3.952562
1940.0000,2.491776
1941.0000,-2.568219
1942.0000,5.153270
1943.0000,-9.145956
1944.0000,5.022226
1945.0000,3.670798
1946.0000,-0.183700
1947.0000,0.934614
1948.0000,-8.085540
1949.0000,15.650606
1950.0000,-2.069062
1951.0000,4.336634
1952.0000,-14.321481
1953.0000,5.395663
1954.0000,4.849781
1955.0000,-11.492553
1956.0000,-2.539670
1957.0000,-8.179032
1958.0000,-7.113495
1959.0000,0.136792
1960.0000,-6.282762
1961.0000,1.592439
1962.0000,-3.378879
1963.0000,-0.901665
1964.0000,6.799063
1965.0000,0.838309
1966.0000,-7.514322
1967.0000,6.648667
1968.0000,0.417475
1969.0000,-1.220556
1970.0000,4.207379
1971.0000,-0.846982
1972.0000,4.065582
1973.0000,1.495680
1974.0000,3.218775
1975.0000,-5.875828
1976.0000,3.972563
1977.0000,-3.932368
1978.0000,9.652912
1979.0000,5.540837
1980.0000,5.691011
1981.0000,5.836560
1982.0000,-1.427982
1983.0000,5.971908
1984.0000,13.334030
1985.0000,0.586153
1986.0000,1.190119
1987.0000,6.743363
1988.0000,-13.744428
1989.0000,1.625755
1990.0000,7.249515
1991.0000,-0.270563
1992.0000,10.424706
1993.0000,0.436592
1994.0000,0.554315
1995.0000,-0.383421
1996.0000,-5.766190
1997.0000,-4.480112
1998.0000,-12.229527
1999.0000,8.165075
2000.0000,-10.640261
