raman_shift_cm-1,intensity
200.0000,-9.629203
201.0000,3.574757
202.0000,-6.850323
203.0000,2.193093
204.0000,-2.261975
205.0000,5.758556
206.0000,-4.148101
207.0000,9.809196
208.0000,-6.615861
209.0000,0.623914
210.0000,-6.767186
211.0000,8.340119
212.0000,5.222830
213.0000,-10.752339
214.0000,-3.587448
215.0000,-1.864130
216.0000,-1.156328
217.0000,13.059942
218.0000,3.245948
219.0000,8.880440
220.0000,-4.439712
221.0000,-2.241043
222.0000,9.894332
223.0000,-3.335384
224.0000,9.707671
225.0000,-1.152812
226.0000,-2.943662
227.0000,2.940550
228.0000,-0.007278
229.0000,0.850597
230.0000,16.000409
231.0000,4.435289
232.0000,6.358288
233.0000,1.884613
234.0000,-1.111299
235.0000,-6.314123
236.0000,-9.403161
237.0000,4.911912
238.0000,6.182598
239.0000,-3.874622
240.0000,14.550169
241.0000,0.759141
242.0000,-8.489666
243.0000,-0.130965
244.0000,-0.913844
245.0000,-3.766571
246.0000,-0.803470
247.0000,-2.000865
248.0000,4.284423
249.0000,2.699970
250.0000,-1.349047
251.0000,4.343128
252.0000,-1.856704
253.0000,-8.009460
254.0000,-11.427686
255.0000,-8.762944
256.0000,2.878172
257.0000,-6.843443
258.0000,-1.059644
259.0000,4.606639
260.0000,0.539645
261.0000,-8.387726
262.0000,5.545354
263.0000,15.097977
264.0000,-7.480153
265.0000,6.937557
266.0000,3.235499
267.0000,7.464800
268.0000,-7.469246
269.0000,3.465529
270.0000,-5.368778
271.0000,4.977990
272.0000,1.366534
273.0000,-0.658839
274.0000,-2.786067
275.0000,8.455283
276.0000,-5.528231
277.0000,5.313892
278.0000,-1.173600
279.0000,-1.953290
280.0000,-8.445038
281.0000,3.378868
282.0000,17.681513
283.0000,3.189384
284.0000,9.659310
285.0000,-9.119690
286.0000,2.637349
287.0000,0.420130
288.0000,-0.491367
289.0000,1.169220
290.0000,-1.226601
291.0000,13.793831
292.0000,2.806656
293.0000,3.631272
294.0000,-6.710348
295.0000,-0.411708
296.0000,4.755670
297.0000,-5.504993
298.0000,15.061526
299.0000,4.399313
300.0000,1.419672
301.0000,-3.512043
302.0000,9.867184
303.0000,5.580435
304.0000,0.793533
305.0000,8.905531
306.0000,13.121991
307.0000,-3.814236
308.0000,6.226744
309.0000,5.825800
310.0000,0.103648
311.0000,-1.620820
312.0000,-0.882671
313.0000,-11.908132
314.0000,-5.674152
315.0000,4.466797
316.0000,-4.218561
317.0000,6.633340
318.0000,-2.008162
319.0000,2.090730
320.0000,0.688733
321.0000,-4.305431
322.0000,-2.776577
323.0000,4.871873
324.0000,5.706230
325.0000,3.373732
326.0000,-2.527661
327.0000,-0.487804
328.0000,1.797173
329.0000,8.058163
330.0000,1.136780
331.0000,-2.013849
332.0000,-3.542098
333.0000,-2.691141
334.0000,-7.356071
335.0000,1.602293
336.0000,9.249021
337.0000,6.265778
338.0000,6.769168
339.0000,-12.732262
340.0000,1.814801
341.0000,-2.161422
342.0000,-1.302360
343.0000,0.465128
344.0000,14.042486
345.0000,-9.048768
346.0000,-8.294878
347.0000,-5.750214
348.0000,8.326833
349.0000,-7.867754
350.0000,0.107176
351.0000,2.996200
352.0000,-3.963981
353.0000,-1.899994
354.0000,-2.310356
355.0000,-5.237083
356.0000,-4.356242
357.0000,1.069628
358.0000,5.081158
359.0000,2.119297
360.0000,-13.547500
361.0000,-4.381487
362.0000,-2.029424
363.0000,-6.832931
364.0000,-4.980196
365.0000,6.737181
366.0000,-3.445128
367.0000,1.914524
368.0000,2.343273
369.0000,-3.322573
370.0000,3.866888
371.0000,-9.919077
372.0000,-3.281226
373.0000,-7.126092
374.0000,13.046331
375.0000,0.801045
376.0000,8.403119
377.0000,-1.857068
378.0000,4.946304
379.0000,-3.987721
380.0000,-0.887110
381.0000,-0.711850
382.0000,8.582440
383.0000,-1.002982
384.0000,-2.569073
385.0000,-0.044196
386.0000,4.013819
387.0000,-6.371763
388.0000,0.992440
389.0000,2.629992
390.0000,-10.224382
391.0000,4.269793
392.0000,6.827238
393.0000,6.852773
394.0000,8.325809
395.0000,6.783121
396.0000,0.288472
397.0000,-3.112376
398.0000,-3.978595
399.0000,-1.376896
400.0000,-5.500777
401.0000,1.457339
402.0000,-1.283650
403.0000,-11.153593
404.0000,4.476856
405.0000,-8.393125
406.0000,-3.156889
407.0000,15.755355
408.0000,-5.449754
409.0000,3.280902
410.0000,-2.663598
411.0000,4.070639
412.0000,0.469835
413.0000,4.667861
414.0000,-2.701497
415.0000,-3.452654
416.0000,4.543718
417.0000,2.472497
418.0000,-19.568988
419.0000,2.792054
420.0000,-6.763435
421.0000,6.671389
422.0000,-0.643506
423.0000,-5.777432
424.0000,-8.571344
425.0000,8.656567
426.0000,-1.776049
427.0000,-4.268269
428.0000,-6.863979
429.0000,-3.279082
430.0000,-3.853833
431.0000,0.294722
432.0000,3.089428
433.0000,0.548515
434.0000,1.715464
435.0000,5.442484
436.0000,1.072916
437.0000,-4.147756
438.0000,-9.873147
439.0000,3.632902
440.0000,-1.453633
441.0000,-2.393674
442.0000,4.279653
443.0000,8.654042
444.0000,5.831023
445.0000,2.610605
446.0000,5.433337
447.0000,-6.060261
448.0000,0.279000
449.0000,-0.949786
450.0000,10.253025
451.0000,-5.311270
452.0000,-5.554812
453.0000,4.181566
454.0000,4.921762
455.0000,6.824527
456.0000,3.274115
457.0000,-4.650547
458.0000,2.299140
459.0000,3.866447
460.0000,-3.660603
461.0000,-5.530914
462.0000,8.391695
463.0000,-3.660141
464.0000,1.230762
465.0000,-3.178125
466.0000,9.600952
467.0000,-8.729123
468.0000,2.797594
469.0000,-3.732817
470.0000,-4.648138
471.0000,9.139310
472.0000,8.154323
473.0000,-3.716218
474.0000,-6.664173
475.0000,-4.082614
476.0000,10.531617
477.0000,-11.634900
478.0000,7.853255
479.0000,3.882194
480.0000,1.662425
481.0000,7.988691
482.0000,8.399405
483.0000,0.066015
484.0000,10.577777
485.0000,1.213351
486.0000,12.226414
487.0000,7.707374
488.0000,-6.532980
489.0000,10.182755
490.0000,1.625034
491.0000,-4.435762
492.0000,7.323165
493.0000,3.069581
494.0000,-9.065823
495.0000,-6.779498
496.0000,-11.519182
497.0000,4.647580
498.0000,4.264166
499.0000,-15.317749
500.0000,-0.773761
501.0000,-0.483910
502.0000,-7.493431
503.0000,-11.319172
504.0000,-1.804422
505.0000,-1.873663
506.0000,-4.991789
507.0000,9.959411
508.0000,2.670921
509.0000,2.243689
510.0000,4.019737
511.0000,-12.987735
512.0000,2.795401
513.0000,5.658612
514.0000,-8.224439
515.0000,1.487642
516.0000,-3.287487
517.0000,1.702605
518.0000,-1.411905
519.0000,0.701493
520.0000,-1.722069
521.0000,2.117236
522.0000,6.499448
523.0000,6.107339
524.0000,-2.723062
525.0000,4.640632
526.0000,-6.114799
527.0000,0.514782
528.0000,-1.750092
529.0000,-2.316617
530.0000,0.469064
531.0000,-1.090444
532.0000,2.558791
533.0000,6.266152
534.0000,-2.179773
535.0000,10.673744
536.0000,1.445244
537.0000,5.646492
538.0000,8.483171
539.0000,7.984497
540.0000,2.384151
541.0000,-7.327689
542.0000,8.475216
543.0000,5.650891
544.0000,4.171313
545.0000,7.179311
546.0000,-2.619328
547.0000,5.541662
548.0000,-3.315365
549.0000,5.692031
550.0000,-9.474820
551.0000,9.542185
552.0000,0.880711
553.0000,2.813724
554.0000,1.811860
555.0000,3.147731
556.0000,8.330025
557.0000,-2.979975
558.0000,1.535244
559.0000,1.782513
560.0000,11.006905
561.0000,-7.315229
562.0000,-3.639183
563.0000,1.698335
564.0000,-1.426192
565.0000,8.514239
566.0000,3.512267
567.0000,0.139383
568.0000,3.207443
569.0000,2.951849
570.0000,-2.945119
571.0000,7.707906
572.0000,-12.250182
573.0000,-1.058974
574.0000,1.093290
575.0000,8.241362
576.0000,-7.595188
577.0000,6.645694
578.0000,2.463129
579.0000,-1.737083
580.0000,-3.993723
581.0000,-0.490656
582.0000,9.027549
583.0000,6.693765
584.0000,-0.679750
585.0000,2.990796
586.0000,7.027552
587.0000,4.872227
588.0000,-2.685830
589.0000,-2.677076
590.0000,-1.076616
591.0000,3.771311
592.0000,10.670482
593.0000,4.469385
594.0000,2.844130
595.0000,-0.715947
596.0000,4.248379
597.0000,2.120997
598.0000,10.078735
599.0000,13.312205
600.0000,3.792692
601.0000,11.787466
602.0000,19.779480
603.0000,12.941416
604.0000,17.078770
605.0000,22.810081
606.0000,20.466744
607.0000,14.834780
608.0000,28.161817
609.0000,25.432283
610.0000,15.761106
611.0000,34.424200
612.0000,53.641764
613.0000,51.001215
614.0000,66.807646
615.0000,81.975248
616.0000,97.446712
617.0000,121.890738
618.0000,141.670741
619.0000,178.901077
620.0000,171.318234
621.0000,172.467456
622.0000,161.706696
623.0000,118.837695
624.0000,102.487531
625.0000,94.068400
626.0000,71.795077
627.0000,51.268680
628.0000,39.977199
629.0000,44.474340
630.0000,34.958048
631.0000,22.729042
632.0000,25.548565
633.0000,26.530777
634.0000,16.536801
635.0000,19.382060
636.0000,14.316159
637.0000,4.722769
638.0000,17.831639
639.0000,4.042186
640.0000,-1.403237
641.0000,15.217846
642.0000,9.822492
643.0000,10.386182
644.0000,7.342142
645.0000,0.746896
646.0000,6.452260
647.0000,3.683837
648.0000,5.455447
649.0000,13.252964
650.0000,4.481338
651.0000,8.758054
652.0000,-0.495910
653.0000,-7.937910
654.0000,0.205820
655.0000,7.078875
656.0000,5.458793
657.0000,-9.247220
658.0000,-20.642712
659.0000,13.027360
660.0000,11.279522
661.0000,6.298340
662.0000,6.587993
663.0000,13.160575
664.0000,2.739138
665.0000,10.826754
666.0000,-1.994694
667.0000,0.561630
668.0000,-3.356752
669.0000,-0.543686
670.0000,-1.606098
671.0000,-6.577279
672.0000,-1.004474
673.0000,-11.645894
674.0000,-1.360569
675.0000,-0.834647
676.0000,-7.447109
677.0000,-1.613225
678.0000,-2.853109
679.0000,2.307223
680.0000,-6.810270
681.0000,1.974535
682.0000,-0.216910
683.0000,1.354621
684.0000,7.136008
685.0000,6.459416
686.0000,1.871637
687.0000,3.469772
688.0000,2.155169
689.0000,10.768941
690.0000,6.321866
691.0000,2.765907
692.0000,2.509751
693.0000,6.404097
694.0000,-0.200423
695.0000,3.933613
696.0000,2.261006
697.0000,2.177481
698.0000,5.220561
699.0000,8.565696
700.0000,5.487133
701.0000,10.282628
702.0000,10.838862
703.0000,4.752602
704.0000,6.746904
705.0000,14.914993
706.0000,-2.042100
707.0000,7.527567
708.0000,0.033900
709.0000,4.580369
710.0000,0.066841
711.0000,0.617823
712.0000,4.925508
713.0000,-0.940885
714.0000,3.990195
715.0000,11.175925
716.0000,-2.153873
717.0000,-3.599645
718.0000,6.741519
719.0000,13.131248
720.0000,3.674818
721.0000,1.112653
722.0000,9.837661
723.0000,1.102817
724.0000,2.128060
725.0000,14.701043
726.0000,1.828888
727.0000,-10.911606
728.0000,2.704587
729.0000,-2.654529
730.0000,-5.058714
731.0000,2.777019
732.0000,1.094065
733.0000,-2.943788
734.0000,1.310433
735.0000,-2.669935
736.0000,7.944564
737.0000,-0.692410
738.0000,2.761726
739.0000,-3.505762
740.0000,0.303639
741.0000,-7.458681
742.0000,4.876605
743.0000,-2.346105
744.0000,-0.870327
745.0000,3.754005
746.0000,8.679650
747.0000,-1.210622
748.0000,4.000223
749.0000,-2.908808
750.0000,-8.254871
751.0000,-13.325427
752.0000,3.721997
753.0000,7.463157
754.0000,3.425989
755.0000,-7.929655
756.0000,-3.797897
757.0000,-2.936820
758.0000,4.651463
759.0000,-9.904250
760.0000,-1.881778
761.0000,8.261745
762.0000,8.481889
763.0000,11.070160
764.0000,11.490102
765.0000,0.995967
766.0000,16.936880
767.0000,17.768947
768.0000,9.103992
769.0000,1.456313
770.0000,10.432280
771.0000,-0.882871
772.0000,-1.015476
773.0000,6.762768
774.0000,8.140030
775.0000,2.930365
776.0000,14.098719
777.0000,12.362288
778.0000,10.785100
779.0000,9.492111
780.0000,1.223736
781.0000,8.662388
782.0000,16.616154
783.0000,15.831328
784.0000,26.999351
785.0000,25.869750
786.0000,34.344921
787.0000,37.558038
788.0000,34.941457
789.0000,51.124321
790.0000,53.778001
791.0000,67.479962
792.0000,79.019352
793.0000,99.730178
794.0000,108.046888
795.0000,98.132630
796.0000,102.069818
797.0000,89.219682
798.0000,83.864967
799.0000,62.511385
800.0000,70.129676
801.0000,49.502789
802.0000,44.383163
803.0000,43.444084
804.0000,38.734694
805.0000,33.891125
806.0000,36.302416
807.0000,12.877242
808.0000,17.708003
809.0000,21.177616
810.0000,27.740623
811.0000,32.890807
812.0000,1.386580
813.0000,15.322567
814.0000,12.212089
815.0000,3.896055
816.0000,8.406731
817.0000,10.105195
818.0000,3.329002
819.0000,4.537968
820.0000,2.468901
821.0000,9.417313
822.0000,2.396022
823.0000,-1.013336
824.0000,-1.375555
825.0000,0.519726
826.0000,10.066574
827.0000,-0.070102
828.0000,-4.873952
829.0000,3.669249
830.0000,18.535432
831.0000,14.460340
832.0000,0.567083
833.0000,1.599543
834.0000,-5.567136
835.0000,1.250790
836.0000,9.861547
837.0000,5.693008
838.0000,-0.927965
839.0000,-6.045486
840.0000,4.168836
841.0000,0.791788
842.0000,-4.869959
843.0000,2.077715
844.0000,1.142239
845.0000,0.565026
846.0000,13.307661
847.0000,11.103432
848.0000,-1.771269
849.0000,1.171698
850.0000,9.531982
851.0000,6.874783
852.0000,-8.205143
853.0000,-1.179333
854.0000,2.658472
855.0000,1.389887
856.0000,-2.415087
857.0000,-7.167984
858.0000,6.091487
859.0000,-3.575286
860.0000,-7.572379
861.0000,-4.024236
862.0000,3.099361
863.0000,-8.918943
864.0000,0.690152
865.0000,6.974494
866.0000,-11.081926
867.0000,3.333069
868.0000,3.150096
869.0000,-2.848485
870.0000,3.627008
871.0000,7.497482
872.0000,1.327943
873.0000,5.387337
874.0000,-7.328887
875.0000,7.132624
876.0000,-6.163796
877.0000,7.054708
878.0000,4.666256
879.0000,-8.531657
880.0000,-3.155937
881.0000,0.018373
882.0000,-1.796269
883.0000,-0.709707
884.0000,-5.108868
885.0000,-0.559217
886.0000,-1.217650
887.0000,-5.325301
888.0000,3.005819
889.0000,-0.716101
890.0000,0.159596
891.0000,-1.169928
892.0000,-16.880587
893.0000,-2.918051
894.0000,-5.755803
895.0000,3.009820
896.0000,12.413149
897.0000,4.645174
898.0000,-2.083266
899.0000,2.773885
900.0000,5.023515
901.0000,1.608934
902.0000,-4.192004
903.0000,-3.287134
904.0000,-1.022134
905.0000,-5.458327
906.0000,3.477652
907.0000,-14.325902
908.0000,-10.088283
909.0000,3.790452
910.0000,1.307813
911.0000,-0.048389
912.0000,-3.981052
913.0000,7.878893
914.0000,0.653035
915.0000,-2.918276
916.0000,8.529480
917.0000,-6.823873
918.0000,-0.594231
919.0000,3.643552
920.0000,2.080307
921.0000,-4.703110
922.0000,-1.846845
923.0000,-13.399991
924.0000,13.623722
925.0000,-0.492957
926.0000,6.081383
927.0000,4.292329
928.0000,10.523083
929.0000,1.797446
930.0000,11.217282
931.0000,-7.433439
932.0000,-7.900765
933.0000,0.092228
934.0000,10.321183
935.0000,6.126172
936.0000,7.964794
937.0000,1.155300
938.0000,8.308784
939.0000,2.958580
940.0000,0.529823
941.0000,-1.198175
942.0000,1.836736
943.0000,3.147447
944.0000,10.596798
945.0000,3.666216
946.0000,2.241526
947.0000,5.839743
948.0000,3.536935
949.0000,7.706128
950.0000,-8.866959
951.0000,12.136262
952.0000,13.377544
953.0000,-3.594741
954.0000,-17.747668
955.0000,6.246952
956.0000,-4.421206
957.0000,5.451645
958.0000,1.381657
959.0000,10.244818
960.0000,-1.462960
961.0000,14.027122
962.0000,11.160170
963.0000,11.149057
964.0000,8.463481
965.0000,10.386227
966.0000,6.695312
967.0000,16.719559
968.0000,24.124799
969.0000,2.805116
970.0000,16.578352
971.0000,14.495957
972.0000,6.282283
973.0000,11.111323
974.0000,1.828774
975.0000,11.823777
976.0000,18.243176
977.0000,28.691032
978.0000,17.688820
979.0000,14.204034
980.0000,26.410121
981.0000,35.295047
982.0000,28.136138
983.0000,34.994640
984.0000,34.450921
985.0000,41.658326
986.0000,37.925702
987.0000,45.466853
988.0000,55.706218
989.0000,69.358069
990.0000,85.897405
991.0000,90.234701
992.0000,104.733296
993.0000,129.429351
994.0000,147.197987
995.0000,196.560922
996.0000,277.899790
997.0000,361.988581
998.0000,497.868898
999.0000,698.374871
1000.0000,903.893177
1001.0000,1004.940780
1002.0000,900.428910
1003.0000,694.960774
1004.0000,504.682779
1005.0000,358.458369
1006.0000,261.830281
1007.0000,208.841535
1008.0000,160.056087
1009.0000,120.777031
1010.0000,107.743488
1011.0000,97.895061
1012.0000,91.643677
1013.0000,72.412754
1014.0000,67.341122
1015.0000,59.118377
1016.0000,59.837577
1017.0000,62.797233
1018.0000,65.488043
1019.0000,49.558692
1020.0000,71.915072
1021.0000,74.801482
1022.0000,72.166754
1023.0000,83.474950
1024.0000,107.130274
1025.0000,116.898856
1026.0000,155.476851
1027.0000,198.169633
1028.0000,253.457716
1029.0000,342.846139
1030.0000,388.064111
1031.0000,442.299200
1032.0000,397.422361
1033.0000,314.652066
1034.0000,249.495523
1035.0000,197.137190
1036.0000,142.018598
1037.0000,122.001107
1038.0000,90.822652
1039.0000,68.180784
1040.0000,69.503600
1041.0000,54.906571
1042.0000,45.685733
1043.0000,41.681478
1044.0000,33.710756
1045.0000,17.436885
1046.0000,16.617622
1047.0000,23.889369
1048.0000,28.535194
1049.0000,22.681977
1050.0000,22.113590
1051.0000,13.234355
1052.0000,6.592091
1053.0000,5.690283
1054.0000,15.428016
1055.0000,10.468017
1056.0000,24.635454
1057.0000,3.948189
1058.0000,6.025171
1059.0000,11.239519
1060.0000,10.344262
1061.0000,21.630773
1062.0000,5.024576
1063.0000,1.121326
1064.0000,14.674009
1065.0000,4.179716
1066.0000,8.864156
1067.0000,3.824933
1068.0000,7.230820
1069.0000,7.371224
1070.0000,15.779701
1071.0000,3.094015
1072.0000,3.767209
1073.0000,3.956246
1074.0000,5.972738
1075.0000,14.613490
1076.0000,-4.459103
1077.0000,0.957777
1078.0000,6.033922
1079.0000,7.283468
1080.0000,7.247243
1081.0000,5.914690
1082.0000,9.517556
1083.0000,4.418483
1084.0000,15.164683
1085.0000,14.379690
1086.0000,15.804429
1087.0000,3.128237
1088.0000,7.056289
1089.0000,1.122060
1090.0000,6.532003
1091.0000,0.388486
1092.0000,-2.042591
1093.0000,3.278471
1094.0000,0.222646
1095.0000,1.175468
1096.0000,2.157999
1097.0000,15.679618
1098.0000,-1.682857
1099.0000,3.872923
1100.0000,-4.561388
1101.0000,1.042150
1102.0000,-3.426020
1103.0000,-0.050142
1104.0000,7.549560
1105.0000,-0.534200
1106.0000,10.721497
1107.0000,-3.004853
1108.0000,1.963285
1109.0000,4.290847
1110.0000,4.435929
1111.0000,7.833416
1112.0000,-1.581924
1113.0000,16.084931
1114.0000,1.381988
1115.0000,5.296449
1116.0000,3.643049
1117.0000,9.238320
1118.0000,-4.682924
1119.0000,7.625042
1120.0000,6.766977
1121.0000,0.125243
1122.0000,-1.073078
1123.0000,6.444342
1124.0000,-7.443350
1125.0000,0.718825
1126.0000,4.380544
1127.0000,7.586730
1128.0000,7.660107
1129.0000,4.912238
1130.0000,-2.721962
1131.0000,-1.017904
1132.0000,6.674748
1133.0000,10.158196
1134.0000,-0.127911
1135.0000,15.369581
1136.0000,4.385135
1137.0000,12.244171
1138.0000,9.021676
1139.0000,17.514612
1140.0000,14.114413
1141.0000,17.171013
1142.0000,18.528061
1143.0000,25.494037
1144.0000,27.262104
1145.0000,33.392559
1146.0000,30.769548
1147.0000,47.181450
1148.0000,55.051705
1149.0000,55.965459
1150.0000,73.977141
1151.0000,76.215549
1152.0000,103.401997
1153.0000,112.837847
1154.0000,134.424063
1155.0000,136.845535
1156.0000,130.119195
1157.0000,126.791301
1158.0000,104.906910
1159.0000,85.438343
1160.0000,76.210456
1161.0000,68.870533
1162.0000,58.038700
1163.0000,45.418431
1164.0000,51.094963
1165.0000,49.927807
1166.0000,25.180942
1167.0000,30.771142
1168.0000,26.357674
1169.0000,27.401819
1170.0000,30.452222
1171.0000,30.871263
1172.0000,23.237332
1173.0000,35.737452
1174.0000,38.944314
1175.0000,36.153367
1176.0000,48.417192
1177.0000,49.762942
1178.0000,60.485653
1179.0000,64.212332
1180.0000,87.364177
1181.0000,102.779049
1182.0000,101.693513
1183.0000,123.757473
1184.0000,110.082493
1185.0000,110.558335
1186.0000,80.009232
1187.0000,63.299057
1188.0000,53.193105
1189.0000,43.959060
1190.0000,37.463169
1191.0000,19.599741
1192.0000,27.533525
1193.0000,22.813010
1194.0000,20.204162
1195.0000,18.656290
1196.0000,24.383843
1197.0000,21.437414
1198.0000,9.163486
1199.0000,7.200723
1200.0000,7.260288
1201.0000,8.460305
1202.0000,15.104323
1203.0000,-2.303970
1204.0000,8.757911
1205.0000,7.917653
1206.0000,0.462675
1207.0000,17.303061
1208.0000,1.962699
1209.0000,-2.669730
1210.0000,4.083939
1211.0000,2.586620
1212.0000,17.747597
1213.0000,1.915509
1214.0000,13.407593
1215.0000,9.184957
1216.0000,2.455345
1217.0000,13.571617
1218.0000,11.068121
1219.0000,9.286020
1220.0000,-0.180326
1221.0000,-0.523006
1222.0000,4.335649
1223.0000,-0.447728
1224.0000,-2.406428
1225.0000,8.417116
1226.0000,-2.356558
1227.0000,2.570716
1228.0000,7.840578
1229.0000,4.102489
1230.0000,-0.840821
1231.0000,12.663928
1232.0000,0.862195
1233.0000,-1.118603
1234.0000,1.446417
1235.0000,6.567485
1236.0000,8.106539
1237.0000,4.827050
1238.0000,6.536360
1239.0000,-1.264375
1240.0000,1.248354
1241.0000,12.517453
1242.0000,-0.012159
1243.0000,-6.241746
1244.0000,5.974581
1245.0000,5.220592
1246.0000,12.221517
1247.0000,0.088561
1248.0000,-0.053941
1249.0000,2.085003
1250.0000,10.964541
1251.0000,6.552567
1252.0000,1.536904
1253.0000,-8.384224
1254.0000,-2.030052
1255.0000,1.068321
1256.0000,5.265860
1257.0000,4.790260
1258.0000,-6.816750
1259.0000,11.703836
1260.0000,-6.212910
1261.0000,-6.617315
1262.0000,-0.565394
1263.0000,5.435369
1264.0000,9.851674
1265.0000,7.083830
1266.0000,-1.007832
1267.0000,-1.388706
1268.0000,-4.895464
1269.0000,-0.116354
1270.0000,-1.982885
1271.0000,6.529379
1272.0000,-8.434215
1273.0000,0.456625
1274.0000,3.892376
1275.0000,-1.235578
1276.0000,0.724956
1277.0000,-5.114307
1278.0000,-1.096509
1279.0000,-12.291843
1280.0000,-7.092264
1281.0000,6.227265
1282.0000,-1.443188
1283.0000,-0.309051
1284.0000,2.723477
1285.0000,8.646605
1286.0000,0.220645
1287.0000,3.382434
1288.0000,-1.382346
1289.0000,-6.095486
1290.0000,-9.306043
1291.0000,-0.299279
1292.0000,0.407678
1293.0000,7.362987
1294.0000,-4.348961
1295.0000,0.231251
1296.0000,-2.317207
1297.0000,4.045335
1298.0000,-5.925929
1299.0000,-4.992111
1300.0000,-6.466437
1301.0000,3.225126
1302.0000,11.405097
1303.0000,3.779131
1304.0000,-9.354693
1305.0000,5.444982
1306.0000,8.001461
1307.0000,5.750781
1308.0000,4.029328
1309.0000,-22.636399
1310.0000,11.411499
1311.0000,0.670294
1312.0000,5.716815
1313.0000,2.338413
1314.0000,-1.745584
1315.0000,-7.168894
1316.0000,12.139696
1317.0000,-3.939205
1318.0000,8.554783
1319.0000,6.805831
1320.0000,-3.087534
1321.0000,6.577620
1322.0000,7.584343
1323.0000,-7.209359
1324.0000,-1.373903
1325.0000,8.928580
1326.0000,2.324032
1327.0000,1.915900
1328.0000,1.737487
1329.0000,-3.148793
1330.0000,5.650937
1331.0000,1.133028
1332.0000,7.176366
1333.0000,-1.494311
1334.0000,11.510816
1335.0000,10.970454
1336.0000,-7.171370
1337.0000,-2.583190
1338.0000,-6.010385
1339.0000,5.824907
1340.0000,3.996783
1341.0000,0.138887
1342.0000,-1.904566
1343.0000,-2.013491
1344.0000,8.218601
1345.0000,11.104893
1346.0000,-0.855866
1347.0000,-9.235459
1348.0000,-1.002800
1349.0000,6.139159
1350.0000,-7.035882
1351.0000,0.993268
1352.0000,-3.617255
1353.0000,-4.571070
1354.0000,-7.572233
1355.0000,10.482490
1356.0000,-9.484689
1357.0000,1.619032
1358.0000,-3.674812
1359.0000,-0.740453
1360.0000,13.485607
1361.0000,6.290288
1362.0000,-0.860374
1363.0000,-5.083376
1364.0000,9.212223
1365.0000,0.053636
1366.0000,9.617154
1367.0000,-3.789308
1368.0000,9.677358
1369.0000,-6.516825
1370.0000,-5.923374
1371.0000,7.811935
1372.0000,0.040483
1373.0000,0.541570
1374.0000,1.953621
1375.0000,-7.109075
1376.0000,6.686058
1377.0000,5.519105
1378.0000,-2.277279
1379.0000,2.237195
1380.0000,1.161728
1381.0000,3.310302
1382.0000,2.444826
1383.0000,-0.291102
1384.0000,-3.503483
1385.0000,7.104158
1386.0000,7.318581
1387.0000,7.838592
1388.0000,-4.396580
1389.0000,17.913367
1390.0000,-13.467322
1391.0000,8.453937
1392.0000,3.379695
1393.0000,14.381916
1394.0000,6.135037
1395.0000,10.983286
1396.0000,1.697337
1397.0000,-5.706689
1398.0000,-2.814606
1399.0000,8.487161
1400.0000,5.237721
1401.0000,5.357136
1402.0000,14.304661
1403.0000,3.912802
1404.0000,11.367810
1405.0000,8.138867
1406.0000,0.972974
1407.0000,0.134749
1408.0000,0.463254
1409.0000,2.723690
1410.0000,4.428018
1411.0000,5.919575
1412.0000,16.918326
1413.0000,18.853029
1414.0000,7.984428
1415.0000,25.293076
1416.0000,11.912061
1417.0000,15.644009
1418.0000,9.303134
1419.0000,9.971485
1420.0000,21.376769
1421.0000,16.204234
1422.0000,6.094917
1423.0000,17.243630
1424.0000,29.941755
1425.0000,15.731508
1426.0000,15.026931
1427.0000,20.523532
1428.0000,18.390597
1429.0000,19.424048
1430.0000,15.603560
1431.0000,25.551187
1432.0000,32.888498
1433.0000,23.139582
1434.0000,35.598190
1435.0000,39.687443
1436.0000,43.946182
1437.0000,54.556520
1438.0000,59.848091
1439.0000,49.090113
1440.0000,63.990173
1441.0000,82.242625
1442.0000,90.218515
1443.0000,103.502836
1444.0000,116.099639
1445.0000,145.084816
1446.0000,174.732525
1447.0000,181.655680
1448.0000,203.326699
1449.0000,216.933360
1450.0000,216.828291
1451.0000,211.314534
1452.0000,195.627539
1453.0000,182.797955
1454.0000,167.544253
1455.0000,147.303701
1456.0000,130.964696
1457.0000,99.831620
1458.0000,100.969634
1459.0000,81.639549
1460.0000,72.606499
1461.0000,57.946662
1462.0000,57.129202
1463.0000,53.064746
1464.0000,45.975469
1465.0000,44.430919
1466.0000,34.251951
1467.0000,40.476147
1468.0000,38.731729
1469.0000,25.710192
1470.0000,15.707910
1471.0000,20.923226
1472.0000,11.739591
1473.0000,15.709681
1474.0000,25.531474
1475.0000,20.587397
1476.0000,17.676999
1477.0000,-0.764800
1478.0000,14.624338
1479.0000,23.001141
1480.0000,14.617973
1481.0000,14.485473
1482.0000,6.058535
1483.0000,8.899155
1484.0000,8.192135
1485.0000,8.975161
1486.0000,8.321377
1487.0000,-0.686049
1488.0000,2.719869
1489.0000,14.693549
1490.0000,7.799098
1491.0000,12.599193
1492.0000,7.537695
1493.0000,7.869738
1494.0000,10.166101
1495.0000,3.699960
1496.0000,5.844280
1497.0000,-2.635294
1498.0000,-1.637743
1499.0000,2.058293
1500.0000,13.328160
1501.0000,11.923038
1502.0000,0.106078
1503.0000,10.624363
1504.0000,9.808354
1505.0000,-4.322382
1506.0000,2.358472
1507.0000,2.088352
1508.0000,5.689824
1509.0000,1.505544
1510.0000,0.083367
1511.0000,5.216979
1512.0000,11.568733
1513.0000,4.938666
1514.0000,2.327330
1515.0000,-6.177299
1516.0000,0.721072
1517.0000,5.886893
1518.0000,-0.689445
1519.0000,9.694963
1520.0000,-6.830207
1521.0000,-2.541921
1522.0000,-4.139107
1523.0000,10.812012
1524.0000,12.574252
1525.0000,7.612028
1526.0000,-4.075651
1527.0000,4.313495
1528.0000,10.314481
1529.0000,-7.633813
1530.0000,7.357058
1531.0000,19.279438
1532.0000,12.462197
1533.0000,3.746635
1534.0000,10.099955
1535.0000,7.395052
1536.0000,5.970646
1537.0000,26.079044
1538.0000,5.865235
1539.0000,6.136295
1540.0000,8.048569
1541.0000,5.008184
1542.0000,4.892770
1543.0000,15.140075
1544.0000,-0.146823
1545.0000,2.994360
1546.0000,15.371467
1547.0000,5.084616
1548.0000,16.529217
1549.0000,15.690634
1550.0000,16.345380
1551.0000,7.989369
1552.0000,5.455907
1553.0000,19.637016
1554.0000,23.165003
1555.0000,5.402505
1556.0000,19.568889
1557.0000,13.419637
1558.0000,21.333755
1559.0000,14.800013
1560.0000,17.219190
1561.0000,20.512282
1562.0000,17.454316
1563.0000,19.516581
1564.0000,10.115187
1565.0000,18.045059
1566.0000,29.596835
1567.0000,33.857990
1568.0000,26.764129
1569.0000,24.240124
1570.0000,28.105640
1571.0000,35.742800
1572.0000,39.621071
1573.0000,46.556441
1574.0000,61.778114
1575.0000,75.389362
1576.0000,81.278642
1577.0000,107.124637
1578.0000,118.851874
1579.0000,136.629169
1580.0000,168.166233
1581.0000,191.842280
1582.0000,218.342553
1583.0000,225.390083
1584.0000,225.030002
1585.0000,212.080584
1586.0000,190.862783
1587.0000,159.620261
1588.0000,147.026795
1589.0000,132.728528
1590.0000,126.486257
1591.0000,121.313885
1592.0000,128.975514
1593.0000,148.399301
1594.0000,153.792463
1595.0000,187.329820
1596.0000,220.364400
1597.0000,260.498057
1598.0000,326.567004
1599.0000,407.982635
1600.0000,508.392000
1601.0000,602.050307
1602.0000,637.494654
1603.0000,600.086741
1604.0000,509.861452
1605.0000,419.454476
1606.0000,314.806960
1607.0000,250.667872
1608.0000,195.287339
1609.0000,158.826197
1610.0000,136.403750
1611.0000,114.921943
1612.0000,87.540260
1613.0000,68.235487
1614.0000,69.384979
1615.0000,62.507791
1616.0000,50.136641
1617.0000,42.344990
1618.0000,42.153167
1619.0000,44.634164
1620.0000,24.497928
1621.0000,37.602250
1622.0000,24.625735
1623.0000,19.292442
1624.0000,18.108140
1625.0000,35.047453
1626.0000,14.892026
1627.0000,17.863529
1628.0000,15.607163
1629.0000,18.220982
1630.0000,18.239465
1631.0000,17.675093
1632.0000,1.489598
1633.0000,15.456572
1634.0000,16.544839
1635.0000,13.632683
1636.0000,10.391009
1637.0000,8.239135
1638.0000,14.013415
1639.0000,6.623114
1640.0000,14.650133
1641.0000,14.218383
1642.0000,-1.245070
1643.0000,4.353679
1644.0000,8.954371
1645.0000,11.246892
1646.0000,-4.448994
1647.0000,6.649437
1648.0000,-2.383194
1649.0000,4.407091
1650.0000,8.656718
1651.0000,11.315285
1652.0000,1.701217
1653.0000,3.489217
1654.0000,5.445368
1655.0000,1.293175
1656.0000,1.923916
1657.0000,5.636414
1658.0000,2.753336
1659.0000,3.495898
1660.0000,2.482125
1661.0000,6.615632
1662.0000,3.634196
1663.0000,8.886681
1664.0000,-2.325118
1665.0000,20.025207
1666.0000,7.841494
1667.0000,11.117395
1668.0000,-11.033723
1669.0000,3.041289
1670.0000,12.508488
1671.0000,6.224051
1672.0000,9.833085
1673.0000,-2.681862
1674.0000,7.999513
1675.0000,-0.647181
1676.0000,8.616084
1677.0000,2.130802
1678.0000,3.037910
1679.0000,0.099117
1680.0000,20.393783
1681.0000,3.997792
1682.0000,-12.356746
1683.0000,-2.887288
1684.0000,12.122258
1685.0000,2.701971
1686.0000,-4.495925
1687.0000,5.504330
1688.0000,3.135385
1689.0000,15.518851
1690.0000,12.543239
1691.0000,-7.052153
1692.0000,7.060667
1693.0000,-4.934139
1694.0000,7.159717
1695.0000,9.461301
1696.0000,1.818628
1697.0000,4.154839
1698.0000,2.111302
1699.0000,-9.047704
1700.0000,-7.143259
1701.0000,2.390798
1702.0000,3.252351
1703.0000,8.802990
1704.0000,7.762676
1705.0000,-3.573880
1706.0000,4.540342
1707.0000,11.652591
1708.0000,-2.196422
1709.0000,3.594475
1710.0000,-8.293891
1711.0000,8.376481
1712.0000,5.115667
1713.0000,-0.955459
1714.0000,5.864955
1715.0000,-5.188498
1716.0000,-3.203210
1717.0000,-6.335024
1718.0000,8.032431
1719.0000,10.573864
1720.0000,2.988727
1721.0000,9.617395
1722.0000,0.537204
1723.0000,6.751995
1724.0000,-3.444250
1725.0000,-2.995985
1726.0000,12.036402
1727.0000,3.392968
1728.0000,3.882162
1729.0000,2.692645
1730.0000,-1.887680
1731.0000,-0.593740
1732.0000,0.828390
1733.0000,-2.621086
1734.0000,4.171572
1735.0000,-13.404725
1736.0000,6.646659
1737.0000,1.217315
1738.0000,-5.961131
1739.0000,-0.374744
1740.0000,1.694812
1741.0000,2.015253
1742.0000,8.259476
1743.0000,-1.722958
1744.0000,3.054434
1745.0000,-1.198627
1746.0000,2.634946
1747.0000,7.563720
1748.0000,-0.520044
1749.0000,1.747722
1750.0000,14.405504
1751.0000,15.304930
1752.0000,-10.744316
1753.0000,-5.519770
1754.0000,5.912389
1755.0000,2.146569
1756.0000,11.732440
1757.0000,14.164179
1758.0000,6.374488
1759.0000,3.071634
1760.0000,0.156726
1761.0000,-4.640782
1762.0000,3.552968
1763.0000,3.386438
1764.0000,-7.376642
1765.0000,-3.987122
1766.0000,4.503607
1767.0000,-2.483276
1768.0000,4.511007
1769.0000,0.944092
1770.0000,-1.786845
1771.0000,-9.118202
1772.0000,-11.762296
1773.0000,0.731668
1774.0000,6.887205
1775.0000,1.935236
1776.0000,11.382794
1777.0000,2.165378
1778.0000,-6.070331
1779.0000,-5.280848
1780.0000,-11.122375
1781.0000,-1.743068
1782.0000,-2.941207
1783.0000,-1.347104
1784.0000,4.190407
1785.0000,11.855279
1786.0000,11.936288
1787.0000,2.989911
1788.0000,8.880343
1789.0000,-4.810251
1790.0000,3.407119
1791.0000,4.055556
1792.0000,7.753156
1793.0000,2.457439
1794.0000,1.279890
1795.0000,3.970618
1796.0000,-2.511258
1797.0000,-1.511588
1798.0000,0.335306
1799.0000,4.130965
1800.0000,-1.066382
1801.0000,1.104991
1802.0000,-5.500411
1803.0000,9.527865
1804.0000,2.440878
1805.0000,13.835381
1806.0000,-4.030613
1807.0000,-6.662050
1808.0000,11.019159
1809.0000,-6.575249
1810.0000,6.551865
1811.0000,2.251334
1812.0000,-12.515793
1813.0000,7.459806
1814.0000,-2.135297
1815.0000,9.130511
1816.0000,3.219771
1817.0000,-6.517757
1818.0000,9.649884
1819.0000,3.315016
1820.0000,2.459390
1821.0000,2.787881
1822.0000,0.401336
1823.0000,5.820343
1824.0000,-7.692068
1825.0000,-8.914675
1826.0000,7.367379
1827.0000,-6.047332
1828.0000,2.517581
1829.0000,15.688246
1830.0000,1.369758
1831.0000,1.155443
1832.0000,7.527024
1833.0000,-0.871816
1834.0000,-8.413704
1835.0000,0.111696
1836.0000,-0.179417
1837.0000,12.657704
1838.0000,0.745979
1839.0000,-4.819331
1840.0000,1.463975
1841.0000,-1.907246
1842.0000,-7.564010
1843.0000,-5.798357
1844.0000,1.611779
1845.0000,2.870897
1846.0000,3.085593
1847.0000,-1.676656
1848.0000,-6.384040
1849.0000,0.149522
1850.0000,-2.048185
1851.0000,2.914217
1852.0000,3.527838
1853.0000,2.880598
1854.0000,3.822899
1855.0000,-1.854471
1856.0000,-10.110159
1857.0000,0.765999
1858.0000,3.329776
1859.0000,-5.209118
1860.0000,8.927350
1861.0000,2.681910
1862.0000,1.621679
1863.0000,1.321524
1864.0000,1.618729
1865.0000,3.222556
1866.0000,-10.253183
1867.0000,1.751774
1868.0000,-3.571260
1869.0000,9.334660
1870.0000,2.413533
1871.0000,8.214098
1872.0000,6.168515
1873.0000,-4.574372
1874.0000,4.243980
1875.0000,6.396931
1876.0000,-0.986029
1877.0000,-7.662508
1878.0000,-7.419425
1879.0000,-2.892348
1880.0000,5.490617
1881.0000,0.062470
1882.0000,-3.526045
1883.0000,4.866919
1884.0000,0.227712
1885.0000,11.737764
1886.0000,-1.887683
1887.0000,-9.477518
1888.0000,5.416897
1889.0000,6.495205
1890.0000,-2.213900
1891.0000,-18.039957
1892.0000,2.890458
1893.0000,-3.365776
1894.0000,-7.495271
1895.0000,-2.659100
1896.0000,-11.276654
1897.0000,9.882493
1898.0000,0.157694
1899.0000,-2.967324
1900.0000,1.620732
1901.0000,1.853685
1902.0000,4.563473
1903.0000,5.573518
1904.0000,0.168310
1905.0000,-11.540084
1906.0000,-7.271872
1907.0000,-4.289242
1908.0000,-5.046781
1909.0000,14.833481
1910.0000,2.931151
1911.0000,-3.408950
1912.0000,4.202225
1913.0000,2.988711
1914.0000,4.171619
1915.0000,-0.308369
1916.0000,13.541536
1917.0000,-1.666152
1918.0000,-7.193017
1919.0000,4.911145
1920.0000,-0.930797
1921.0000,-6.183041
1922.0000,8.035343
1923.0000,11.411164
1924.0000,4.167121
1925.0000,11.004661
1926.0000,1.330421
1927.0000,-2.243554
1928.0000,0.196899
1929.0000,5.850766
1930.0000,-4.992912
1931.0000,6.734161
1932.0000,-7.552503
1933.0000,7.544346
1934.0000,-2.792692
1935.0000,1.811499
1936.0000,-4.896210
1937.0000,-0.249878
1938.0000,-5.370757
1939.0000,-3.722649
1940.0000,5.770473
1941.0000,0.402366
1942.0000,7.907952
1943.0000,1.758493
1944.0000,6.855115
1945.0000,9.563729
1946.0000,-2.412608
1947.0000,-4.314280
1948.0000,5.471558
1949.0000,-7.217939
1950.0000,-2.477880
1951.0000,-1.832639
1952.0000,-4.504147
1953.0000,-4.106597
1954.0000,5.757084
1955.0000,-12.018078
1956.0000,-6.429295
1957.0000,1.486232
1958.0000,3.222871
1959.0000,-5.684984
1960.0000,-4.490212
1961.0000,-7.497765
1962.0000,8.672955
1963.0000,-1.421244
1964.0000,-3.441197
1965.0000,1.312627
1966.0000,-3.314679
1967.0000,-1.652758
1968.0000,5.873069
1969.0000,3.315005
1970.0000,-0.297382
1971.0000,-2.472996
1972.0000,-9.359357
1973.0000,3.733486
1974.0000,1.379551
1975.0000,-0.686403
1976.0000,-1.441759
1977.0000,-1.472568
1978.0000,-0.591175
1979.0000,-10.743307
1980.0000,15.721861
1981.0000,-0.376806
1982.0000,-6.421597
1983.0000,-7.215305
1984.0000,0.338421
1985.0000,-0.023184
1986.0000,-4.242664
1987.0000,6.388417
1988.0000,-0.018617
1989.0000,1.648473
1990.0000,-4.587109
1991.0000,-6.329453
1992.0000,3.242131
1993.0000,-10.265803
1994.0000,-3.715792
1995.0000,-8.996501
1996.0000,-4.143052
1997.0000,-1.456249
1998.0000,-4.782815
1999.0000,-3.172440
2000.0000,-1.091182
