raman_shift_cm-1,intensity
200.0000,0.795493
201.0000,1.779093
202.0000,15.029403
203.0000,-0.874741
204.0000,-5.350567
205.0000,-5.533853
206.0000,7.663936
207.0000,1.181028
208.0000,9.861758
209.0000,2.303716
210.0000,-3.980474
211.0000,-6.500228
212.0000,5.715406
213.0000,-6.418766
214.0000,-4.356497
215.0000,1.396547
216.0000,7.170482
217.0000,0.312464
218.0000,-12.329048
219.0000,-0.017181
220.0000,0.005007
221.0000,15.395341
222.0000,2.648348
223.0000,8.459201
224.0000,9.039511
225.0000,8.746963
226.0000,10.830756
227.0000,-15.338147
228.0000,5.207760
229.0000,13.266225
230.0000,-9.000961
231.0000,1.193424
232.0000,0.924564
233.0000,6.203746
234.0000,7.765155
235.0000,-1.899369
236.0000,-6.785933
237.0000,-6.060929
238.0000,8.417464
239.0000,-6.368596
240.0000,2.554430
241.0000,-11.459913
242.0000,-4.553035
243.0000,-2.955111
244.0000,11.585806
245.0000,-18.972324
246.0000,-1.741595
247.0000,-1.462101
248.0000,1.964340
249.0000,1.026833
250.0000,-2.237177
251.0000,1.853801
252.0000,-4.376379
253.0000,7.731529
254.0000,11.244324
255.0000,-1.805607
256.0000,-3.811288
257.0000,-6.826609
258.0000,-0.887173
259.0000,3.584995
260.0000,-5.756160
261.0000,-3.367780
262.0000,-3.532223
263.0000,1.405977
264.0000,-2.860043
265.0000,-7.649676
266.0000,-2.901825
267.0000,-7.372547
268.0000,-6.865209
269.0000,-4.615064
270.0000,-1.775466
271.0000,-6.101111
272.0000,-7.993214
273.0000,-8.228957
274.0000,13.153329
275.0000,-12.001743
276.0000,0.312655
277.0000,5.496908
278.0000,-1.046657
279.0000,9.907934
280.0000,0.030483
281.0000,-5.020340
282.0000,-2.336369
283.0000,8.446313
284.0000,-3.722623
285.0000,7.526036
286.0000,0.431100
287.0000,-10.523198
288.0000,5.215186
289.0000,2.723624
290.0000,6.995211
291.0000,-1.067782
292.0000,-10.918756
293.0000,-5.277154
294.0000,2.434540
295.0000,6.928239
296.0000,-1.584229
297.0000,2.689913
298.0000,-4.994271
299.0000,-4.059970
300.0000,0.798195
301.0000,-9.759973
302.0000,6.939280
303.0000,4.466580
304.0000,-3.369726
305.0000,10.962333
306.0000,-0.347356
307.0000,-0.293148
308.0000,-11.166383
309.0000,-4.256960
310.0000,-2.472217
311.0000,14.778218
312.0000,1.583323
313.0000,4.955508
314.0000,-4.601856
315.0000,-6.472286
316.0000,-5.381940
317.0000,3.872887
318.0000,4.109150
319.0000,8.175250
320.0000,4.724509
321.0000,-7.016602
322.0000,-8.619222
323.0000,2.284172
324.0000,2.246773
325.0000,-7.107210
326.0000,0.396654
327.0000,-1.058902
328.0000,1.895854
329.0000,2.222933
330.0000,3.455962
331.0000,-7.972258
332.0000,-4.650230
333.0000,2.578606
334.0000,-5.497649
335.0000,4.227673
336.0000,0.419078
337.0000,-0.910320
338.0000,1.075971
339.0000,9.988314
340.0000,-15.399100
341.0000,1.670903
342.0000,4.266228
343.0000,-3.584995
344.0000,-5.889017
345.0000,2.754158
346.0000,-0.092672
347.0000,-4.348068
348.0000,7.225585
349.0000,-6.124937
350.0000,14.860449
351.0000,0.977470
352.0000,6.051813
353.0000,1.813796
354.0000,1.973347
355.0000,-3.932021
356.0000,4.254242
357.0000,-4.621434
358.0000,-6.393767
359.0000,9.923909
360.0000,-8.688123
361.0000,-2.459154
362.0000,1.394274
363.0000,12.386758
364.0000,6.289307
365.0000,1.743834
366.0000,1.826832
367.0000,-1.263216
368.0000,-7.477105
369.0000,-7.916291
370.0000,0.895986
371.0000,-11.223083
372.0000,7.742494
373.0000,1.660951
374.0000,-4.978075
375.0000,0.353098
376.0000,-1.170478
377.0000,-1.166320
378.0000,-7.847585
379.0000,1.022571
380.0000,-2.011976
381.0000,-6.591998
382.0000,4.819570
383.0000,4.961541
384.0000,-2.648378
385.0000,13.546478
386.0000,4.326568
387.0000,-2.563301
388.0000,-4.006097
389.0000,-1.819672
390.0000,-5.637567
391.0000,-5.649614
392.0000,7.991752
393.0000,-1.917251
394.0000,5.613129
395.0000,-7.517755
396.0000,2.901593
397.0000,2.933517
398.0000,-0.476365
399.0000,-13.068377
400.0000,3.270525
401.0000,-2.622614
402.0000,5.242318
403.0000,1.296285
404.0000,-7.958208
405.0000,3.407289
406.0000,-1.213030
407.0000,4.280782
408.0000,-0.801297
409.0000,5.919160
410.0000,-13.149347
411.0000,-0.999495
412.0000,8.638014
413.0000,-0.113369
414.0000,1.214233
415.0000,-0.426959
416.0000,0.133260
417.0000,-10.633322
418.0000,-9.114276
419.0000,-8.292574
420.0000,-5.150904
421.0000,4.824799
422.0000,-3.341873
423.0000,-3.642896
424.0000,0.669158
425.0000,-6.086659
426.0000,2.601770
427.0000,-0.881422
428.0000,-0.085953
429.0000,-0.876731
430.0000,4.454365
431.0000,-0.442638
432.0000,3.406999
433.0000,-1.736575
434.0000,-7.326595
435.0000,2.714649
436.0000,-0.600623
437.0000,0.028102
438.0000,3.205757
439.0000,-4.426624
440.0000,-5.460325
441.0000,4.771403
442.0000,4.899775
443.0000,-4.051950
444.0000,-8.915624
445.0000,1.069533
446.0000,-0.811667
447.0000,9.509794
448.0000,0.652981
449.0000,0.217782
450.0000,0.004917
451.0000,10.241521
452.0000,5.326066
453.0000,-6.163847
454.0000,5.386594
455.0000,-4.571892
456.0000,-2.392713
457.0000,0.023879
458.0000,-6.286004
459.0000,1.852115
460.0000,-0.525175
461.0000,-4.710893
462.0000,0.286021
463.0000,6.650673
464.0000,-4.523103
465.0000,4.759485
466.0000,-2.988927
467.0000,-0.228156
468.0000,7.527398
469.0000,9.956611
470.0000,1.524804
471.0000,5.412513
472.0000,1.062921
473.0000,-12.425997
474.0000,-3.791155
475.0000,9.868308
476.0000,4.338174
477.0000,9.299895
478.0000,-0.888766
479.0000,0.530926
480.0000,-0.316021
481.0000,-8.339639
482.0000,-7.112944
483.0000,5.073017
484.0000,7.368807
485.0000,-9.312439
486.0000,2.010436
487.0000,16.970068
488.0000,5.286872
489.0000,-5.575756
490.0000,2.370806
491.0000,-11.980441
492.0000,-3.743003
493.0000,-0.033601
494.0000,5.595750
495.0000,-11.355782
496.0000,10.279738
497.0000,3.675225
498.0000,-1.459840
499.0000,8.981609
500.0000,4.026962
501.0000,-3.567616
502.0000,4.623607
503.0000,-5.962757
504.0000,-4.570278
505.0000,-3.949449
506.0000,5.309150
507.0000,4.776377
508.0000,-0.667414
509.0000,-9.039513
510.0000,9.906298
511.0000,-1.365055
512.0000,10.076158
513.0000,-2.765996
514.0000,-4.017342
515.0000,8.739871
516.0000,3.196818
517.0000,0.285680
518.0000,2.271619
519.0000,-0.513684
520.0000,13.269362
521.0000,12.803299
522.0000,-4.568585
523.0000,9.587342
524.0000,-2.717464
525.0000,-8.452420
526.0000,1.138013
527.0000,3.693476
528.0000,7.923872
529.0000,-7.627819
530.0000,-7.982489
531.0000,-3.454352
532.0000,1.124240
533.0000,8.169280
534.0000,8.213569
535.0000,3.133732
536.0000,-0.140414
537.0000,-4.152647
538.0000,5.249897
539.0000,2.683975
540.0000,6.394938
541.0000,0.855895
542.0000,-4.710468
543.0000,-1.739144
544.0000,8.216570
545.0000,-2.821604
546.0000,1.069181
547.0000,6.477349
548.0000,-1.441648
549.0000,5.779212
550.0000,2.962906
551.0000,8.243528
552.0000,-1.418036
553.0000,0.813239
554.0000,-1.699209
555.0000,-1.129933
556.0000,-1.868203
557.0000,1.237490
558.0000,3.450599
559.0000,6.917954
560.0000,1.203235
561.0000,0.656646
562.0000,-4.354833
563.0000,-6.086452
564.0000,-3.072803
565.0000,10.200185
566.0000,5.287160
567.0000,-1.229267
568.0000,8.147131
569.0000,0.297341
570.0000,7.179520
571.0000,-1.547518
572.0000,5.592245
573.0000,1.731642
574.0000,5.154646
575.0000,14.236034
576.0000,13.520192
577.0000,-4.048005
578.0000,-5.743749
579.0000,10.248024
580.0000,-0.236272
581.0000,7.192746
582.0000,2.779594
583.0000,4.586035
584.0000,5.146526
585.0000,-2.143163
586.0000,11.103640
587.0000,7.560002
588.0000,-7.869668
589.0000,-9.488120
590.0000,-7.449374
591.0000,11.580862
592.0000,-4.013905
593.0000,0.979421
594.0000,12.734687
595.0000,8.903046
596.0000,13.081264
597.0000,12.221422
598.0000,-1.040692
599.0000,8.527946
600.0000,11.773215
601.0000,-0.463662
602.0000,17.811652
603.0000,10.809898
604.0000,3.408867
605.0000,0.381565
606.0000,10.727762
607.0000,18.284280
608.0000,-2.448223
609.0000,12.760601
610.0000,9.951981
611.0000,10.125062
612.0000,17.578004
613.0000,26.846053
614.0000,21.827945
615.0000,17.030888
616.0000,19.008524
617.0000,32.523360
618.0000,42.551104
619.0000,32.033797
620.0000,44.940603
621.0000,45.233126
622.0000,47.051536
623.0000,58.878266
624.0000,69.688781
625.0000,80.307036
626.0000,102.793605
627.0000,118.380761
628.0000,138.618958
629.0000,162.481504
630.0000,181.329829
631.0000,196.055564
632.0000,213.893332
633.0000,203.867764
634.0000,188.553197
635.0000,148.159464
636.0000,134.474498
637.0000,116.995727
638.0000,100.401144
639.0000,84.095291
640.0000,68.215998
641.0000,52.683287
642.0000,48.754442
643.0000,44.979781
644.0000,38.656003
645.0000,36.852307
646.0000,34.064312
647.0000,22.121730
648.0000,29.123507
649.0000,20.349210
650.0000,22.880406
651.0000,19.192077
652.0000,0.161673
653.0000,14.364584
654.0000,11.343692
655.0000,21.726173
656.0000,25.374479
657.0000,19.055353
658.0000,22.431324
659.0000,7.820595
660.0000,15.374082
661.0000,21.917374
662.0000,14.692134
663.0000,16.302601
664.0000,12.049125
665.0000,15.312473
666.0000,8.263665
667.0000,14.625584
668.0000,13.340724
669.0000,17.591428
670.0000,13.440467
671.0000,11.795649
672.0000,6.392694
673.0000,20.099054
674.0000,13.419501
675.0000,13.248032
676.0000,15.086587
677.0000,22.123754
678.0000,17.366729
679.0000,18.053298
680.0000,17.429971
681.0000,31.326361
682.0000,30.982651
683.0000,33.813461
684.0000,29.236148
685.0000,38.399959
686.0000,36.725682
687.0000,38.908541
688.0000,55.522953
689.0000,54.701249
690.0000,65.646190
691.0000,75.360103
692.0000,69.107008
693.0000,87.712348
694.0000,114.293932
695.0000,131.831304
696.0000,145.690896
697.0000,172.221519
698.0000,206.541157
699.0000,222.221990
700.0000,258.337269
701.0000,272.570627
702.0000,275.618386
703.0000,269.059947
704.0000,260.185670
705.0000,233.060698
706.0000,192.991341
707.0000,181.616214
708.0000,150.379307
709.0000,123.793004
710.0000,121.592219
711.0000,95.315874
712.0000,75.594705
713.0000,74.524531
714.0000,63.772907
715.0000,59.554089
716.0000,62.045750
717.0000,42.402811
718.0000,45.288364
719.0000,39.898067
720.0000,23.766823
721.0000,27.100239
722.0000,20.482599
723.0000,24.142763
724.0000,36.435963
725.0000,26.898250
726.0000,16.682708
727.0000,18.194707
728.0000,16.093279
729.0000,16.206867
730.0000,14.806351
731.0000,19.398329
732.0000,11.817363
733.0000,8.753604
734.0000,5.502502
735.0000,9.676082
736.0000,19.023879
737.0000,21.040566
738.0000,6.458672
739.0000,14.709094
740.0000,17.923407
741.0000,11.989904
742.0000,13.294640
743.0000,21.817429
744.0000,7.464968
745.0000,7.572256
746.0000,9.859072
747.0000,8.893610
748.0000,7.089804
749.0000,6.411689
750.0000,11.536168
751.0000,7.529415
752.0000,3.542952
753.0000,8.648827
754.0000,3.741329
755.0000,15.055106
756.0000,15.790765
757.0000,16.784494
758.0000,16.586853
759.0000,2.438167
760.0000,8.569398
761.0000,11.122514
762.0000,-3.072995
763.0000,9.286608
764.0000,6.514581
765.0000,8.965124
766.0000,20.413712
767.0000,6.728566
768.0000,3.083277
769.0000,24.295634
770.0000,21.185968
771.0000,12.740433
772.0000,16.777666
773.0000,9.632307
774.0000,18.174871
775.0000,14.907966
776.0000,6.117865
777.0000,18.367366
778.0000,12.918572
779.0000,23.126145
780.0000,10.724853
781.0000,35.489625
782.0000,25.552113
783.0000,26.635824
784.0000,27.517006
785.0000,36.468402
786.0000,49.964785
787.0000,49.524798
788.0000,51.353542
789.0000,54.589319
790.0000,69.324175
791.0000,65.420164
792.0000,90.194547
793.0000,93.124798
794.0000,107.125205
795.0000,102.763029
796.0000,101.795083
797.0000,101.492613
798.0000,87.644565
799.0000,83.283103
800.0000,67.789678
801.0000,63.445683
802.0000,41.894958
803.0000,46.501684
804.0000,46.462224
805.0000,39.133089
806.0000,38.011094
807.0000,29.889224
808.0000,26.366701
809.0000,27.457372
810.0000,28.727505
811.0000,26.507398
812.0000,10.245375
813.0000,5.223602
814.0000,20.910526
815.0000,19.749257
816.0000,10.939648
817.0000,17.080312
818.0000,14.244181
819.0000,7.623790
820.0000,10.349348
821.0000,23.446535
822.0000,26.475172
823.0000,14.232585
824.0000,18.882152
825.0000,19.877086
826.0000,16.346896
827.0000,18.284133
828.0000,22.265073
829.0000,13.939148
830.0000,24.039281
831.0000,14.787988
832.0000,24.519333
833.0000,21.904036
834.0000,23.857313
835.0000,24.290907
836.0000,23.133583
837.0000,29.898999
838.0000,21.612877
839.0000,27.490124
840.0000,33.372687
841.0000,35.932811
842.0000,45.292283
843.0000,44.482416
844.0000,52.904562
845.0000,63.629734
846.0000,65.050758
847.0000,69.329088
848.0000,82.444029
849.0000,103.261772
850.0000,121.754030
851.0000,148.393845
852.0000,169.120336
853.0000,206.268030
854.0000,241.584027
855.0000,277.781051
856.0000,295.071569
857.0000,295.724614
858.0000,282.204356
859.0000,267.618107
860.0000,228.839037
861.0000,204.837140
862.0000,171.380531
863.0000,139.078906
864.0000,121.234617
865.0000,93.703082
866.0000,86.532659
867.0000,77.347883
868.0000,52.688986
869.0000,56.497626
870.0000,59.982707
871.0000,42.872444
872.0000,34.253101
873.0000,32.694142
874.0000,33.481834
875.0000,28.416804
876.0000,34.835947
877.0000,24.485864
878.0000,27.381754
879.0000,21.215583
880.0000,26.479933
881.0000,20.099753
882.0000,14.605911
883.0000,23.492078
884.0000,10.822272
885.0000,12.369695
886.0000,14.263672
887.0000,6.865668
888.0000,11.359996
889.0000,5.461854
890.0000,9.177191
891.0000,3.154689
892.0000,6.888038
893.0000,15.141497
894.0000,7.119646
895.0000,16.065373
896.0000,3.715253
897.0000,10.880546
898.0000,3.505034
899.0000,10.289918
900.0000,3.198464
901.0000,3.458407
902.0000,1.000584
903.0000,3.214105
904.0000,10.511322
905.0000,11.308295
906.0000,12.498197
907.0000,4.426309
908.0000,1.027317
909.0000,1.669971
910.0000,-2.561441
911.0000,16.319225
912.0000,-2.750681
913.0000,6.585870
914.0000,-0.111238
915.0000,0.419092
916.0000,0.242078
917.0000,-2.113147
918.0000,0.262478
919.0000,5.199720
920.0000,1.019452
921.0000,15.000754
922.0000,-13.875452
923.0000,7.866097
924.0000,6.770919
925.0000,4.108174
926.0000,6.820722
927.0000,-3.430079
928.0000,-0.508342
929.0000,9.404445
930.0000,-2.703240
931.0000,7.870381
932.0000,7.159670
933.0000,10.761916
934.0000,-1.347697
935.0000,5.267173
936.0000,16.109878
937.0000,15.713140
938.0000,-3.801158
939.0000,6.352158
940.0000,1.790829
941.0000,-2.448423
942.0000,8.319983
943.0000,6.256524
944.0000,3.408717
945.0000,-2.402444
946.0000,-0.130415
947.0000,9.681678
948.0000,-2.918562
949.0000,-0.184313
950.0000,11.264594
951.0000,7.533733
952.0000,9.269736
953.0000,-3.289605
954.0000,-2.985968
955.0000,14.556564
956.0000,-0.850472
957.0000,-1.728283
958.0000,8.907779
959.0000,-5.813077
960.0000,1.614228
961.0000,3.741921
962.0000,-3.168288
963.0000,8.113724
964.0000,-5.824784
965.0000,6.028407
966.0000,-8.008082
967.0000,8.477055
968.0000,9.994464
969.0000,-0.127585
970.0000,9.898997
971.0000,16.631004
972.0000,1.377344
973.0000,-8.316777
974.0000,6.096998
975.0000,9.140394
976.0000,3.291709
977.0000,10.128445
978.0000,-6.431600
979.0000,-3.172808
980.0000,-0.468455
981.0000,3.903377
982.0000,12.351400
983.0000,0.951064
984.0000,-2.780808
985.0000,-9.127562
986.0000,-0.880463
987.0000,0.404300
988.0000,7.197062
989.0000,16.146655
990.0000,9.981422
991.0000,10.292451
992.0000,-0.258844
993.0000,-1.133120
994.0000,-5.207456
995.0000,5.120377
996.0000,5.840834
997.0000,7.057187
998.0000,3.523307
999.0000,-5.082990
1000.0000,14.822857
1001.0000,2.228960
1002.0000,9.326082
1003.0000,2.312598
1004.0000,1.147589
1005.0000,-4.230542
1006.0000,0.457162
1007.0000,6.651813
1008.0000,-1.190570
1009.0000,-2.051364
1010.0000,1.217123
1011.0000,8.105582
1012.0000,-10.248053
1013.0000,3.703528
1014.0000,2.787520
1015.0000,2.775013
1016.0000,-1.943719
1017.0000,4.297595
1018.0000,9.645020
1019.0000,-3.782677
1020.0000,-1.643685
1021.0000,6.932643
1022.0000,0.270212
1023.0000,6.440294
1024.0000,13.542458
1025.0000,-4.898707
1026.0000,-7.754111
1027.0000,-1.058321
1028.0000,4.436398
1029.0000,3.355068
1030.0000,0.397424
1031.0000,-2.406787
1032.0000,10.377956
1033.0000,10.251928
1034.0000,2.258349
1035.0000,5.881408
1036.0000,13.652908
1037.0000,3.782689
1038.0000,6.921418
1039.0000,-4.616934
1040.0000,6.975542
1041.0000,0.357255
1042.0000,7.011735
1043.0000,2.555949
1044.0000,-0.120167
1045.0000,6.887137
1046.0000,9.756319
1047.0000,4.739314
1048.0000,6.299660
1049.0000,6.089605
1050.0000,10.294089
1051.0000,2.459831
1052.0000,16.982976
1053.0000,4.356167
1054.0000,12.347487
1055.0000,3.281667
1056.0000,21.077456
1057.0000,15.373166
1058.0000,9.643454
1059.0000,-0.020588
1060.0000,7.171479
1061.0000,7.291553
1062.0000,3.439273
1063.0000,3.707057
1064.0000,18.739800
1065.0000,10.937001
1066.0000,21.140453
1067.0000,6.401992
1068.0000,15.705209
1069.0000,21.727461
1070.0000,14.384816
1071.0000,19.795362
1072.0000,22.506097
1073.0000,24.767465
1074.0000,23.094795
1075.0000,31.553928
1076.0000,40.915916
1077.0000,35.872236
1078.0000,29.846025
1079.0000,43.694865
1080.0000,42.282090
1081.0000,51.004501
1082.0000,51.986956
1083.0000,62.736124
1084.0000,78.275969
1085.0000,93.653694
1086.0000,90.012659
1087.0000,119.672151
1088.0000,133.866386
1089.0000,158.534342
1090.0000,205.272810
1091.0000,233.599971
1092.0000,287.951722
1093.0000,335.301677
1094.0000,379.178009
1095.0000,433.609788
1096.0000,443.316374
1097.0000,434.287539
1098.0000,395.071837
1099.0000,342.964705
1100.0000,293.364247
1101.0000,238.680264
1102.0000,220.118939
1103.0000,183.481280
1104.0000,170.410544
1105.0000,165.279118
1106.0000,153.246376
1107.0000,164.354058
1108.0000,151.606852
1109.0000,168.868528
1110.0000,188.294632
1111.0000,204.433499
1112.0000,224.648312
1113.0000,253.623612
1114.0000,306.124597
1115.0000,342.612500
1116.0000,375.538449
1117.0000,377.285683
1118.0000,376.724000
1119.0000,339.872838
1120.0000,297.829697
1121.0000,242.159279
1122.0000,206.509389
1123.0000,165.313487
1124.0000,150.081645
1125.0000,122.984060
1126.0000,103.413442
1127.0000,83.464003
1128.0000,78.325004
1129.0000,75.239266
1130.0000,68.718265
1131.0000,42.852825
1132.0000,37.828993
1133.0000,46.068756
1134.0000,26.947467
1135.0000,41.795118
1136.0000,31.043111
1137.0000,29.500285
1138.0000,36.073350
1139.0000,30.785634
1140.0000,26.163731
1141.0000,5.584431
1142.0000,26.691590
1143.0000,19.496485
1144.0000,16.322288
1145.0000,23.174533
1146.0000,16.975753
1147.0000,14.413849
1148.0000,8.470302
1149.0000,25.475983
1150.0000,10.319604
1151.0000,15.882095
1152.0000,8.788623
1153.0000,13.010393
1154.0000,18.565509
1155.0000,15.946429
1156.0000,3.474662
1157.0000,12.053213
1158.0000,7.100555
1159.0000,14.799964
1160.0000,4.194099
1161.0000,3.864485
1162.0000,5.366892
1163.0000,11.284651
1164.0000,-1.931142
1165.0000,9.654864
1166.0000,4.937681
1167.0000,8.734128
1168.0000,15.965470
1169.0000,-1.613990
1170.0000,3.672316
1171.0000,1.736067
1172.0000,11.359817
1173.0000,1.547894
1174.0000,3.663507
1175.0000,8.105688
1176.0000,3.255894
1177.0000,7.161917
1178.0000,7.950176
1179.0000,9.338240
1180.0000,15.870699
1181.0000,16.728351
1182.0000,1.136705
1183.0000,2.555684
1184.0000,3.513600
1185.0000,11.829751
1186.0000,0.181954
1187.0000,12.785291
1188.0000,10.667620
1189.0000,6.957983
1190.0000,8.399118
1191.0000,3.858001
1192.0000,13.316092
1193.0000,5.044518
1194.0000,11.895365
1195.0000,2.632465
1196.0000,-6.467523
1197.0000,-7.338242
1198.0000,9.819316
1199.0000,16.260369
1200.0000,-6.994776
1201.0000,0.450697
1202.0000,1.968273
1203.0000,4.921507
1204.0000,20.137521
1205.0000,10.493518
1206.0000,9.096124
1207.0000,-0.183205
1208.0000,4.159636
1209.0000,2.457747
1210.0000,0.717162
1211.0000,5.902615
1212.0000,11.641754
1213.0000,7.929883
1214.0000,-0.761230
1215.0000,9.222874
1216.0000,5.001961
1217.0000,-1.296402
1218.0000,-0.336160
1219.0000,11.281325
1220.0000,12.284494
1221.0000,8.337843
1222.0000,7.415407
1223.0000,2.754392
1224.0000,7.313823
1225.0000,1.624613
1226.0000,2.300092
1227.0000,6.706538
1228.0000,6.847873
1229.0000,6.310643
1230.0000,11.659563
1231.0000,-0.532517
1232.0000,11.436843
1233.0000,-4.244821
1234.0000,11.633069
1235.0000,18.147110
1236.0000,0.031656
1237.0000,8.753337
1238.0000,7.695929
1239.0000,12.156434
1240.0000,-6.437422
1241.0000,10.568946
1242.0000,10.420838
1243.0000,10.210394
1244.0000,15.567469
1245.0000,9.639329
1246.0000,16.030504
1247.0000,2.747365
1248.0000,16.348864
1249.0000,18.256917
1250.0000,9.684003
1251.0000,11.657509
1252.0000,16.849608
1253.0000,15.490952
1254.0000,13.250044
1255.0000,7.366777
1256.0000,17.427564
1257.0000,13.679851
1258.0000,12.093844
1259.0000,12.009502
1260.0000,17.714052
1261.0000,21.619845
1262.0000,30.023539
1263.0000,24.678053
1264.0000,29.041675
1265.0000,25.431442
1266.0000,31.052444
1267.0000,20.292473
1268.0000,28.783093
1269.0000,30.869734
1270.0000,41.317451
1271.0000,41.191681
1272.0000,47.121340
1273.0000,66.470613
1274.0000,63.448007
1275.0000,57.132445
1276.0000,60.181372
1277.0000,76.310028
1278.0000,96.506526
1279.0000,94.779038
1280.0000,107.925945
1281.0000,125.866015
1282.0000,146.126721
1283.0000,167.893294
1284.0000,191.139660
1285.0000,227.735380
1286.0000,256.676370
1287.0000,301.299980
1288.0000,313.024487
1289.0000,343.218801
1290.0000,343.123673
1291.0000,344.715902
1292.0000,322.676820
1293.0000,294.661687
1294.0000,260.131237
1295.0000,227.539550
1296.0000,197.299585
1297.0000,163.091033
1298.0000,137.062820
1299.0000,132.355841
1300.0000,114.912991
1301.0000,101.672297
1302.0000,91.022085
1303.0000,73.782343
1304.0000,72.457501
1305.0000,53.054225
1306.0000,52.983530
1307.0000,51.327131
1308.0000,39.577437
1309.0000,38.179028
1310.0000,35.611515
1311.0000,30.290796
1312.0000,27.709248
1313.0000,24.757851
1314.0000,30.926941
1315.0000,30.173820
1316.0000,16.722074
1317.0000,20.290652
1318.0000,16.590463
1319.0000,18.355412
1320.0000,9.357855
1321.0000,29.134919
1322.0000,21.788603
1323.0000,20.182226
1324.0000,13.945823
1325.0000,18.907058
1326.0000,20.782590
1327.0000,21.559937
1328.0000,16.125459
1329.0000,6.977746
1330.0000,6.397158
1331.0000,6.000078
1332.0000,8.546871
1333.0000,4.657145
1334.0000,17.284048
1335.0000,16.867338
1336.0000,7.692716
1337.0000,5.520283
1338.0000,9.327086
1339.0000,3.819051
1340.0000,12.174354
1341.0000,4.732693
1342.0000,2.167112
1343.0000,16.286611
1344.0000,13.991942
1345.0000,7.687699
1346.0000,3.764434
1347.0000,-6.419990
1348.0000,10.127353
1349.0000,12.964353
1350.0000,3.123686
1351.0000,4.785351
1352.0000,8.123329
1353.0000,1.484074
1354.0000,14.928322
1355.0000,4.844540
1356.0000,8.861271
1357.0000,4.159761
1358.0000,8.275321
1359.0000,5.080345
1360.0000,3.539553
1361.0000,4.701122
1362.0000,7.488026
1363.0000,10.030490
1364.0000,6.881420
1365.0000,11.399015
1366.0000,5.255637
1367.0000,7.190257
1368.0000,-1.059141
1369.0000,17.656600
1370.0000,3.798056
1371.0000,20.515658
1372.0000,23.747574
1373.0000,18.992643
1374.0000,6.130311
1375.0000,8.063380
1376.0000,10.965831
1377.0000,10.314948
1378.0000,2.355777
1379.0000,5.000869
1380.0000,10.803372
1381.0000,7.810763
1382.0000,0.512347
1383.0000,10.468686
1384.0000,16.348558
1385.0000,6.039599
1386.0000,22.960195
1387.0000,8.987504
1388.0000,19.779645
1389.0000,22.124594
1390.0000,25.897745
1391.0000,15.062462
1392.0000,18.699059
1393.0000,29.171087
1394.0000,19.841187
1395.0000,18.421791
1396.0000,33.561350
1397.0000,25.993742
1398.0000,38.817898
1399.0000,31.303073
1400.0000,37.276904
1401.0000,46.458419
1402.0000,47.064264
1403.0000,59.817367
1404.0000,64.142359
1405.0000,63.752701
1406.0000,108.376339
1407.0000,107.571920
1408.0000,124.341857
1409.0000,146.364112
1410.0000,167.969348
1411.0000,201.188234
1412.0000,220.556151
1413.0000,243.985666
1414.0000,277.563979
1415.0000,285.499604
1416.0000,296.259070
1417.0000,297.119922
1418.0000,286.871798
1419.0000,243.143382
1420.0000,224.458174
1421.0000,186.756133
1422.0000,160.917639
1423.0000,135.483196
1424.0000,122.026729
1425.0000,96.451842
1426.0000,88.010221
1427.0000,78.618817
1428.0000,77.341952
1429.0000,56.583358
1430.0000,46.500900
1431.0000,42.253121
1432.0000,38.713564
1433.0000,37.348170
1434.0000,41.910308
1435.0000,23.723030
1436.0000,30.188125
1437.0000,15.779471
1438.0000,35.425577
1439.0000,20.405350
1440.0000,25.598848
1441.0000,26.929128
1442.0000,15.765316
1443.0000,23.634749
1444.0000,25.926361
1445.0000,5.194391
1446.0000,8.974542
1447.0000,21.327004
1448.0000,6.721424
1449.0000,24.405201
1450.0000,9.500036
1451.0000,6.144211
1452.0000,18.049162
1453.0000,1.248802
1454.0000,15.109935
1455.0000,13.474033
1456.0000,13.903028
1457.0000,15.739056
1458.0000,4.827320
1459.0000,10.349327
1460.0000,1.697091
1461.0000,6.260281
1462.0000,2.981657
1463.0000,14.471669
1464.0000,9.308466
1465.0000,-0.601516
1466.0000,16.690556
1467.0000,8.293496
1468.0000,16.881941
1469.0000,-0.880611
1470.0000,7.446979
1471.0000,6.567508
1472.0000,16.648990
1473.0000,4.622154
1474.0000,0.356322
1475.0000,-1.122477
1476.0000,1.060448
1477.0000,10.315251
1478.0000,8.102117
1479.0000,1.397347
1480.0000,5.958007
1481.0000,6.245461
1482.0000,7.353582
1483.0000,12.541075
1484.0000,-1.205941
1485.0000,19.611422
1486.0000,10.217078
1487.0000,6.042373
1488.0000,14.096044
1489.0000,0.615094
1490.0000,0.132626
1491.0000,8.022630
1492.0000,0.417490
1493.0000,4.925888
1494.0000,2.435172
1495.0000,2.113835
1496.0000,3.828885
1497.0000,16.816403
1498.0000,7.399891
1499.0000,2.532401
1500.0000,9.839822
1501.0000,-1.616898
1502.0000,9.458324
1503.0000,6.345100
1504.0000,-0.840883
1505.0000,2.128288
1506.0000,0.004236
1507.0000,6.548486
1508.0000,4.247262
1509.0000,4.432291
1510.0000,12.053100
1511.0000,0.329556
1512.0000,4.789086
1513.0000,13.314344
1514.0000,6.092964
1515.0000,8.484923
1516.0000,-2.328949
1517.0000,3.322432
1518.0000,-1.939724
1519.0000,5.905206
1520.0000,10.723554
1521.0000,3.827080
1522.0000,9.956811
1523.0000,-3.012163
1524.0000,5.389550
1525.0000,11.810870
1526.0000,-0.443468
1527.0000,-7.518976
1528.0000,3.424920
1529.0000,2.255011
1530.0000,9.304239
1531.0000,14.732927
1532.0000,-2.795555
1533.0000,-0.254086
1534.0000,8.668068
1535.0000,4.404412
1536.0000,9.200995
1537.0000,6.005572
1538.0000,16.284915
1539.0000,7.060106
1540.0000,10.037741
1541.0000,1.038170
1542.0000,10.076193
1543.0000,11.120879
1544.0000,0.210213
1545.0000,-5.672777
1546.0000,5.515128
1547.0000,-2.146864
1548.0000,9.217037
1549.0000,15.158541
1550.0000,-1.832288
1551.0000,3.361725
1552.0000,11.997668
1553.0000,4.702281
1554.0000,5.974006
1555.0000,10.780093
1556.0000,2.354770
1557.0000,21.522017
1558.0000,7.968067
1559.0000,14.685933
1560.0000,9.608976
1561.0000,13.130640
1562.0000,7.964255
1563.0000,17.699979
1564.0000,20.016313
1565.0000,11.505383
1566.0000,13.359901
1567.0000,5.596368
1568.0000,17.047636
1569.0000,13.681218
1570.0000,21.244851
1571.0000,19.556364
1572.0000,27.124481
1573.0000,10.223395
1574.0000,11.861025
1575.0000,11.600964
1576.0000,15.044845
1577.0000,16.548726
1578.0000,18.293226
1579.0000,18.276635
1580.0000,22.982146
1581.0000,22.677835
1582.0000,30.290815
1583.0000,33.473106
1584.0000,35.607411
1585.0000,31.276426
1586.0000,30.237004
1587.0000,35.984894
1588.0000,35.776614
1589.0000,53.881422
1590.0000,53.143434
1591.0000,42.724194
1592.0000,58.209855
1593.0000,48.213654
1594.0000,69.642640
1595.0000,72.719582
1596.0000,79.775226
1597.0000,81.390909
1598.0000,96.175334
1599.0000,98.691352
1600.0000,135.700780
1601.0000,150.055300
1602.0000,153.106067
1603.0000,175.389680
1604.0000,215.633355
1605.0000,258.729359
1606.0000,297.609822
1607.0000,352.972747
1608.0000,425.738632
1609.0000,516.327340
1610.0000,622.630035
1611.0000,749.188782
1612.0000,877.381104
1613.0000,960.324962
1614.0000,996.311203
1615.0000,970.131514
1616.0000,862.231190
1617.0000,756.218223
1618.0000,637.141595
1619.0000,523.451496
1620.0000,430.522960
1621.0000,348.049092
1622.0000,299.155408
1623.0000,242.547412
1624.0000,221.215379
1625.0000,189.652256
1626.0000,146.848397
1627.0000,129.795544
1628.0000,129.149206
1629.0000,108.135263
1630.0000,91.172026
1631.0000,102.541862
1632.0000,79.232631
1633.0000,72.846452
1634.0000,74.735657
1635.0000,73.371869
1636.0000,66.030540
1637.0000,51.901151
1638.0000,44.757165
1639.0000,54.231822
1640.0000,35.414232
1641.0000,41.255780
1642.0000,40.960918
1643.0000,29.887461
1644.0000,31.130788
1645.0000,34.621879
1646.0000,31.623337
1647.0000,23.063077
1648.0000,23.503167
1649.0000,32.066363
1650.0000,17.591011
1651.0000,29.708521
1652.0000,22.864783
1653.0000,19.193803
1654.0000,31.893525
1655.0000,27.891566
1656.0000,21.118153
1657.0000,16.927272
1658.0000,20.144248
1659.0000,23.585632
1660.0000,16.662064
1661.0000,22.279218
1662.0000,30.757774
1663.0000,9.204795
1664.0000,13.745118
1665.0000,19.597191
1666.0000,21.489384
1667.0000,21.750398
1668.0000,21.629428
1669.0000,15.244367
1670.0000,19.370339
1671.0000,4.991835
1672.0000,15.985003
1673.0000,8.530668
1674.0000,13.002953
1675.0000,9.976703
1676.0000,19.241264
1677.0000,26.172869
1678.0000,16.511986
1679.0000,18.384944
1680.0000,0.975032
1681.0000,21.892573
1682.0000,25.459509
1683.0000,26.001500
1684.0000,34.465864
1685.0000,16.487585
1686.0000,27.071539
1687.0000,12.001265
1688.0000,24.371745
1689.0000,18.932163
1690.0000,23.616644
1691.0000,29.229625
1692.0000,31.421486
1693.0000,25.421046
1694.0000,42.900995
1695.0000,29.544841
1696.0000,24.411227
1697.0000,35.880770
1698.0000,37.700632
1699.0000,35.069044
1700.0000,41.695224
1701.0000,37.980114
1702.0000,42.395026
1703.0000,54.119048
1704.0000,59.552357
1705.0000,51.367907
1706.0000,58.324458
1707.0000,65.280244
1708.0000,58.034776
1709.0000,70.863370
1710.0000,75.715392
1711.0000,75.528519
1712.0000,91.582205
1713.0000,105.964434
1714.0000,118.559719
1715.0000,142.775457
1716.0000,143.299796
1717.0000,169.731467
1718.0000,185.435536
1719.0000,210.260510
1720.0000,237.795587
1721.0000,275.647787
1722.0000,300.411415
1723.0000,358.995861
1724.0000,407.600228
1725.0000,452.388322
1726.0000,482.447493
1727.0000,506.875316
1728.0000,522.121607
1729.0000,513.842094
1730.0000,487.343874
1731.0000,437.406314
1732.0000,394.772834
1733.0000,365.372419
1734.0000,315.527059
1735.0000,283.041799
1736.0000,257.466764
1737.0000,218.377194
1738.0000,183.433816
1739.0000,162.096228
1740.0000,150.480964
1741.0000,135.025562
1742.0000,118.831830
1743.0000,104.251340
1744.0000,100.288201
1745.0000,97.340262
1746.0000,85.142534
1747.0000,76.117214
1748.0000,57.782839
1749.0000,58.368552
1750.0000,53.113373
1751.0000,54.146001
1752.0000,54.963781
1753.0000,41.985481
1754.0000,30.186314
1755.0000,38.954905
1756.0000,40.756710
1757.0000,32.817420
1758.0000,19.630217
1759.0000,22.651137
1760.0000,25.522849
1761.0000,29.913416
1762.0000,19.349259
1763.0000,23.370586
1764.0000,20.602915
1765.0000,18.502651
1766.0000,22.644246
1767.0000,16.148990
1768.0000,25.574191
1769.0000,24.671628
1770.0000,21.089104
1771.0000,23.445322
1772.0000,19.677170
1773.0000,11.784640
1774.0000,16.903942
1775.0000,7.443660
1776.0000,23.266593
1777.0000,14.784053
1778.0000,7.904156
1779.0000,4.642440
1780.0000,11.852135
1781.0000,6.131081
1782.0000,2.121028
1783.0000,10.571276
1784.0000,6.319985
1785.0000,16.839839
1786.0000,6.271092
1787.0000,6.931503
1788.0000,10.559963
1789.0000,15.617141
1790.0000,3.794860
1791.0000,8.253002
1792.0000,8.875234
1793.0000,11.997719
1794.0000,1.931586
1795.0000,1.280690
1796.0000,-0.517121
1797.0000,2.682618
1798.0000,5.746014
1799.0000,9.616738
1800.0000,-0.020470
1801.0000,5.198440
1802.0000,14.511546
1803.0000,0.689953
1804.0000,9.587867
1805.0000,4.034749
1806.0000,11.483550
1807.0000,4.533634
1808.0000,6.825824
1809.0000,3.507755
1810.0000,9.469365
1811.0000,5.180472
1812.0000,-6.035726
1813.0000,-1.816233
1814.0000,6.752988
1815.0000,7.244216
1816.0000,1.535800
1817.0000,12.308101
1818.0000,1.649810
1819.0000,-1.151525
1820.0000,2.008465
1821.0000,-1.122885
1822.0000,-3.388655
1823.0000,6.558359
1824.0000,3.701220
1825.0000,0.558945
1826.0000,7.449474
1827.0000,0.249848
1828.0000,3.202389
1829.0000,9.012833
1830.0000,3.557636
1831.0000,-3.180294
1832.0000,-4.256007
1833.0000,1.172031
1834.0000,-2.712421
1835.0000,8.373624
1836.0000,0.387590
1837.0000,0.089154
1838.0000,1.935265
1839.0000,10.100186
1840.0000,13.668283
1841.0000,13.265530
1842.0000,-4.765986
1843.0000,5.177201
1844.0000,3.147298
1845.0000,3.343474
1846.0000,1.657114
1847.0000,4.289565
1848.0000,10.407730
1849.0000,10.068909
1850.0000,6.512261
1851.0000,7.218461
1852.0000,-6.338650
1853.0000,8.319534
1854.0000,14.408722
1855.0000,-2.449463
1856.0000,0.803137
1857.0000,6.029926
1858.0000,5.017965
1859.0000,0.871004
1860.0000,-2.357023
1861.0000,10.409408
1862.0000,7.873659
1863.0000,-8.473649
1864.0000,9.289989
1865.0000,0.616429
1866.0000,7.697235
1867.0000,1.323783
1868.0000,4.753895
1869.0000,3.233988
1870.0000,5.091783
1871.0000,-1.209922
1872.0000,3.343095
1873.0000,6.143037
1874.0000,3.390998
1875.0000,-1.679607
1876.0000,-1.544454
1877.0000,9.020678
1878.0000,-5.950304
1879.0000,12.793653
1880.0000,10.253340
1881.0000,4.688745
1882.0000,7.468239
1883.0000,1.570658
1884.0000,5.610343
1885.0000,-6.451186
1886.0000,-1.503882
1887.0000,9.316799
1888.0000,3.505533
1889.0000,-0.122933
1890.0000,-5.225939
1891.0000,-7.372022
1892.0000,-0.664828
1893.0000,-0.463279
1894.0000,-4.168848
1895.0000,-6.615663
1896.0000,-1.549582
1897.0000,8.785370
1898.0000,2.546320
1899.0000,-2.244124
1900.0000,10.817861
1901.0000,-5.790522
1902.0000,5.457212
1903.0000,-2.507874
1904.0000,-4.602754
1905.0000,7.504663
1906.0000,3.328200
1907.0000,7.681312
1908.0000,7.940735
1909.0000,1.513055
1910.0000,-8.682322
1911.0000,1.683234
1912.0000,2.327572
1913.0000,1.228928
1914.0000,-7.459147
1915.0000,-0.737659
1916.0000,3.178482
1917.0000,0.159149
1918.0000,-0.007576
1919.0000,4.842823
1920.0000,2.827710
1921.0000,-14.269957
1922.0000,2.494263
1923.0000,3.996632
1924.0000,3.431833
1925.0000,1.892109
1926.0000,-7.329939
1927.0000,1.795667
1928.0000,3.667090
1929.0000,-3.940774
1930.0000,-0.038935
1931.0000,-4.375335
1932.0000,-9.611080
1933.0000,1.456078
1934.0000,4.254016
1935.0000,6.049206
1936.0000,-5.927245
1937.0000,8.376825
1938.0000,-4.759395
1939.0000,2.333519
1940.0000,-3.538734
1941.0000,-4.224516
1942.0000,-3.290677
1943.0000,1.100219
1944.0000,3.616287
1945.0000,6.007123
1946.0000,-6.187364
1947.0000,-3.840639
1948.0000,1.811334
1949.0000,1.945076
1950.0000,-2.171622
1951.0000,7.933303
1952.0000,9.513311
1953.0000,-2.025598
1954.0000,-4.620503
1955.0000,-1.586897
1956.0000,1.747558
1957.0000,0.250997
1958.0000,7.978855
1959.0000,-0.940065
1960.0000,3.970996
1961.0000,-4.584410
1962.0000,4.059453
1963.0000,1.421703
1964.0000,0.567842
1965.0000,6.634123
1966.0000,2.215647
1967.0000,7.166299
1968.0000,14.699382
1969.0000,-3.812406
1970.0000,9.165754
1971.0000,3.380749
1972.0000,-13.307269
1973.0000,5.470499
1974.0000,9.093721
1975.0000,-2.052437
1976.0000,-5.887430
1977.0000,-1.047464
1978.0000,-5.268714
1979.0000,-2.282570
1980.0000,7.140942
1981.0000,1.173385
1982.0000,13.504515
1983.0000,-9.780996
1984.0000,-1.659122
1985.0000,-6.784847
1986.0000,-3.832068
1987.0000,-3.766137
1988.0000,-5.280235
1989.0000,-0.297085
1990.0000,-1.724475
1991.0000,-10.579995
1992.0000,2.133986
1993.0000,-4.285238
1994.0000,0.616398
1995.0000,3.861106
1996.0000,-1.974356
1997.0000,-0.326179
1998.0000,-1.853707
1999.0000,-3.165176
2000.0000,-6.521085
