raman_shift_cm-1,intensity
200.0000,7.716903
201.0000,0.368012
202.0000,-4.819123
203.0000,-6.448053
204.0000,7.198820
205.0000,-1.441835
206.0000,-10.744996
207.0000,-1.524003
208.0000,1.704815
209.0000,1.803431
210.0000,6.314753
211.0000,4.477804
212.0000,-1.724679
213.0000,0.875079
214.0000,6.923602
215.0000,-3.641513
216.0000,-3.658097
217.0000,-0.798251
218.0000,-4.513044
219.0000,-3.053518
220.0000,-1.030687
221.0000,-5.947560
222.0000,-9.788562
223.0000,1.043717
224.0000,-6.315505
225.0000,-12.264502
226.0000,7.066122
227.0000,-9.770853
228.0000,1.612080
229.0000,-1.856850
230.0000,-11.943363
231.0000,5.751394
232.0000,0.907442
233.0000,4.920496
234.0000,6.573552
235.0000,10.741726
236.0000,6.214520
237.0000,3.894228
238.0000,0.224160
239.0000,0.091540
240.0000,-9.918522
241.0000,-3.354077
242.0000,-8.098677
243.0000,-5.772622
244.0000,-0.672848
245.0000,-0.431781
246.0000,-2.639213
247.0000,-0.379492
248.0000,5.709219
249.0000,-3.201688
250.0000,4.877960
251.0000,5.070260
252.0000,8.288766
253.0000,-7.553874
254.0000,-0.850027
255.0000,-8.497432
256.0000,7.174769
257.0000,2.331766
258.0000,-6.653441
259.0000,-4.301619
260.0000,-6.958914
261.0000,7.396530
262.0000,0.360264
263.0000,-2.523116
264.0000,-4.721928
265.0000,-5.582096
266.0000,6.522909
267.0000,-2.690363
268.0000,0.910637
269.0000,3.575398
270.0000,-3.955628
271.0000,-3.540287
272.0000,-6.582539
273.0000,14.433490
274.0000,2.996081
275.0000,0.548172
276.0000,-2.750983
277.0000,3.263734
278.0000,1.771595
279.0000,-7.639299
280.0000,8.141242
281.0000,2.861804
282.0000,2.142686
283.0000,4.612066
284.0000,-1.894636
285.0000,6.811157
286.0000,0.467175
287.0000,-5.334024
288.0000,-10.364606
289.0000,-7.195643
290.0000,-6.297848
291.0000,-0.911725
292.0000,-7.085721
293.0000,-5.755269
294.0000,-4.093810
295.0000,1.230425
296.0000,-2.452699
297.0000,7.217387
298.0000,-8.225428
299.0000,0.841777
300.0000,0.979522
301.0000,4.870911
302.0000,2.959674
303.0000,1.292354
304.0000,-2.980427
305.0000,-4.026113
306.0000,5.129970
307.0000,-7.833922
308.0000,-3.918631
309.0000,-2.973267
310.0000,0.365578
311.0000,-12.200385
312.0000,-2.796014
313.0000,-2.934979
314.0000,3.250637
315.0000,-2.212847
316.0000,-5.842537
317.0000,2.617877
318.0000,-4.442489
319.0000,-1.816344
320.0000,-3.319697
321.0000,-2.257074
322.0000,3.052085
323.0000,-5.138214
324.0000,0.522726
325.0000,-1.656561
326.0000,5.203679
327.0000,-3.715465
328.0000,-2.035027
329.0000,9.843155
330.0000,4.912607
331.0000,-8.294214
332.0000,8.868444
333.0000,9.498688
334.0000,-1.385315
335.0000,0.479778
336.0000,8.333957
337.0000,0.862272
338.0000,16.150479
339.0000,-6.923261
340.0000,-1.413082
341.0000,-1.278471
342.0000,-5.182134
343.0000,-10.631848
344.0000,2.828376
345.0000,-8.441575
346.0000,4.637793
347.0000,2.218110
348.0000,-3.006233
349.0000,-6.448853
350.0000,-6.049453
351.0000,-2.766443
352.0000,-4.441669
353.0000,-8.164200
354.0000,6.628791
355.0000,-4.742514
356.0000,1.937644
357.0000,-7.996781
358.0000,-10.053182
359.0000,2.934254
360.0000,0.954765
361.0000,-9.233186
362.0000,2.871710
363.0000,-1.908004
364.0000,-4.697685
365.0000,7.086883
366.0000,1.511783
367.0000,-4.105361
368.0000,1.776270
369.0000,-1.429361
370.0000,-4.133946
371.0000,0.562854
372.0000,-6.347527
373.0000,-10.426113
374.0000,-8.338243
375.0000,4.764809
376.0000,0.316325
377.0000,7.478303
378.0000,5.347082
379.0000,-0.916906
380.0000,-3.662116
381.0000,2.100095
382.0000,3.807814
383.0000,-0.514206
384.0000,-1.933448
385.0000,1.424831
386.0000,-7.578945
387.0000,-5.528956
388.0000,-6.152027
389.0000,6.313024
390.0000,10.072904
391.0000,1.694282
392.0000,1.674210
393.0000,-1.643465
394.0000,-0.499448
395.0000,8.295307
396.0000,12.186127
397.0000,7.738335
398.0000,0.312840
399.0000,7.318692
400.0000,11.933370
401.0000,-3.418386
402.0000,4.204864
403.0000,3.752284
404.0000,3.058479
405.0000,-8.138677
406.0000,13.709004
407.0000,-2.020512
408.0000,4.308515
409.0000,9.440271
410.0000,-1.797733
411.0000,3.646181
412.0000,-10.238952
413.0000,9.432798
414.0000,2.704431
415.0000,-6.549165
416.0000,10.324954
417.0000,4.556341
418.0000,8.820702
419.0000,7.298630
420.0000,-0.697955
421.0000,-4.226848
422.0000,1.488279
423.0000,-4.128550
424.0000,9.258466
425.0000,-11.221164
426.0000,-7.626837
427.0000,8.506064
428.0000,13.459375
429.0000,-12.070751
430.0000,-10.116983
431.0000,3.191458
432.0000,1.562019
433.0000,6.886573
434.0000,-5.198348
435.0000,0.508564
436.0000,-6.391559
437.0000,0.873776
438.0000,4.762501
439.0000,11.077969
440.0000,-1.804084
441.0000,-2.565749
442.0000,1.476625
443.0000,-7.193930
444.0000,-7.963014
445.0000,8.919084
446.0000,1.198722
447.0000,-9.622801
448.0000,-1.781412
449.0000,-1.838470
450.0000,1.005031
451.0000,-6.940424
452.0000,-3.261142
453.0000,3.222967
454.0000,0.529877
455.0000,2.579748
456.0000,8.510278
457.0000,-3.466599
458.0000,2.213041
459.0000,-1.430274
460.0000,8.935767
461.0000,3.785379
462.0000,-1.512029
463.0000,-8.971480
464.0000,2.308903
465.0000,-1.784196
466.0000,1.245537
467.0000,1.559495
468.0000,-4.378297
469.0000,-2.823159
470.0000,-1.423845
471.0000,2.652396
472.0000,0.372507
473.0000,2.628024
474.0000,2.205730
475.0000,-2.456071
476.0000,2.497850
477.0000,-5.477446
478.0000,-10.511470
479.0000,6.658710
480.0000,-8.333822
481.0000,-3.661232
482.0000,-4.287381
483.0000,-0.289345
484.0000,0.858268
485.0000,6.490704
486.0000,3.542800
487.0000,-6.293901
488.0000,4.437284
489.0000,5.132968
490.0000,-1.823060
491.0000,-7.310405
492.0000,-6.474747
493.0000,-1.162474
494.0000,7.980674
495.0000,-1.159705
496.0000,-2.532691
497.0000,-4.975698
498.0000,-10.717505
499.0000,4.365254
500.0000,2.011604
501.0000,-5.368726
502.0000,12.448323
503.0000,-1.621021
504.0000,-11.486430
505.0000,-2.514740
506.0000,-6.345455
507.0000,-4.339201
508.0000,2.973761
509.0000,2.395415
510.0000,10.562389
511.0000,-2.426164
512.0000,3.433276
513.0000,1.566577
514.0000,3.584483
515.0000,-1.755286
516.0000,1.732460
517.0000,3.347013
518.0000,0.707857
519.0000,-1.414681
520.0000,6.126338
521.0000,-9.418658
522.0000,-12.580601
523.0000,0.666181
524.0000,0.141587
525.0000,2.153351
526.0000,3.331890
527.0000,-6.053579
528.0000,3.179919
529.0000,5.357969
530.0000,-5.566555
531.0000,-2.126044
532.0000,10.551804
533.0000,-8.520338
534.0000,-0.666646
535.0000,-5.180730
536.0000,5.322167
537.0000,-7.196075
538.0000,5.314376
539.0000,-3.141530
540.0000,1.056268
541.0000,-3.014930
542.0000,0.603626
543.0000,-2.111547
544.0000,8.098818
545.0000,4.750697
546.0000,7.248539
547.0000,0.685854
548.0000,8.027813
549.0000,8.814915
550.0000,13.105991
551.0000,-3.847935
552.0000,4.845958
553.0000,6.298107
554.0000,-3.425766
555.0000,3.218466
556.0000,5.887194
557.0000,1.594837
558.0000,4.491011
559.0000,4.302886
560.0000,-1.638347
561.0000,-12.617843
562.0000,9.074465
563.0000,6.752439
564.0000,-11.473883
565.0000,6.059221
566.0000,8.387762
567.0000,8.236606
568.0000,3.949914
569.0000,7.783120
570.0000,5.332589
571.0000,3.956822
572.0000,6.930584
573.0000,5.376268
574.0000,1.764512
575.0000,-2.407591
576.0000,8.659843
577.0000,12.259737
578.0000,-5.467736
579.0000,2.830252
580.0000,0.745695
581.0000,-4.679276
582.0000,6.348475
583.0000,7.015960
584.0000,10.390485
585.0000,12.782954
586.0000,-0.632017
587.0000,8.591902
588.0000,7.163498
589.0000,7.870708
590.0000,2.219706
591.0000,15.584381
592.0000,21.400202
593.0000,16.367924
594.0000,12.608004
595.0000,5.273380
596.0000,9.095590
597.0000,1.669450
598.0000,8.100111
599.0000,2.769632
600.0000,5.521697
601.0000,15.126423
602.0000,12.368711
603.0000,4.540173
604.0000,7.267274
605.0000,11.506800
606.0000,6.541613
607.0000,13.236290
608.0000,9.865396
609.0000,10.249803
610.0000,19.136875
611.0000,16.802418
612.0000,18.768150
613.0000,12.589478
614.0000,26.464607
615.0000,29.195567
616.0000,25.044941
617.0000,29.324657
618.0000,23.362327
619.0000,27.259851
620.0000,43.085731
621.0000,57.195773
622.0000,50.149080
623.0000,68.145697
624.0000,68.650722
625.0000,85.696213
626.0000,93.336630
627.0000,106.076714
628.0000,146.252702
629.0000,155.169661
630.0000,170.257939
631.0000,199.346550
632.0000,206.502083
633.0000,186.671020
634.0000,176.271896
635.0000,153.556250
636.0000,139.753924
637.0000,119.077978
638.0000,100.766550
639.0000,92.326888
640.0000,69.008541
641.0000,62.523239
642.0000,49.036567
643.0000,42.305066
644.0000,43.887117
645.0000,27.526400
646.0000,28.382339
647.0000,26.887476
648.0000,29.615216
649.0000,26.042745
650.0000,19.563113
651.0000,20.575767
652.0000,18.396297
653.0000,20.093705
654.0000,19.917411
655.0000,23.140211
656.0000,6.946930
657.0000,4.370524
658.0000,18.895652
659.0000,19.356206
660.0000,19.341797
661.0000,15.534992
662.0000,11.750948
663.0000,-2.068582
664.0000,15.302972
665.0000,23.908712
666.0000,8.921935
667.0000,19.015168
668.0000,23.859745
669.0000,18.059707
670.0000,8.178726
671.0000,14.754173
672.0000,27.475635
673.0000,13.201018
674.0000,19.030479
675.0000,27.058388
676.0000,17.588341
677.0000,15.598909
678.0000,36.399971
679.0000,33.795390
680.0000,25.544680
681.0000,34.015282
682.0000,21.936897
683.0000,25.718760
684.0000,43.478603
685.0000,28.459647
686.0000,32.094529
687.0000,55.156702
688.0000,47.381616
689.0000,63.483864
690.0000,63.162877
691.0000,70.310111
692.0000,90.511485
693.0000,91.622618
694.0000,103.614231
695.0000,126.628237
696.0000,156.352739
697.0000,159.683012
698.0000,185.990834
699.0000,232.344080
700.0000,250.292005
701.0000,279.838142
702.0000,277.792071
703.0000,282.064625
704.0000,249.776329
705.0000,225.547409
706.0000,204.908861
707.0000,175.152241
708.0000,142.568385
709.0000,126.557354
710.0000,107.934492
711.0000,83.200288
712.0000,82.700729
713.0000,80.950541
714.0000,66.567603
715.0000,66.024145
716.0000,47.177536
717.0000,41.745117
718.0000,36.803782
719.0000,39.013633
720.0000,33.735887
721.0000,34.597969
722.0000,29.631458
723.0000,30.554307
724.0000,26.738039
725.0000,18.132954
726.0000,14.855935
727.0000,28.589777
728.0000,11.054085
729.0000,18.408525
730.0000,18.261604
731.0000,16.759966
732.0000,14.055351
733.0000,11.642920
734.0000,4.127555
735.0000,13.330428
736.0000,15.952568
737.0000,19.562722
738.0000,6.017975
739.0000,2.497996
740.0000,5.677599
741.0000,16.386089
742.0000,7.103496
743.0000,17.474964
744.0000,15.491213
745.0000,8.902571
746.0000,4.079789
747.0000,0.582838
748.0000,3.801403
749.0000,8.085364
750.0000,5.026615
751.0000,13.502778
752.0000,-1.699430
753.0000,4.474816
754.0000,3.668794
755.0000,12.836386
756.0000,21.729157
757.0000,11.796461
758.0000,10.652604
759.0000,8.776205
760.0000,13.470581
761.0000,7.555402
762.0000,4.407430
763.0000,16.317008
764.0000,6.728969
765.0000,17.194879
766.0000,9.806521
767.0000,10.675175
768.0000,10.551855
769.0000,8.223238
770.0000,9.519948
771.0000,19.227104
772.0000,-0.017841
773.0000,8.403949
774.0000,8.343809
775.0000,16.106047
776.0000,17.273863
777.0000,10.953483
778.0000,16.853877
779.0000,13.912539
780.0000,18.517327
781.0000,26.894208
782.0000,31.437129
783.0000,21.614184
784.0000,37.826777
785.0000,20.558323
786.0000,43.673908
787.0000,48.283746
788.0000,64.024128
789.0000,62.186903
790.0000,70.948336
791.0000,79.701730
792.0000,92.305675
793.0000,88.683020
794.0000,102.530301
795.0000,97.604535
796.0000,109.917016
797.0000,89.339496
798.0000,85.024653
799.0000,73.367779
800.0000,69.428677
801.0000,62.913485
802.0000,43.099829
803.0000,47.898319
804.0000,30.328680
805.0000,39.722580
806.0000,29.713528
807.0000,27.572289
808.0000,13.567677
809.0000,22.606658
810.0000,21.038195
811.0000,23.814972
812.0000,27.622207
813.0000,25.745300
814.0000,17.692304
815.0000,22.875402
816.0000,22.805496
817.0000,14.275366
818.0000,13.054591
819.0000,14.395470
820.0000,15.643275
821.0000,3.615160
822.0000,10.805472
823.0000,26.652320
824.0000,10.151128
825.0000,13.123394
826.0000,19.744850
827.0000,11.391218
828.0000,15.472519
829.0000,3.534026
830.0000,23.528448
831.0000,24.261213
832.0000,24.255001
833.0000,20.885433
834.0000,31.493490
835.0000,32.729501
836.0000,27.517627
837.0000,19.664134
838.0000,23.825816
839.0000,35.821677
840.0000,37.768293
841.0000,37.265447
842.0000,41.918601
843.0000,58.583775
844.0000,52.400399
845.0000,60.698722
846.0000,57.362933
847.0000,80.994248
848.0000,86.968607
849.0000,95.792637
850.0000,121.761988
851.0000,149.499528
852.0000,169.920302
853.0000,196.468944
854.0000,228.837900
855.0000,250.202691
856.0000,295.138735
857.0000,301.334117
858.0000,286.066547
859.0000,271.505564
860.0000,250.694807
861.0000,208.501435
862.0000,162.923514
863.0000,156.164730
864.0000,117.677832
865.0000,103.275746
866.0000,88.177721
867.0000,78.840706
868.0000,58.686912
869.0000,49.160221
870.0000,35.190155
871.0000,42.744928
872.0000,36.861349
873.0000,31.267671
874.0000,25.165189
875.0000,24.490695
876.0000,22.468270
877.0000,26.943911
878.0000,23.121503
879.0000,35.831533
880.0000,18.885966
881.0000,14.133414
882.0000,18.295027
883.0000,14.748856
884.0000,7.490923
885.0000,18.569201
886.0000,17.771897
887.0000,9.060883
888.0000,7.046537
889.0000,9.706008
890.0000,14.772021
891.0000,18.157715
892.0000,5.390868
893.0000,8.295660
894.0000,14.866772
895.0000,5.052645
896.0000,13.124191
897.0000,4.627578
898.0000,14.322603
899.0000,6.451626
900.0000,3.860450
901.0000,-0.490643
902.0000,5.168007
903.0000,4.894944
904.0000,10.151755
905.0000,10.323374
906.0000,-2.767674
907.0000,6.252417
908.0000,1.713475
909.0000,12.565298
910.0000,-2.533714
911.0000,1.752747
912.0000,4.743645
913.0000,8.379051
914.0000,-1.620159
915.0000,6.100241
916.0000,2.723161
917.0000,10.227689
918.0000,4.724252
919.0000,0.592681
920.0000,2.382395
921.0000,9.238403
922.0000,3.074135
923.0000,2.313055
924.0000,1.594509
925.0000,9.474859
926.0000,-3.043541
927.0000,7.963693
928.0000,3.700341
929.0000,-12.015515
930.0000,10.159349
931.0000,17.447926
932.0000,10.032033
933.0000,8.797775
934.0000,5.800030
935.0000,-5.962634
936.0000,-2.896057
937.0000,-5.132300
938.0000,3.596421
939.0000,3.676718
940.0000,9.866568
941.0000,-6.815576
942.0000,7.343216
943.0000,-1.883665
944.0000,10.524875
945.0000,1.390528
946.0000,6.294464
947.0000,-2.792421
948.0000,7.116937
949.0000,-1.098321
950.0000,-0.490814
951.0000,2.742546
952.0000,-1.620769
953.0000,9.736887
954.0000,2.472720
955.0000,-1.330684
956.0000,5.299415
957.0000,-1.889643
958.0000,0.392892
959.0000,-3.364963
960.0000,2.241764
961.0000,-1.344320
962.0000,2.232671
963.0000,6.725709
964.0000,7.467784
965.0000,4.940858
966.0000,4.710266
967.0000,-3.120522
968.0000,15.358522
969.0000,11.680885
970.0000,-0.482945
971.0000,5.115692
972.0000,6.408139
973.0000,0.353527
974.0000,4.037036
975.0000,5.456689
976.0000,10.334460
977.0000,2.275660
978.0000,-1.408013
979.0000,10.015882
980.0000,2.510373
981.0000,10.849818
982.0000,7.036198
983.0000,-2.281594
984.0000,2.947724
985.0000,5.955221
986.0000,4.501122
987.0000,-2.710284
988.0000,0.359606
989.0000,5.931846
990.0000,3.022737
991.0000,4.005894
992.0000,-0.147874
993.0000,5.828765
994.0000,6.230759
995.0000,12.990487
996.0000,0.753969
997.0000,-3.334886
998.0000,0.082445
999.0000,12.826621
1000.0000,-12.849124
1001.0000,-2.376389
1002.0000,6.937727
1003.0000,17.838810
1004.0000,7.807135
1005.0000,-4.998585
1006.0000,3.940305
1007.0000,-1.141554
1008.0000,2.539747
1009.0000,5.553720
1010.0000,0.925795
1011.0000,-2.025907
1012.0000,0.337647
1013.0000,-0.037721
1014.0000,6.898635
1015.0000,8.940338
1016.0000,-9.476775
1017.0000,4.425551
1018.0000,7.706894
1019.0000,0.094112
1020.0000,-0.238408
1021.0000,-1.447875
1022.0000,15.696664
1023.0000,7.866799
1024.0000,-10.272433
1025.0000,7.997157
1026.0000,0.009863
1027.0000,9.486275
1028.0000,-3.971855
1029.0000,8.652491
1030.0000,0.843862
1031.0000,4.435193
1032.0000,10.563397
1033.0000,8.724760
1034.0000,9.999199
1035.0000,-4.735560
1036.0000,0.445105
1037.0000,1.381109
1038.0000,-6.782042
1039.0000,11.901996
1040.0000,2.973351
1041.0000,11.112479
1042.0000,3.077197
1043.0000,1.969339
1044.0000,4.181690
1045.0000,2.061893
1046.0000,5.416823
1047.0000,6.622410
1048.0000,9.405544
1049.0000,-0.370422
1050.0000,-5.439771
1051.0000,4.369653
1052.0000,7.301272
1053.0000,-2.757608
1054.0000,12.420599
1055.0000,8.191836
1056.0000,17.466468
1057.0000,8.083902
1058.0000,1.561950
1059.0000,13.253504
1060.0000,19.407466
1061.0000,5.617455
1062.0000,11.671186
1063.0000,12.187370
1064.0000,9.794493
1065.0000,21.920773
1066.0000,16.757298
1067.0000,20.422594
1068.0000,14.015423
1069.0000,23.530001
1070.0000,27.779016
1071.0000,26.271281
1072.0000,27.614663
1073.0000,36.671006
1074.0000,26.891058
1075.0000,32.175729
1076.0000,29.594275
1077.0000,37.360845
1078.0000,43.963181
1079.0000,41.123309
1080.0000,56.169304
1081.0000,52.316159
1082.0000,50.557974
1083.0000,72.162391
1084.0000,78.408950
1085.0000,84.472965
1086.0000,99.664153
1087.0000,108.667519
1088.0000,142.780943
1089.0000,167.213069
1090.0000,199.053525
1091.0000,230.911644
1092.0000,285.458290
1093.0000,318.513519
1094.0000,389.061356
1095.0000,412.477253
1096.0000,441.356724
1097.0000,436.567897
1098.0000,396.528420
1099.0000,345.051855
1100.0000,284.938595
1101.0000,261.921649
1102.0000,224.656245
1103.0000,181.550231
1104.0000,179.933434
1105.0000,167.199501
1106.0000,151.052986
1107.0000,157.380455
1108.0000,157.489010
1109.0000,163.125765
1110.0000,176.086051
1111.0000,208.089728
1112.0000,228.609536
1113.0000,255.880457
1114.0000,298.037098
1115.0000,341.874144
1116.0000,376.745921
1117.0000,375.303843
1118.0000,374.723060
1119.0000,333.041242
1120.0000,295.110458
1121.0000,244.826407
1122.0000,208.215484
1123.0000,175.182735
1124.0000,132.708028
1125.0000,120.020899
1126.0000,108.111674
1127.0000,90.072620
1128.0000,73.956753
1129.0000,58.711028
1130.0000,62.611267
1131.0000,47.157559
1132.0000,49.538627
1133.0000,50.212787
1134.0000,41.909630
1135.0000,39.251895
1136.0000,41.984602
1137.0000,31.034290
1138.0000,22.994938
1139.0000,28.809742
1140.0000,25.590115
1141.0000,24.036178
1142.0000,22.649671
1143.0000,19.149056
1144.0000,16.680620
1145.0000,17.197832
1146.0000,12.633693
1147.0000,28.127412
1148.0000,12.398447
1149.0000,19.176993
1150.0000,15.000636
1151.0000,14.464731
1152.0000,9.197179
1153.0000,10.183192
1154.0000,4.662230
1155.0000,10.047117
1156.0000,12.241797
1157.0000,3.819208
1158.0000,13.738382
1159.0000,10.685664
1160.0000,4.938536
1161.0000,3.338870
1162.0000,10.944928
1163.0000,13.644697
1164.0000,-0.726722
1165.0000,10.397601
1166.0000,13.959183
1167.0000,8.037096
1168.0000,2.888156
1169.0000,6.582974
1170.0000,16.961946
1171.0000,10.078394
1172.0000,13.334753
1173.0000,11.509159
1174.0000,8.326182
1175.0000,15.183896
1176.0000,8.781507
1177.0000,-0.961429
1178.0000,12.290698
1179.0000,4.398778
1180.0000,16.764185
1181.0000,13.716548
1182.0000,2.363033
1183.0000,2.379291
1184.0000,11.282760
1185.0000,2.000540
1186.0000,8.586629
1187.0000,7.817594
1188.0000,6.230389
1189.0000,16.591665
1190.0000,5.269411
1191.0000,7.303765
1192.0000,-3.930548
1193.0000,0.483269
1194.0000,0.239378
1195.0000,8.972063
1196.0000,0.476143
1197.0000,1.479624
1198.0000,8.617384
1199.0000,4.524935
1200.0000,-0.624617
1201.0000,3.805030
1202.0000,0.078782
1203.0000,6.488147
1204.0000,5.828405
1205.0000,15.442295
1206.0000,13.168629
1207.0000,2.365922
1208.0000,1.855202
1209.0000,11.732642
1210.0000,-5.510054
1211.0000,11.963795
1212.0000,-5.884370
1213.0000,-2.471563
1214.0000,-4.968474
1215.0000,-1.178937
1216.0000,6.855300
1217.0000,20.597295
1218.0000,9.173413
1219.0000,13.362568
1220.0000,1.082937
1221.0000,-0.777721
1222.0000,20.755611
1223.0000,10.309177
1224.0000,-3.010700
1225.0000,-3.432469
1226.0000,-5.505883
1227.0000,16.451380
1228.0000,11.903051
1229.0000,-0.048023
1230.0000,3.771460
1231.0000,0.536612
1232.0000,6.668290
1233.0000,15.048952
1234.0000,-2.867840
1235.0000,9.829606
1236.0000,7.517960
1237.0000,-7.258863
1238.0000,3.124398
1239.0000,11.467144
1240.0000,5.629869
1241.0000,7.325239
1242.0000,6.424728
1243.0000,5.274679
1244.0000,5.414511
1245.0000,3.664694
1246.0000,-0.977197
1247.0000,12.281468
1248.0000,14.687197
1249.0000,15.130996
1250.0000,21.463063
1251.0000,3.868706
1252.0000,6.535813
1253.0000,14.856115
1254.0000,8.147569
1255.0000,12.294888
1256.0000,17.886608
1257.0000,15.037563
1258.0000,17.705178
1259.0000,14.447345
1260.0000,23.011779
1261.0000,11.011875
1262.0000,21.875299
1263.0000,15.788557
1264.0000,35.925331
1265.0000,16.219902
1266.0000,34.107019
1267.0000,29.270918
1268.0000,31.709773
1269.0000,43.401127
1270.0000,38.995117
1271.0000,31.667745
1272.0000,39.290885
1273.0000,49.433263
1274.0000,59.714800
1275.0000,63.962391
1276.0000,69.931608
1277.0000,70.600551
1278.0000,81.417695
1279.0000,96.736423
1280.0000,118.848174
1281.0000,131.447640
1282.0000,151.338285
1283.0000,156.102801
1284.0000,195.935545
1285.0000,225.373182
1286.0000,240.587290
1287.0000,288.186575
1288.0000,309.224562
1289.0000,335.891883
1290.0000,344.090075
1291.0000,328.502821
1292.0000,315.306042
1293.0000,285.644378
1294.0000,254.674370
1295.0000,231.674447
1296.0000,191.031001
1297.0000,180.993697
1298.0000,151.713481
1299.0000,133.112777
1300.0000,110.146508
1301.0000,88.578626
1302.0000,89.517666
1303.0000,78.941664
1304.0000,65.978650
1305.0000,64.540610
1306.0000,55.981232
1307.0000,54.949752
1308.0000,43.961056
1309.0000,45.426040
1310.0000,32.058483
1311.0000,29.251749
1312.0000,38.231972
1313.0000,26.973689
1314.0000,29.554679
1315.0000,24.879858
1316.0000,12.277844
1317.0000,27.960102
1318.0000,29.989256
1319.0000,10.197501
1320.0000,16.983574
1321.0000,26.432579
1322.0000,17.772500
1323.0000,12.316051
1324.0000,18.642631
1325.0000,3.238050
1326.0000,12.131438
1327.0000,20.317571
1328.0000,16.719370
1329.0000,20.934481
1330.0000,12.406906
1331.0000,10.354695
1332.0000,0.604099
1333.0000,13.985611
1334.0000,5.422199
1335.0000,3.474367
1336.0000,13.596404
1337.0000,17.242544
1338.0000,9.002296
1339.0000,5.300495
1340.0000,4.103474
1341.0000,-4.486661
1342.0000,16.020161
1343.0000,-8.732495
1344.0000,15.244547
1345.0000,19.963087
1346.0000,12.916264
1347.0000,2.568043
1348.0000,8.674852
1349.0000,9.485165
1350.0000,5.333787
1351.0000,10.243006
1352.0000,12.054169
1353.0000,16.491702
1354.0000,9.487688
1355.0000,12.367755
1356.0000,7.799821
1357.0000,4.490371
1358.0000,6.607650
1359.0000,12.536556
1360.0000,12.058640
1361.0000,10.938887
1362.0000,-1.533688
1363.0000,1.627512
1364.0000,19.899314
1365.0000,7.230525
1366.0000,9.139062
1367.0000,11.829197
1368.0000,6.653708
1369.0000,9.390379
1370.0000,17.565780
1371.0000,4.548625
1372.0000,0.691781
1373.0000,10.957418
1374.0000,8.924572
1375.0000,6.926978
1376.0000,4.492425
1377.0000,11.897023
1378.0000,12.326676
1379.0000,1.991401
1380.0000,2.480170
1381.0000,18.152031
1382.0000,12.356798
1383.0000,12.520575
1384.0000,25.919081
1385.0000,9.921970
1386.0000,23.747434
1387.0000,9.815974
1388.0000,19.667892
1389.0000,18.728374
1390.0000,26.641259
1391.0000,15.095006
1392.0000,22.255043
1393.0000,24.585479
1394.0000,28.635881
1395.0000,23.131928
1396.0000,13.421019
1397.0000,29.734249
1398.0000,36.479967
1399.0000,45.557554
1400.0000,35.467401
1401.0000,57.026887
1402.0000,43.282402
1403.0000,65.464068
1404.0000,68.309269
1405.0000,80.150970
1406.0000,84.910789
1407.0000,102.074278
1408.0000,117.564791
1409.0000,135.630522
1410.0000,155.289347
1411.0000,186.539587
1412.0000,216.651218
1413.0000,245.780272
1414.0000,283.747376
1415.0000,295.964050
1416.0000,305.633983
1417.0000,298.424407
1418.0000,277.824435
1419.0000,245.628352
1420.0000,216.660757
1421.0000,192.911447
1422.0000,152.406133
1423.0000,146.041552
1424.0000,119.860707
1425.0000,103.183245
1426.0000,83.889777
1427.0000,87.290276
1428.0000,54.997123
1429.0000,54.179185
1430.0000,50.588194
1431.0000,41.806667
1432.0000,35.620623
1433.0000,44.929352
1434.0000,44.723856
1435.0000,26.402788
1436.0000,23.877796
1437.0000,29.628733
1438.0000,23.756773
1439.0000,21.688298
1440.0000,16.137414
1441.0000,25.842920
1442.0000,26.508450
1443.0000,16.315656
1444.0000,25.151232
1445.0000,13.077009
1446.0000,12.175520
1447.0000,12.246884
1448.0000,11.182747
1449.0000,18.830553
1450.0000,0.864533
1451.0000,-0.174263
1452.0000,8.196445
1453.0000,7.989130
1454.0000,4.266176
1455.0000,14.740413
1456.0000,3.243866
1457.0000,19.168767
1458.0000,1.532483
1459.0000,11.628968
1460.0000,7.953447
1461.0000,14.251733
1462.0000,5.792395
1463.0000,8.204772
1464.0000,7.792642
1465.0000,7.798087
1466.0000,8.552451
1467.0000,13.371745
1468.0000,4.775500
1469.0000,-0.912440
1470.0000,6.791372
1471.0000,5.616776
1472.0000,6.123770
1473.0000,7.551341
1474.0000,9.039601
1475.0000,6.175249
1476.0000,6.644432
1477.0000,4.948208
1478.0000,3.510977
1479.0000,0.340052
1480.0000,13.582319
1481.0000,0.826634
1482.0000,10.951335
1483.0000,15.589353
1484.0000,11.138238
1485.0000,1.673980
1486.0000,11.744156
1487.0000,10.906845
1488.0000,0.622848
1489.0000,7.218727
1490.0000,4.731226
1491.0000,5.564137
1492.0000,10.967361
1493.0000,0.466501
1494.0000,3.941292
1495.0000,9.462117
1496.0000,1.138489
1497.0000,18.610214
1498.0000,2.762836
1499.0000,-1.671230
1500.0000,2.267475
1501.0000,3.661462
1502.0000,9.338576
1503.0000,7.790412
1504.0000,-4.848399
1505.0000,-3.095915
1506.0000,14.142774
1507.0000,12.186060
1508.0000,11.632096
1509.0000,-5.202493
1510.0000,-2.887861
1511.0000,9.967856
1512.0000,8.073374
1513.0000,-3.671790
1514.0000,11.445456
1515.0000,5.500967
1516.0000,18.841960
1517.0000,4.462952
1518.0000,-0.915828
1519.0000,9.772942
1520.0000,-0.317488
1521.0000,-3.737930
1522.0000,3.143803
1523.0000,-2.611430
1524.0000,8.674537
1525.0000,4.621670
1526.0000,8.304179
1527.0000,10.691841
1528.0000,5.285351
1529.0000,-1.091405
1530.0000,2.464571
1531.0000,10.670067
1532.0000,5.170464
1533.0000,-2.383551
1534.0000,2.622982
1535.0000,4.756423
1536.0000,14.223864
1537.0000,1.968894
1538.0000,-2.439191
1539.0000,2.907766
1540.0000,-2.989338
1541.0000,19.185851
1542.0000,-2.428500
1543.0000,4.416977
1544.0000,12.638337
1545.0000,2.252037
1546.0000,6.687787
1547.0000,4.568979
1548.0000,6.962943
1549.0000,2.922206
1550.0000,9.726582
1551.0000,18.382104
1552.0000,12.724379
1553.0000,4.459899
1554.0000,11.092687
1555.0000,11.629396
1556.0000,13.256178
1557.0000,15.489825
1558.0000,12.633835
1559.0000,3.368393
1560.0000,9.664001
1561.0000,9.216496
1562.0000,10.534160
1563.0000,17.502808
1564.0000,15.135548
1565.0000,12.399573
1566.0000,24.609103
1567.0000,17.151932
1568.0000,2.332622
1569.0000,15.792592
1570.0000,18.584817
1571.0000,16.201371
1572.0000,30.763925
1573.0000,23.839741
1574.0000,16.584941
1575.0000,26.908935
1576.0000,18.501003
1577.0000,23.657580
1578.0000,15.808037
1579.0000,29.043572
1580.0000,27.569727
1581.0000,33.724942
1582.0000,40.316029
1583.0000,29.046575
1584.0000,30.285864
1585.0000,21.144331
1586.0000,34.409177
1587.0000,39.785343
1588.0000,40.069838
1589.0000,46.344614
1590.0000,38.815280
1591.0000,44.447022
1592.0000,56.917956
1593.0000,56.552391
1594.0000,67.245107
1595.0000,60.065454
1596.0000,81.877996
1597.0000,88.616180
1598.0000,104.699502
1599.0000,117.671360
1600.0000,131.339468
1601.0000,142.545600
1602.0000,152.560663
1603.0000,190.019005
1604.0000,212.396168
1605.0000,248.822609
1606.0000,293.913979
1607.0000,353.553325
1608.0000,436.824038
1609.0000,519.034580
1610.0000,633.074981
1611.0000,755.936567
1612.0000,866.750117
1613.0000,954.661361
1614.0000,999.131847
1615.0000,967.126170
1616.0000,870.218723
1617.0000,745.851940
1618.0000,638.521583
1619.0000,515.253765
1620.0000,423.060895
1621.0000,347.268829
1622.0000,300.579845
1623.0000,250.104485
1624.0000,201.919604
1625.0000,188.342955
1626.0000,164.254759
1627.0000,137.054916
1628.0000,127.549585
1629.0000,108.970873
1630.0000,101.336261
1631.0000,94.970461
1632.0000,76.269946
1633.0000,69.007004
1634.0000,72.104485
1635.0000,69.419669
1636.0000,58.736768
1637.0000,51.873127
1638.0000,36.210217
1639.0000,38.610416
1640.0000,41.854580
1641.0000,41.813217
1642.0000,31.360566
1643.0000,35.024743
1644.0000,24.316968
1645.0000,21.251849
1646.0000,33.960570
1647.0000,42.820114
1648.0000,25.163419
1649.0000,25.953955
1650.0000,27.948756
1651.0000,22.319512
1652.0000,25.181534
1653.0000,29.761141
1654.0000,25.677325
1655.0000,7.429507
1656.0000,25.080582
1657.0000,21.222054
1658.0000,7.531010
1659.0000,36.351462
1660.0000,27.083161
1661.0000,20.964319
1662.0000,22.163341
1663.0000,13.831527
1664.0000,27.782744
1665.0000,16.881919
1666.0000,9.565694
1667.0000,23.424336
1668.0000,13.089934
1669.0000,16.488504
1670.0000,15.770712
1671.0000,18.123387
1672.0000,23.704785
1673.0000,15.209837
1674.0000,14.810795
1675.0000,16.351299
1676.0000,14.492436
1677.0000,20.932374
1678.0000,13.147941
1679.0000,11.013990
1680.0000,16.236235
1681.0000,24.684267
1682.0000,21.334748
1683.0000,21.933831
1684.0000,20.127553
1685.0000,22.919948
1686.0000,31.747383
1687.0000,19.205642
1688.0000,23.285548
1689.0000,27.101198
1690.0000,26.915655
1691.0000,26.987984
1692.0000,19.487874
1693.0000,30.254269
1694.0000,28.817808
1695.0000,31.644485
1696.0000,48.843884
1697.0000,31.456324
1698.0000,40.592956
1699.0000,31.228759
1700.0000,34.078939
1701.0000,39.981625
1702.0000,36.863628
1703.0000,38.755506
1704.0000,48.670330
1705.0000,62.270395
1706.0000,52.242296
1707.0000,59.860282
1708.0000,61.371800
1709.0000,83.630139
1710.0000,77.957174
1711.0000,94.223066
1712.0000,93.230558
1713.0000,103.567873
1714.0000,115.134283
1715.0000,131.412918
1716.0000,156.531148
1717.0000,161.231433
1718.0000,204.357194
1719.0000,208.251635
1720.0000,256.448595
1721.0000,275.658305
1722.0000,323.123335
1723.0000,362.733331
1724.0000,394.349349
1725.0000,451.546246
1726.0000,481.490566
1727.0000,513.160367
1728.0000,520.083906
1729.0000,517.246007
1730.0000,495.691648
1731.0000,439.954050
1732.0000,402.472572
1733.0000,349.532636
1734.0000,315.279358
1735.0000,269.995377
1736.0000,254.437468
1737.0000,221.247729
1738.0000,183.255286
1739.0000,159.442503
1740.0000,155.838698
1741.0000,129.519384
1742.0000,115.400225
1743.0000,111.822506
1744.0000,92.957573
1745.0000,83.247099
1746.0000,80.703813
1747.0000,72.929833
1748.0000,67.053475
1749.0000,63.347627
1750.0000,59.417546
1751.0000,46.957244
1752.0000,57.995242
1753.0000,44.270954
1754.0000,42.703907
1755.0000,41.063689
1756.0000,30.482580
1757.0000,28.832567
1758.0000,30.770550
1759.0000,28.874134
1760.0000,25.029874
1761.0000,35.888450
1762.0000,18.727631
1763.0000,21.630806
1764.0000,26.114824
1765.0000,25.636915
1766.0000,22.850886
1767.0000,13.233852
1768.0000,14.249980
1769.0000,12.390880
1770.0000,21.541152
1771.0000,18.061352
1772.0000,14.842197
1773.0000,9.825372
1774.0000,25.765652
1775.0000,15.292554
1776.0000,8.477227
1777.0000,1.913810
1778.0000,8.389898
1779.0000,22.913589
1780.0000,14.295582
1781.0000,5.899260
1782.0000,19.141576
1783.0000,20.136142
1784.0000,3.424089
1785.0000,18.188405
1786.0000,2.508677
1787.0000,11.165607
1788.0000,8.848927
1789.0000,-1.062590
1790.0000,19.556353
1791.0000,14.448315
1792.0000,17.604503
1793.0000,2.245470
1794.0000,9.881943
1795.0000,7.120139
1796.0000,1.360928
1797.0000,9.392244
1798.0000,16.540658
1799.0000,1.056339
1800.0000,2.405146
1801.0000,4.560615
1802.0000,1.653339
1803.0000,1.772761
1804.0000,-0.171655
1805.0000,-3.396613
1806.0000,4.864615
1807.0000,10.032787
1808.0000,4.610879
1809.0000,16.188124
1810.0000,9.041227
1811.0000,11.960934
1812.0000,-4.167322
1813.0000,2.160787
1814.0000,13.490329
1815.0000,3.105454
1816.0000,6.386342
1817.0000,1.216998
1818.0000,-1.155308
1819.0000,2.280330
1820.0000,1.410251
1821.0000,7.117539
1822.0000,3.920485
1823.0000,-0.943077
1824.0000,3.175054
1825.0000,4.764054
1826.0000,0.073240
1827.0000,2.430965
1828.0000,8.181227
1829.0000,10.374354
1830.0000,6.368427
1831.0000,10.788804
1832.0000,-6.487565
1833.0000,1.605484
1834.0000,12.856400
1835.0000,9.479499
1836.0000,0.320945
1837.0000,15.192057
1838.0000,5.624705
1839.0000,6.071423
1840.0000,-7.262464
1841.0000,13.038477
1842.0000,-7.254203
1843.0000,0.269302
1844.0000,2.860850
1845.0000,-1.910860
1846.0000,-4.007499
1847.0000,2.429344
1848.0000,-8.664770
1849.0000,7.233579
1850.0000,4.374613
1851.0000,3.796775
1852.0000,6.003845
1853.0000,-3.044382
1854.0000,3.689171
1855.0000,2.534652
1856.0000,17.684182
1857.0000,11.352523
1858.0000,4.186801
1859.0000,-0.330926
1860.0000,10.387462
1861.0000,2.154065
1862.0000,6.601682
1863.0000,14.585125
1864.0000,-0.088874
1865.0000,-5.234243
1866.0000,14.014644
1867.0000,-7.124726
1868.0000,8.717033
1869.0000,2.599624
1870.0000,0.759851
1871.0000,1.585938
1872.0000,-9.873883
1873.0000,3.534825
1874.0000,6.855034
1875.0000,0.387588
1876.0000,-11.905025
1877.0000,-1.919451
1878.0000,0.204337
1879.0000,8.215902
1880.0000,-9.360794
1881.0000,-7.311931
1882.0000,0.842621
1883.0000,-6.645669
1884.0000,-3.586114
1885.0000,10.488316
1886.0000,4.557372
1887.0000,-0.076534
1888.0000,6.010964
1889.0000,-2.383885
1890.0000,-10.246620
1891.0000,-12.399377
1892.0000,1.058519
1893.0000,3.702410
1894.0000,-0.880118
1895.0000,5.990334
1896.0000,11.840257
1897.0000,-6.626134
1898.0000,4.690995
1899.0000,-9.214575
1900.0000,-7.921201
1901.0000,-1.047221
1902.0000,-1.240226
1903.0000,3.101720
1904.0000,-9.881567
1905.0000,2.154439
1906.0000,3.274167
1907.0000,-2.227811
1908.0000,-4.374965
1909.0000,3.823820
1910.0000,2.153646
1911.0000,0.137705
1912.0000,10.470409
1913.0000,5.691953
1914.0000,6.094615
1915.0000,12.843216
1916.0000,-10.130014
1917.0000,-6.357846
1918.0000,-1.981507
1919.0000,-0.227830
1920.0000,-0.974985
1921.0000,-0.307792
1922.0000,3.519285
1923.0000,12.316822
1924.0000,1.490593
1925.0000,4.002773
1926.0000,-5.120224
1927.0000,-5.125870
1928.0000,-3.212231
1929.0000,4.485233
1930.0000,3.994114
1931.0000,-3.879934
1932.0000,-1.520013
1933.0000,-14.663051
1934.0000,0.244854
1935.0000,-0.045066
1936.0000,2.801183
1937.0000,-2.099713
1938.0000,0.561661
1939.0000,-3.897923
1940.0000,-3.252306
1941.0000,-4.630590
1942.0000,10.544125
1943.0000,14.638589
1944.0000,-2.457182
1945.0000,-10.792070
1946.0000,-3.088398
1947.0000,8.083905
1948.0000,-2.651749
1949.0000,-6.832614
1950.0000,10.065253
1951.0000,-5.954659
1952.0000,5.370466
1953.0000,1.813328
1954.0000,-0.329028
1955.0000,-1.576076
1956.0000,2.354688
1957.0000,-1.995485
1958.0000,-7.133280
1959.0000,10.144926
1960.0000,4.733356
1961.0000,0.075649
1962.0000,3.854928
1963.0000,8.651296
1964.0000,-3.475846
1965.0000,10.677956
1966.0000,5.358890
1967.0000,4.258414
1968.0000,13.478745
1969.0000,-6.443068
1970.0000,8.140856
1971.0000,11.429435
1972.0000,-1.962998
1973.0000,1.351549
1974.0000,5.814981
1975.0000,-1.610253
1976.0000,-4.910751
1977.0000,-3.675057
1978.0000,1.605463
1979.0000,6.279504
1980.0000,-1.721573
1981.0000,-0.806395
1982.0000,-8.844002
1983.0000,-7.489611
1984.0000,-2.622276
1985.0000,-7.135682
1986.0000,9.245284
1987.0000,-2.293511
1988.0000,-10.285541
1989.0000,9.451894
1990.0000,-2.621501
1991.0000,0.384235
1992.0000,-4.627273
1993.0000,15.168575
1994.0000,-3.918609
1995.0000,-2.851510
1996.0000,0.345990
1997.0000,8.734344
1998.0000,3.388252
1999.0000,-2.558547
2000.0000,-6.360651
