raman_shift_cm-1,intensity
200.0000,-122.290178
201.0000,-51.923667
202.0000,29.391939
203.0000,127.666970
204.0000,16.120347
205.0000,-16.025786
206.0000,98.005726
207.0000,99.004406
208.0000,-46.542924
209.0000,204.287905
210.0000,60.825565
211.0000,165.456052
212.0000,-11.829522
213.0000,50.664392
214.0000,-65.717987
215.0000,-23.991575
216.0000,24.596797
217.0000,9.888441
218.0000,137.858720
219.0000,-99.262006
220.0000,-109.210008
221.0000,182.699716
222.0000,73.101832
223.0000,4.754472
224.0000,-170.899181
225.0000,-78.413802
226.0000,76.379045
227.0000,-92.714217
228.0000,-22.076237
229.0000,-2.422392
230.0000,8.760620
231.0000,67.438393
232.0000,114.095014
233.0000,116.460108
234.0000,109.056821
235.0000,-29.828185
236.0000,38.430613
237.0000,197.523709
238.0000,-11.993421
239.0000,-26.748714
240.0000,51.841705
241.0000,38.350224
242.0000,-171.070967
243.0000,101.002649
244.0000,6.235226
245.0000,22.807697
246.0000,56.163836
247.0000,88.586574
248.0000,-43.690080
249.0000,7.993035
250.0000,1.904993
251.0000,91.901969
252.0000,-123.810865
253.0000,70.519902
254.0000,-11.818656
255.0000,-68.107078
256.0000,-119.046963
257.0000,66.425510
258.0000,-77.746371
259.0000,-40.937870
260.0000,37.684273
261.0000,2.998144
262.0000,31.761813
263.0000,54.969838
264.0000,-172.246550
265.0000,45.517650
266.0000,-67.688545
267.0000,45.697917
268.0000,115.853383
269.0000,62.049586
270.0000,-5.763513
271.0000,-85.290166
272.0000,20.541193
273.0000,115.007292
274.0000,27.911904
275.0000,-2.999569
276.0000,81.971997
277.0000,-86.139679
278.0000,61.469067
279.0000,-133.936963
280.0000,-198.133029
281.0000,138.650809
282.0000,-151.641395
283.0000,-10.859131
284.0000,113.518052
285.0000,-65.906345
286.0000,-104.616329
287.0000,-142.773222
288.0000,-57.807470
289.0000,-96.219746
290.0000,-55.846499
291.0000,-235.217910
292.0000,48.928312
293.0000,-93.193422
294.0000,83.397576
295.0000,2.995965
296.0000,70.226676
297.0000,91.201944
298.0000,99.714503
299.0000,11.225397
300.0000,-69.089363
301.0000,-115.116608
302.0000,151.354263
303.0000,23.605874
304.0000,-86.045665
305.0000,-41.163303
306.0000,-31.913837
307.0000,-90.346778
308.0000,-78.097118
309.0000,-87.263788
310.0000,74.402458
311.0000,-29.291960
312.0000,83.842081
313.0000,-34.985812
314.0000,-65.722199
315.0000,-47.359082
316.0000,-139.369607
317.0000,-75.834268
318.0000,-87.881203
319.0000,-76.019698
320.0000,-28.833210
321.0000,41.082898
322.0000,-27.771982
323.0000,37.169469
324.0000,-59.138001
325.0000,-75.191565
326.0000,-238.435258
327.0000,101.803861
328.0000,-106.940675
329.0000,54.694621
330.0000,22.988137
331.0000,-20.860559
332.0000,-45.189785
333.0000,-39.175882
334.0000,55.930996
335.0000,-19.511211
336.0000,-143.686579
337.0000,-74.816518
338.0000,-5.073799
339.0000,-30.698357
340.0000,-116.801290
341.0000,-66.827135
342.0000,-113.845642
343.0000,-15.601700
344.0000,-54.466593
345.0000,33.318152
346.0000,-4.664792
347.0000,2.028557
348.0000,203.461702
349.0000,-35.844506
350.0000,-62.635969
351.0000,99.362952
352.0000,142.064918
353.0000,39.985316
354.0000,-112.740060
355.0000,48.764046
356.0000,-43.071697
357.0000,63.499641
358.0000,65.851855
359.0000,-21.920924
360.0000,-9.423186
361.0000,26.138531
362.0000,-108.697750
363.0000,-169.906394
364.0000,181.781413
365.0000,-143.550265
366.0000,41.335940
367.0000,38.464358
368.0000,-100.987543
369.0000,112.658619
370.0000,232.858916
371.0000,55.675122
372.0000,-61.085518
373.0000,-58.273147
374.0000,51.529348
375.0000,167.003703
376.0000,47.365177
377.0000,71.335349
378.0000,102.590226
379.0000,18.064146
380.0000,-100.857084
381.0000,5.827167
382.0000,-89.013367
383.0000,21.133348
384.0000,-19.133111
385.0000,-22.384388
386.0000,95.265243
387.0000,-37.883407
388.0000,104.762050
389.0000,-46.977337
390.0000,46.202018
391.0000,2.696649
392.0000,192.881663
393.0000,-211.935290
394.0000,-73.644141
395.0000,353.513613
396.0000,7.514290
397.0000,137.073416
398.0000,-190.173403
399.0000,45.352064
400.0000,7.343230
401.0000,44.712368
402.0000,-70.675583
403.0000,31.483785
404.0000,25.579106
405.0000,-15.523212
406.0000,20.716098
407.0000,-85.601838
408.0000,-76.115437
409.0000,-44.819935
410.0000,214.080799
411.0000,14.275046
412.0000,136.952563
413.0000,-105.848157
414.0000,254.924965
415.0000,71.528996
416.0000,-106.389549
417.0000,50.945760
418.0000,-87.936645
419.0000,-102.188620
420.0000,-36.098767
421.0000,8.156256
422.0000,-58.642574
423.0000,-69.933014
424.0000,-3.495910
425.0000,12.745553
426.0000,23.797918
427.0000,58.680367
428.0000,101.478879
429.0000,15.219840
430.0000,-34.275803
431.0000,-126.990328
432.0000,89.246081
433.0000,-102.469548
434.0000,0.468228
435.0000,-43.004830
436.0000,-46.935560
437.0000,-62.182599
438.0000,29.785605
439.0000,-117.993909
440.0000,-254.226399
441.0000,-87.895452
442.0000,46.057085
443.0000,129.519734
444.0000,5.809396
445.0000,-7.862178
446.0000,-119.257179
447.0000,9.897140
448.0000,101.366276
449.0000,86.071624
450.0000,7.333368
451.0000,-80.431222
452.0000,-98.820333
453.0000,-154.779520
454.0000,56.325942
455.0000,-116.355790
456.0000,-135.670001
457.0000,-60.598117
458.0000,-34.588200
459.0000,-27.923781
460.0000,-68.419127
461.0000,38.547167
462.0000,74.580149
463.0000,57.307605
464.0000,124.609477
465.0000,-20.732173
466.0000,-84.660101
467.0000,-11.815938
468.0000,-35.082193
469.0000,56.896999
470.0000,73.192401
471.0000,5.420375
472.0000,1.572602
473.0000,26.232227
474.0000,182.900931
475.0000,44.066450
476.0000,-78.493393
477.0000,-2.845049
478.0000,-33.786554
479.0000,106.828451
480.0000,-104.715625
481.0000,-82.298654
482.0000,-35.863397
483.0000,-70.137986
484.0000,-74.570026
485.0000,9.677933
486.0000,7.350775
487.0000,-26.053489
488.0000,26.691893
489.0000,70.153663
490.0000,37.893670
491.0000,-45.177981
492.0000,-14.351451
493.0000,107.143917
494.0000,76.999855
495.0000,96.622604
496.0000,-36.348306
497.0000,-60.083655
498.0000,116.204052
499.0000,-41.619571
500.0000,-45.025726
501.0000,-118.950266
502.0000,34.651765
503.0000,14.137072
504.0000,32.493646
505.0000,87.663562
506.0000,-47.427410
507.0000,-182.181544
508.0000,228.894226
509.0000,-103.403696
510.0000,-126.773994
511.0000,102.983584
512.0000,163.379504
513.0000,-81.583238
514.0000,-109.227294
515.0000,-77.291979
516.0000,-34.305146
517.0000,163.532527
518.0000,-32.293643
519.0000,55.865945
520.0000,54.233306
521.0000,56.458879
522.0000,7.802255
523.0000,10.833515
524.0000,100.443429
525.0000,-44.608059
526.0000,53.554746
527.0000,-39.329407
528.0000,10.399501
529.0000,-23.040804
530.0000,43.762030
531.0000,-23.426494
532.0000,166.998688
533.0000,-49.604762
534.0000,-5.919325
535.0000,10.235619
536.0000,-38.646315
537.0000,-36.329459
538.0000,115.217544
539.0000,-105.388503
540.0000,78.493668
541.0000,-38.582287
542.0000,-24.339821
543.0000,20.984060
544.0000,-64.773366
545.0000,75.786153
546.0000,0.599263
547.0000,-90.653422
548.0000,56.371160
549.0000,-69.549024
550.0000,4.872694
551.0000,-6.658247
552.0000,-61.295675
553.0000,77.474630
554.0000,209.639481
555.0000,132.378978
556.0000,119.271188
557.0000,-1.114014
558.0000,-221.889105
559.0000,76.574386
560.0000,-30.272393
561.0000,-71.937848
562.0000,15.873805
563.0000,-20.635978
564.0000,59.155096
565.0000,-110.934214
566.0000,-80.967285
567.0000,-57.648197
568.0000,41.310416
569.0000,124.127460
570.0000,-107.412722
571.0000,15.717237
572.0000,9.328268
573.0000,57.816843
574.0000,12.307035
575.0000,23.508064
576.0000,-86.741961
577.0000,22.789424
578.0000,43.673776
579.0000,148.763166
580.0000,-11.286251
581.0000,-170.078878
582.0000,135.238191
583.0000,-48.404362
584.0000,-27.038546
585.0000,47.819919
586.0000,-80.655933
587.0000,-122.633342
588.0000,-25.506695
589.0000,99.444187
590.0000,-3.103904
591.0000,-61.785708
592.0000,-26.526675
593.0000,103.855828
594.0000,-58.961267
595.0000,10.715147
596.0000,22.817037
597.0000,-43.899890
598.0000,160.712747
599.0000,-95.546827
600.0000,-145.082546
601.0000,-23.442711
602.0000,69.340400
603.0000,124.390655
604.0000,-26.873960
605.0000,-16.376337
606.0000,32.770282
607.0000,93.253798
608.0000,211.870107
609.0000,134.282770
610.0000,-17.719790
611.0000,102.510463
612.0000,110.948996
613.0000,185.513971
614.0000,134.439170
615.0000,26.694541
616.0000,-22.703307
617.0000,81.313050
618.0000,248.401607
619.0000,161.835144
620.0000,285.066221
621.0000,213.601892
622.0000,-3.740896
623.0000,141.996115
624.0000,47.938800
625.0000,187.031408
626.0000,44.547854
627.0000,-154.528855
628.0000,94.824202
629.0000,-8.008612
630.0000,41.593216
631.0000,-112.435451
632.0000,6.223328
633.0000,78.603810
634.0000,37.820765
635.0000,-24.361957
636.0000,-104.843848
637.0000,84.397584
638.0000,25.849858
639.0000,93.321388
640.0000,150.273732
641.0000,-53.792007
642.0000,-34.789553
643.0000,-86.719427
644.0000,-39.878843
645.0000,170.607897
646.0000,-46.567510
647.0000,-3.926279
648.0000,93.444949
649.0000,-14.830695
650.0000,5.790686
651.0000,85.218494
652.0000,154.520657
653.0000,-17.886137
654.0000,60.229815
655.0000,-25.506776
656.0000,9.160310
657.0000,-86.119469
658.0000,-69.319386
659.0000,-50.356329
660.0000,35.864579
661.0000,-61.089839
662.0000,-10.274115
663.0000,94.135341
664.0000,-31.347177
665.0000,45.876503
666.0000,-104.443865
667.0000,-3.765748
668.0000,139.090242
669.0000,-21.535006
670.0000,30.151354
671.0000,-11.756872
672.0000,-22.768087
673.0000,8.300331
674.0000,119.602563
675.0000,-99.175441
676.0000,48.288041
677.0000,156.943936
678.0000,-14.739694
679.0000,-40.516575
680.0000,148.460933
681.0000,186.577063
682.0000,73.486333
683.0000,62.827070
684.0000,-83.448138
685.0000,77.010512
686.0000,-22.415349
687.0000,11.695344
688.0000,-97.825338
689.0000,96.844881
690.0000,-115.178241
691.0000,-146.604332
692.0000,54.435689
693.0000,125.202743
694.0000,-30.012775
695.0000,-2.801987
696.0000,-29.333219
697.0000,-93.130581
698.0000,26.479795
699.0000,-41.325986
700.0000,43.990813
701.0000,106.328397
702.0000,-95.562272
703.0000,75.989914
704.0000,17.551376
705.0000,-78.081423
706.0000,63.165332
707.0000,-51.103498
708.0000,2.316279
709.0000,-129.835969
710.0000,69.922509
711.0000,-33.822834
712.0000,-129.029925
713.0000,-59.810834
714.0000,43.614033
715.0000,45.207402
716.0000,-67.154503
717.0000,-97.859001
718.0000,36.991572
719.0000,155.043456
720.0000,8.783163
721.0000,-114.709209
722.0000,-224.990058
723.0000,30.000329
724.0000,-39.362586
725.0000,-18.530153
726.0000,-37.243206
727.0000,-16.828546
728.0000,-57.392506
729.0000,-184.951537
730.0000,130.775851
731.0000,142.161451
732.0000,-6.854204
733.0000,-39.891693
734.0000,126.714989
735.0000,-55.636764
736.0000,76.447423
737.0000,-15.927842
738.0000,77.199820
739.0000,-34.030710
740.0000,-6.722688
741.0000,-47.755029
742.0000,11.028127
743.0000,4.553342
744.0000,-39.413530
745.0000,-16.773510
746.0000,145.865863
747.0000,-39.164671
748.0000,-96.992996
749.0000,55.439737
750.0000,-51.050664
751.0000,-38.941820
752.0000,-47.146179
753.0000,47.838712
754.0000,-17.529671
755.0000,-44.242342
756.0000,-23.695335
757.0000,-91.397433
758.0000,-198.638075
759.0000,102.391753
760.0000,-48.948546
761.0000,-94.952704
762.0000,-13.157157
763.0000,207.447254
764.0000,-146.851348
765.0000,-77.589814
766.0000,-70.044766
767.0000,-71.983059
768.0000,105.185588
769.0000,-117.691843
770.0000,62.122208
771.0000,-39.356321
772.0000,43.597856
773.0000,-24.910182
774.0000,-95.739632
775.0000,-58.000630
776.0000,-43.547987
777.0000,48.871453
778.0000,94.129421
779.0000,-47.468852
780.0000,52.833425
781.0000,-111.343062
782.0000,74.860177
783.0000,-7.837430
784.0000,-109.438049
785.0000,-155.629124
786.0000,119.511550
787.0000,59.422765
788.0000,22.894840
789.0000,187.219955
790.0000,48.143058
791.0000,115.781533
792.0000,-135.668486
793.0000,102.715622
794.0000,56.957644
795.0000,31.929092
796.0000,26.766735
797.0000,54.858382
798.0000,150.366415
799.0000,72.002677
800.0000,-107.127263
801.0000,179.065336
802.0000,191.338499
803.0000,13.188013
804.0000,-3.789974
805.0000,24.610592
806.0000,53.148486
807.0000,11.339821
808.0000,-120.405381
809.0000,76.350517
810.0000,46.507639
811.0000,60.112057
812.0000,-25.198588
813.0000,6.183839
814.0000,-84.926354
815.0000,-15.338723
816.0000,20.321259
817.0000,-98.457192
818.0000,35.055449
819.0000,-172.172308
820.0000,122.373941
821.0000,-55.425100
822.0000,-0.590078
823.0000,-63.460958
824.0000,92.871664
825.0000,-83.959607
826.0000,82.763255
827.0000,168.245693
828.0000,-50.056109
829.0000,-36.070488
830.0000,-91.436098
831.0000,-104.568411
832.0000,-252.692239
833.0000,16.983662
834.0000,-25.723359
835.0000,2.096275
836.0000,189.566651
837.0000,36.800904
838.0000,7.013694
839.0000,121.022171
840.0000,20.719386
841.0000,-10.090725
842.0000,-95.276415
843.0000,-51.598004
844.0000,-57.390329
845.0000,144.767974
846.0000,162.191610
847.0000,-42.322783
848.0000,11.650102
849.0000,-192.868990
850.0000,-31.088094
851.0000,-40.134490
852.0000,-73.134750
853.0000,-109.862661
854.0000,82.330744
855.0000,-105.868227
856.0000,34.206750
857.0000,6.489348
858.0000,-13.948427
859.0000,139.347329
860.0000,11.163942
861.0000,-70.185734
862.0000,28.275906
863.0000,41.364353
864.0000,109.808486
865.0000,-238.172040
866.0000,-24.983843
867.0000,-117.992633
868.0000,-40.100850
869.0000,24.481089
870.0000,-91.562291
871.0000,67.837682
872.0000,-26.087664
873.0000,24.051898
874.0000,-127.937267
875.0000,-105.862291
876.0000,11.580154
877.0000,-58.677518
878.0000,-243.519888
879.0000,-181.291539
880.0000,148.993109
881.0000,-63.827825
882.0000,58.865780
883.0000,-143.635496
884.0000,30.778927
885.0000,-128.291366
886.0000,5.490473
887.0000,1.629236
888.0000,-65.833011
889.0000,1.905188
890.0000,74.621840
891.0000,22.367414
892.0000,62.468617
893.0000,-108.444733
894.0000,-97.978808
895.0000,-82.790095
896.0000,81.117713
897.0000,91.142770
898.0000,-84.264341
899.0000,-50.329698
900.0000,106.772035
901.0000,-190.391721
902.0000,-97.287176
903.0000,71.138728
904.0000,-84.332214
905.0000,34.201641
906.0000,1.410862
907.0000,-14.673731
908.0000,12.976246
909.0000,27.705285
910.0000,116.799000
911.0000,98.711977
912.0000,-150.857473
913.0000,59.472610
914.0000,196.487588
915.0000,-178.900522
916.0000,196.599212
917.0000,272.308730
918.0000,-19.884812
919.0000,-11.178443
920.0000,9.742858
921.0000,-9.397126
922.0000,-0.475365
923.0000,38.244278
924.0000,-80.423378
925.0000,-82.908596
926.0000,99.231084
927.0000,34.975571
928.0000,74.687749
929.0000,91.175061
930.0000,-99.596201
931.0000,4.089763
932.0000,62.839725
933.0000,-57.741391
934.0000,-49.975034
935.0000,-35.005616
936.0000,-19.086065
937.0000,-33.249141
938.0000,-82.493961
939.0000,81.969910
940.0000,107.057404
941.0000,72.596510
942.0000,-104.059290
943.0000,62.924975
944.0000,-1.097205
945.0000,153.629148
946.0000,113.699513
947.0000,113.302843
948.0000,11.153171
949.0000,-104.176191
950.0000,-87.664911
951.0000,-33.544945
952.0000,40.757880
953.0000,126.707629
954.0000,76.804641
955.0000,-58.379774
956.0000,9.194151
957.0000,36.095236
958.0000,-42.024729
959.0000,14.774461
960.0000,-17.316698
961.0000,-88.753409
962.0000,43.937839
963.0000,-2.100705
964.0000,-9.834122
965.0000,-49.883186
966.0000,-14.046185
967.0000,-13.296732
968.0000,-31.251584
969.0000,-137.916699
970.0000,-22.749361
971.0000,-43.488606
972.0000,115.417245
973.0000,41.469595
974.0000,-76.732962
975.0000,-5.225036
976.0000,71.171001
977.0000,73.508642
978.0000,27.029549
979.0000,96.373033
980.0000,131.303100
981.0000,33.530495
982.0000,120.549558
983.0000,-10.402621
984.0000,-8.996937
985.0000,129.464496
986.0000,28.482380
987.0000,6.319101
988.0000,64.647221
989.0000,-145.853356
990.0000,87.335413
991.0000,153.422594
992.0000,72.423001
993.0000,-78.006525
994.0000,160.991692
995.0000,227.825979
996.0000,252.929588
997.0000,320.265874
998.0000,578.825085
999.0000,836.901694
1000.0000,876.764303
1001.0000,980.659124
1002.0000,958.797229
1003.0000,739.518874
1004.0000,696.654935
1005.0000,329.682726
1006.0000,203.846229
1007.0000,231.084073
1008.0000,224.951284
1009.0000,86.945202
1010.0000,-21.046283
1011.0000,32.299890
1012.0000,70.851637
1013.0000,260.045398
1014.0000,60.684593
1015.0000,-15.422388
1016.0000,42.916910
1017.0000,218.566982
1018.0000,20.362380
1019.0000,63.834831
1020.0000,236.150980
1021.0000,-68.709885
1022.0000,171.349233
1023.0000,296.763405
1024.0000,-106.657750
1025.0000,-2.056782
1026.0000,152.183926
1027.0000,246.734323
1028.0000,343.002735
1029.0000,551.242148
1030.0000,436.864824
1031.0000,370.041183
1032.0000,312.405008
1033.0000,521.646920
1034.0000,368.143468
1035.0000,275.605262
1036.0000,212.771065
1037.0000,153.195295
1038.0000,127.463107
1039.0000,90.921754
1040.0000,-2.627625
1041.0000,-84.660971
1042.0000,204.267783
1043.0000,12.790540
1044.0000,28.297464
1045.0000,-2.494226
1046.0000,203.629376
1047.0000,81.121010
1048.0000,5.176630
1049.0000,-168.456889
1050.0000,125.816233
1051.0000,104.106491
1052.0000,-58.955989
1053.0000,-29.251933
1054.0000,-19.598861
1055.0000,-62.271016
1056.0000,-56.154583
1057.0000,-6.971746
1058.0000,121.553230
1059.0000,3.295675
1060.0000,72.664839
1061.0000,-164.959786
1062.0000,37.661642
1063.0000,56.543083
1064.0000,87.648140
1065.0000,168.640764
1066.0000,13.507141
1067.0000,-74.720970
1068.0000,210.169619
1069.0000,214.219960
1070.0000,-36.449560
1071.0000,129.304548
1072.0000,-65.281182
1073.0000,-82.630428
1074.0000,-134.281851
1075.0000,64.831041
1076.0000,61.495595
1077.0000,-158.416582
1078.0000,76.746361
1079.0000,-46.636594
1080.0000,115.326130
1081.0000,15.572866
1082.0000,148.572971
1083.0000,-22.595535
1084.0000,12.339637
1085.0000,-57.767649
1086.0000,44.473551
1087.0000,-109.073010
1088.0000,23.388093
1089.0000,-75.708222
1090.0000,9.626219
1091.0000,-122.523786
1092.0000,-16.863460
1093.0000,67.071342
1094.0000,-166.589737
1095.0000,-88.478514
1096.0000,110.303179
1097.0000,81.040199
1098.0000,4.407433
1099.0000,41.930815
1100.0000,134.550569
1101.0000,52.964844
1102.0000,169.336451
1103.0000,-51.543741
1104.0000,-18.066197
1105.0000,-205.753354
1106.0000,113.035398
1107.0000,-81.739117
1108.0000,-41.312108
1109.0000,-56.679829
1110.0000,-28.325546
1111.0000,115.815296
1112.0000,-78.554306
1113.0000,142.558039
1114.0000,86.125217
1115.0000,42.351053
1116.0000,93.362246
1117.0000,102.030190
1118.0000,7.169298
1119.0000,152.576180
1120.0000,105.226784
1121.0000,-1.952600
1122.0000,-51.312019
1123.0000,102.224907
1124.0000,89.658020
1125.0000,-93.897236
1126.0000,73.170184
1127.0000,36.380147
1128.0000,115.354374
1129.0000,3.657017
1130.0000,100.486251
1131.0000,34.186329
1132.0000,88.221304
1133.0000,98.209812
1134.0000,-49.954595
1135.0000,45.693335
1136.0000,69.004461
1137.0000,-49.916261
1138.0000,46.716695
1139.0000,-47.816256
1140.0000,148.049079
1141.0000,170.027606
1142.0000,-55.270559
1143.0000,58.260047
1144.0000,22.874716
1145.0000,-121.257384
1146.0000,6.730867
1147.0000,-22.416979
1148.0000,156.425738
1149.0000,98.883025
1150.0000,132.185160
1151.0000,156.909847
1152.0000,66.629560
1153.0000,145.980745
1154.0000,253.856272
1155.0000,20.945463
1156.0000,132.175100
1157.0000,213.106551
1158.0000,-5.606195
1159.0000,74.721705
1160.0000,243.929436
1161.0000,3.743442
1162.0000,125.811093
1163.0000,18.373659
1164.0000,76.000944
1165.0000,-102.243388
1166.0000,1.449209
1167.0000,16.128743
1168.0000,-95.906691
1169.0000,-13.173863
1170.0000,84.365801
1171.0000,44.508712
1172.0000,-38.286290
1173.0000,-110.935489
1174.0000,117.089815
1175.0000,15.651111
1176.0000,-13.370242
1177.0000,-6.028103
1178.0000,160.870993
1179.0000,37.673837
1180.0000,-41.637333
1181.0000,-61.270808
1182.0000,335.916312
1183.0000,289.388575
1184.0000,125.420397
1185.0000,62.107993
1186.0000,-32.155582
1187.0000,-4.411035
1188.0000,-41.173987
1189.0000,-10.293002
1190.0000,157.741161
1191.0000,138.768013
1192.0000,23.658740
1193.0000,-0.100308
1194.0000,2.026100
1195.0000,145.492666
1196.0000,-48.338641
1197.0000,-82.911804
1198.0000,17.682118
1199.0000,-144.073757
1200.0000,61.800310
1201.0000,-177.610894
1202.0000,172.807416
1203.0000,-8.304960
1204.0000,20.191458
1205.0000,-101.529631
1206.0000,51.917757
1207.0000,86.915936
1208.0000,8.652326
1209.0000,57.805261
1210.0000,-14.340231
1211.0000,125.948516
1212.0000,67.303144
1213.0000,-61.986768
1214.0000,135.546075
1215.0000,52.881769
1216.0000,-127.018508
1217.0000,65.102779
1218.0000,-64.334851
1219.0000,-135.351624
1220.0000,217.227938
1221.0000,27.939565
1222.0000,10.336100
1223.0000,83.916684
1224.0000,-62.208749
1225.0000,-36.868219
1226.0000,-96.161386
1227.0000,-104.151724
1228.0000,49.067416
1229.0000,-53.761954
1230.0000,127.576298
1231.0000,-20.681938
1232.0000,102.343981
1233.0000,-55.630308
1234.0000,87.311310
1235.0000,36.459712
1236.0000,-62.344557
1237.0000,-14.561765
1238.0000,-48.370478
1239.0000,-79.846427
1240.0000,34.061660
1241.0000,-35.053723
1242.0000,-93.423587
1243.0000,-147.901843
1244.0000,-1.715101
1245.0000,149.953002
1246.0000,-122.433904
1247.0000,-35.637344
1248.0000,93.105255
1249.0000,-100.906371
1250.0000,-43.105302
1251.0000,-254.163805
1252.0000,-127.587631
1253.0000,19.632910
1254.0000,68.678753
1255.0000,-91.353382
1256.0000,-19.253983
1257.0000,90.041398
1258.0000,88.291438
1259.0000,87.129678
1260.0000,-77.519198
1261.0000,17.095827
1262.0000,29.653562
1263.0000,-178.513492
1264.0000,-209.552690
1265.0000,-53.602403
1266.0000,-34.301089
1267.0000,-35.793145
1268.0000,34.080919
1269.0000,74.074764
1270.0000,-148.020565
1271.0000,46.921226
1272.0000,-36.102883
1273.0000,115.009324
1274.0000,13.019161
1275.0000,-157.779916
1276.0000,-0.661442
1277.0000,171.338234
1278.0000,41.566368
1279.0000,50.908446
1280.0000,-126.376748
1281.0000,36.770475
1282.0000,-28.149505
1283.0000,2.865536
1284.0000,136.780265
1285.0000,-130.941348
1286.0000,-33.997530
1287.0000,21.515238
1288.0000,-17.392943
1289.0000,-117.310276
1290.0000,-147.432262
1291.0000,107.210908
1292.0000,74.515177
1293.0000,-98.778612
1294.0000,-133.711264
1295.0000,-117.798437
1296.0000,-168.201290
1297.0000,127.297283
1298.0000,83.234631
1299.0000,-108.867233
1300.0000,-102.272259
1301.0000,78.204391
1302.0000,-18.718801
1303.0000,-183.684931
1304.0000,3.156660
1305.0000,45.937564
1306.0000,-81.295639
1307.0000,-37.483684
1308.0000,98.308487
1309.0000,88.841768
1310.0000,-34.840821
1311.0000,-36.646724
1312.0000,-48.353819
1313.0000,70.816683
1314.0000,-107.910368
1315.0000,22.622991
1316.0000,48.149399
1317.0000,37.188591
1318.0000,28.851186
1319.0000,-35.387376
1320.0000,-90.785220
1321.0000,3.070280
1322.0000,38.885338
1323.0000,-98.868905
1324.0000,-118.041104
1325.0000,-96.677435
1326.0000,-8.020384
1327.0000,-36.215157
1328.0000,-166.395243
1329.0000,59.557373
1330.0000,-149.931973
1331.0000,-50.657062
1332.0000,-89.439238
1333.0000,38.663941
1334.0000,-64.482018
1335.0000,8.740643
1336.0000,28.763368
1337.0000,65.506471
1338.0000,64.406972
1339.0000,48.625548
1340.0000,-77.727529
1341.0000,-109.326168
1342.0000,15.636632
1343.0000,10.189372
1344.0000,33.334491
1345.0000,118.862713
1346.0000,21.517086
1347.0000,70.507503
1348.0000,-16.299407
1349.0000,203.451970
1350.0000,-148.533779
1351.0000,9.602730
1352.0000,-27.216875
1353.0000,101.818843
1354.0000,-18.778918
1355.0000,50.059746
1356.0000,-105.428919
1357.0000,-61.426466
1358.0000,138.562267
1359.0000,96.402075
1360.0000,-3.008598
1361.0000,-65.612970
1362.0000,31.720617
1363.0000,35.385712
1364.0000,-94.260318
1365.0000,80.375468
1366.0000,103.817413
1367.0000,-46.230434
1368.0000,115.480725
1369.0000,116.911150
1370.0000,-31.847640
1371.0000,48.058208
1372.0000,231.337904
1373.0000,-6.464449
1374.0000,87.187903
1375.0000,25.702574
1376.0000,-3.321348
1377.0000,94.036954
1378.0000,30.851413
1379.0000,22.339207
1380.0000,126.385652
1381.0000,-104.357446
1382.0000,34.300388
1383.0000,15.343554
1384.0000,48.851156
1385.0000,66.555735
1386.0000,-7.349435
1387.0000,-83.083302
1388.0000,-1.299756
1389.0000,-13.880341
1390.0000,-217.817287
1391.0000,115.641347
1392.0000,92.361232
1393.0000,30.767359
1394.0000,-56.237716
1395.0000,93.112032
1396.0000,-67.561360
1397.0000,18.947989
1398.0000,-6.241001
1399.0000,117.815362
1400.0000,27.888384
1401.0000,-117.381025
1402.0000,41.119399
1403.0000,20.929198
1404.0000,101.977804
1405.0000,-5.431976
1406.0000,-93.505321
1407.0000,-80.873901
1408.0000,20.275884
1409.0000,-33.240615
1410.0000,-87.616098
1411.0000,-98.316258
1412.0000,-78.533353
1413.0000,63.091056
1414.0000,96.299371
1415.0000,-92.390318
1416.0000,-11.482138
1417.0000,-57.256136
1418.0000,-154.165284
1419.0000,-155.731066
1420.0000,-13.532899
1421.0000,22.613712
1422.0000,24.744775
1423.0000,21.921291
1424.0000,-72.351848
1425.0000,16.839702
1426.0000,-118.515820
1427.0000,-0.431091
1428.0000,-151.581500
1429.0000,-183.481362
1430.0000,78.993501
1431.0000,121.680377
1432.0000,139.492149
1433.0000,26.362278
1434.0000,1.710917
1435.0000,73.216076
1436.0000,56.383791
1437.0000,144.726441
1438.0000,79.333784
1439.0000,37.245127
1440.0000,96.272293
1441.0000,250.097444
1442.0000,57.605942
1443.0000,80.472015
1444.0000,194.743358
1445.0000,159.301498
1446.0000,33.204709
1447.0000,283.586202
1448.0000,348.732525
1449.0000,344.309758
1450.0000,104.040807
1451.0000,219.105560
1452.0000,195.599319
1453.0000,64.855291
1454.0000,221.584224
1455.0000,145.891438
1456.0000,8.690681
1457.0000,278.192235
1458.0000,13.782211
1459.0000,26.718071
1460.0000,-47.815977
1461.0000,60.696790
1462.0000,56.791535
1463.0000,79.293360
1464.0000,-13.265844
1465.0000,28.982057
1466.0000,106.413907
1467.0000,-51.649282
1468.0000,245.787419
1469.0000,69.926104
1470.0000,86.779960
1471.0000,33.965267
1472.0000,112.970371
1473.0000,-30.671229
1474.0000,239.423751
1475.0000,33.924355
1476.0000,149.020234
1477.0000,-60.132689
1478.0000,112.410850
1479.0000,135.403950
1480.0000,-52.357602
1481.0000,105.544059
1482.0000,9.661544
1483.0000,84.945952
1484.0000,5.758721
1485.0000,92.265833
1486.0000,157.670194
1487.0000,39.990120
1488.0000,6.401750
1489.0000,12.799441
1490.0000,66.550666
1491.0000,-75.562925
1492.0000,-122.821016
1493.0000,55.174409
1494.0000,-13.982649
1495.0000,-114.211558
1496.0000,7.014565
1497.0000,-68.125115
1498.0000,59.145330
1499.0000,-10.567161
1500.0000,24.710382
1501.0000,-36.928919
1502.0000,59.879430
1503.0000,9.496617
1504.0000,81.384035
1505.0000,71.306259
1506.0000,167.370767
1507.0000,118.135018
1508.0000,39.275917
1509.0000,80.306415
1510.0000,114.607669
1511.0000,108.082115
1512.0000,-151.679607
1513.0000,-68.348487
1514.0000,11.062626
1515.0000,-19.200260
1516.0000,5.181781
1517.0000,93.532827
1518.0000,128.260199
1519.0000,-67.995384
1520.0000,-174.697867
1521.0000,31.620231
1522.0000,180.607704
1523.0000,148.625607
1524.0000,-40.347882
1525.0000,-103.822563
1526.0000,84.001955
1527.0000,-14.536572
1528.0000,-41.404950
1529.0000,156.699501
1530.0000,-18.649386
1531.0000,-64.991982
1532.0000,15.842231
1533.0000,65.159937
1534.0000,187.436578
1535.0000,9.926479
1536.0000,-23.569188
1537.0000,-57.709072
1538.0000,-66.522753
1539.0000,40.229435
1540.0000,-14.639809
1541.0000,26.974553
1542.0000,-16.719819
1543.0000,70.242962
1544.0000,24.863804
1545.0000,49.769185
1546.0000,-80.148399
1547.0000,65.877343
1548.0000,42.411351
1549.0000,79.468016
1550.0000,22.909929
1551.0000,-103.756055
1552.0000,-40.074202
1553.0000,21.660345
1554.0000,-58.896984
1555.0000,-73.848153
1556.0000,97.474269
1557.0000,55.710918
1558.0000,-23.795805
1559.0000,140.955300
1560.0000,-54.896016
1561.0000,-94.462584
1562.0000,87.217551
1563.0000,26.638078
1564.0000,161.457805
1565.0000,120.183397
1566.0000,10.017571
1567.0000,214.900690
1568.0000,42.843564
1569.0000,46.337958
1570.0000,-27.132545
1571.0000,35.400024
1572.0000,69.978407
1573.0000,-14.339209
1574.0000,131.715645
1575.0000,113.283736
1576.0000,254.441298
1577.0000,62.858670
1578.0000,3.998368
1579.0000,128.955754
1580.0000,262.886017
1581.0000,241.362833
1582.0000,343.541893
1583.0000,337.782984
1584.0000,249.840854
1585.0000,27.098033
1586.0000,130.283852
1587.0000,214.113462
1588.0000,58.082318
1589.0000,151.392297
1590.0000,174.978544
1591.0000,168.245206
1592.0000,275.470158
1593.0000,254.816807
1594.0000,339.724072
1595.0000,237.630317
1596.0000,298.414737
1597.0000,265.986923
1598.0000,318.626981
1599.0000,592.439342
1600.0000,616.111488
1601.0000,529.113109
1602.0000,643.213459
1603.0000,620.045029
1604.0000,666.101871
1605.0000,375.359599
1606.0000,487.188519
1607.0000,369.772093
1608.0000,373.628284
1609.0000,323.641501
1610.0000,246.281868
1611.0000,175.855174
1612.0000,102.822763
1613.0000,74.763251
1614.0000,54.790928
1615.0000,-9.132831
1616.0000,12.130521
1617.0000,110.831548
1618.0000,-6.998858
1619.0000,37.269488
1620.0000,1.663542
1621.0000,-58.724776
1622.0000,-52.324757
1623.0000,-106.413543
1624.0000,1.854844
1625.0000,173.255410
1626.0000,16.703249
1627.0000,-129.743744
1628.0000,198.906372
1629.0000,-37.626776
1630.0000,54.184513
1631.0000,153.548096
1632.0000,-36.157745
1633.0000,-59.904465
1634.0000,29.343182
1635.0000,-3.210823
1636.0000,-114.033672
1637.0000,-126.883655
1638.0000,158.127955
1639.0000,52.694201
1640.0000,-56.179234
1641.0000,122.485354
1642.0000,29.877430
1643.0000,9.433500
1644.0000,-91.830871
1645.0000,-22.846197
1646.0000,-162.790460
1647.0000,-81.649015
1648.0000,-15.491891
1649.0000,-10.884781
1650.0000,-108.107434
1651.0000,-114.790818
1652.0000,76.291142
1653.0000,21.891514
1654.0000,0.374192
1655.0000,75.845327
1656.0000,-14.341892
1657.0000,130.630003
1658.0000,54.587679
1659.0000,-4.369391
1660.0000,117.169993
1661.0000,52.064374
1662.0000,52.420978
1663.0000,-69.319809
1664.0000,-52.548009
1665.0000,-43.720622
1666.0000,-38.153852
1667.0000,60.224827
1668.0000,124.873435
1669.0000,76.370634
1670.0000,-12.514859
1671.0000,85.596411
1672.0000,-77.896107
1673.0000,82.382889
1674.0000,132.647894
1675.0000,13.843014
1676.0000,-0.240716
1677.0000,50.284930
1678.0000,13.888531
1679.0000,287.059628
1680.0000,-290.493667
1681.0000,-140.052267
1682.0000,-22.342587
1683.0000,45.729690
1684.0000,90.921995
1685.0000,47.682895
1686.0000,185.703522
1687.0000,6.518720
1688.0000,-25.340604
1689.0000,-55.276417
1690.0000,40.690465
1691.0000,47.745148
1692.0000,-18.954154
1693.0000,38.991817
1694.0000,36.916014
1695.0000,88.709885
1696.0000,60.986876
1697.0000,-255.020936
1698.0000,29.385389
1699.0000,-57.737079
1700.0000,-69.456178
1701.0000,12.334339
1702.0000,56.560608
1703.0000,-36.391698
1704.0000,147.527089
1705.0000,143.021753
1706.0000,-27.540882
1707.0000,23.669410
1708.0000,-28.688514
1709.0000,-51.369454
1710.0000,33.325471
1711.0000,-90.235441
1712.0000,127.483212
1713.0000,133.998603
1714.0000,101.845565
1715.0000,-68.380159
1716.0000,45.018031
1717.0000,-52.778653
1718.0000,44.705246
1719.0000,58.095584
1720.0000,28.711635
1721.0000,-10.012277
1722.0000,22.201876
1723.0000,37.216095
1724.0000,-79.043111
1725.0000,139.864221
1726.0000,128.054569
1727.0000,-171.099932
1728.0000,-7.194614
1729.0000,-37.965969
1730.0000,-60.557538
1731.0000,-113.545088
1732.0000,10.266259
1733.0000,39.910657
1734.0000,5.616316
1735.0000,-124.153854
1736.0000,-191.646393
1737.0000,84.821792
1738.0000,46.577675
1739.0000,-237.796969
1740.0000,-110.019329
1741.0000,80.013214
1742.0000,68.463748
1743.0000,-108.797883
1744.0000,93.953608
1745.0000,21.023529
1746.0000,-24.746156
1747.0000,-67.919175
1748.0000,-84.272007
1749.0000,70.187133
1750.0000,-41.438976
1751.0000,-39.257291
1752.0000,78.729223
1753.0000,12.995218
1754.0000,45.209468
1755.0000,9.116375
1756.0000,73.690641
1757.0000,-22.985266
1758.0000,126.488800
1759.0000,-20.150947
1760.0000,38.332487
1761.0000,-56.339910
1762.0000,95.884207
1763.0000,-31.805884
1764.0000,63.031234
1765.0000,91.670960
1766.0000,-33.012408
1767.0000,161.133887
1768.0000,74.005704
1769.0000,-57.086208
1770.0000,-155.266732
1771.0000,118.099755
1772.0000,-25.611067
1773.0000,-12.522035
1774.0000,-9.694132
1775.0000,-51.218344
1776.0000,-39.280147
1777.0000,20.154044
1778.0000,44.437425
1779.0000,-84.697723
1780.0000,51.460317
1781.0000,-45.780973
1782.0000,86.890171
1783.0000,92.396417
1784.0000,84.022550
1785.0000,13.882656
1786.0000,70.546575
1787.0000,30.406701
1788.0000,-46.912104
1789.0000,-5.901717
1790.0000,70.779750
1791.0000,-100.023056
1792.0000,-59.632231
1793.0000,84.119755
1794.0000,-2.275237
1795.0000,-69.989450
1796.0000,-39.114370
1797.0000,-31.244776
1798.0000,-106.113869
1799.0000,113.151735
1800.0000,-23.715604
1801.0000,-43.003152
1802.0000,-158.788207
1803.0000,40.179045
1804.0000,-145.314723
1805.0000,-24.502725
1806.0000,-177.845967
1807.0000,227.384488
1808.0000,23.941896
1809.0000,-81.973478
1810.0000,21.575700
1811.0000,4.047390
1812.0000,141.576024
1813.0000,90.696923
1814.0000,-166.801033
1815.0000,52.340146
1816.0000,-57.255030
1817.0000,99.351809
1818.0000,120.067925
1819.0000,-167.071357
1820.0000,98.396555
1821.0000,-20.102889
1822.0000,31.314169
1823.0000,89.565759
1824.0000,15.415238
1825.0000,-34.415606
1826.0000,-1.345591
1827.0000,148.940997
1828.0000,6.227858
1829.0000,-141.366649
1830.0000,-43.281421
1831.0000,53.349531
1832.0000,-33.028911
1833.0000,-170.873594
1834.0000,51.114791
1835.0000,107.658689
1836.0000,93.070079
1837.0000,-22.978186
1838.0000,-47.636694
1839.0000,-130.021738
1840.0000,40.051250
1841.0000,104.201260
1842.0000,24.822857
1843.0000,-189.550371
1844.0000,56.852438
1845.0000,58.880021
1846.0000,31.727544
1847.0000,81.251530
1848.0000,88.249387
1849.0000,9.333069
1850.0000,20.582234
1851.0000,-101.390602
1852.0000,24.088463
1853.0000,57.971166
1854.0000,-102.990020
1855.0000,55.452046
1856.0000,38.794918
1857.0000,-17.554633
1858.0000,-24.909186
1859.0000,159.191479
1860.0000,10.397765
1861.0000,18.221316
1862.0000,-54.292297
1863.0000,21.232464
1864.0000,58.820835
1865.0000,-94.761894
1866.0000,-71.377368
1867.0000,28.946746
1868.0000,90.094139
1869.0000,70.573389
1870.0000,29.817144
1871.0000,254.929121
1872.0000,-90.619920
1873.0000,-143.174408
1874.0000,-106.403055
1875.0000,-63.728891
1876.0000,-51.245768
1877.0000,70.903795
1878.0000,-48.422945
1879.0000,-38.955749
1880.0000,-136.135164
1881.0000,21.643211
1882.0000,20.149536
1883.0000,-28.814564
1884.0000,50.203492
1885.0000,22.422701
1886.0000,-23.270168
1887.0000,134.013664
1888.0000,-94.017966
1889.0000,183.274832
1890.0000,7.689125
1891.0000,113.018201
1892.0000,55.963828
1893.0000,-35.571515
1894.0000,-52.594214
1895.0000,121.446655
1896.0000,-90.963794
1897.0000,-10.909506
1898.0000,212.911562
1899.0000,-49.449327
1900.0000,-136.020829
1901.0000,26.825641
1902.0000,104.369437
1903.0000,49.924877
1904.0000,-35.659461
1905.0000,93.308225
1906.0000,66.857185
1907.0000,22.118304
1908.0000,91.931804
1909.0000,75.029087
1910.0000,-28.389248
1911.0000,144.547948
1912.0000,25.982731
1913.0000,-20.723319
1914.0000,148.641097
1915.0000,37.811563
1916.0000,111.928430
1917.0000,-30.204283
1918.0000,-25.349761
1919.0000,-10.765118
1920.0000,41.707189
1921.0000,-185.789127
1922.0000,-3.343329
1923.0000,183.805532
1924.0000,-58.148140
1925.0000,-85.860736
1926.0000,20.060070
1927.0000,-106.184442
1928.0000,-19.044237
1929.0000,75.005830
1930.0000,-59.853461
1931.0000,195.807409
1932.0000,99.911831
1933.0000,-49.246089
1934.0000,-29.042512
1935.0000,112.054914
1936.0000,-118.593458
1937.0000,-163.937992
1938.0000,-196.144653
1939.0000,-135.326208
1940.0000,-133.567555
1941.0000,20.599091
1942.0000,187.056710
1943.0000,-100.042559
1944.0000,-198.098245
1945.0000,40.979178
1946.0000,143.339132
1947.0000,48.966215
1948.0000,9.489533
1949.0000,-55.821556
1950.0000,-149.457307
1951.0000,11.220402
1952.0000,69.796448
1953.0000,130.504050
1954.0000,185.324274
1955.0000,122.027419
1956.0000,26.977576
1957.0000,201.971826
1958.0000,-124.761771
1959.0000,36.165535
1960.0000,-6.812638
1961.0000,-67.848250
1962.0000,-70.250393
1963.0000,-52.096715
1964.0000,-50.974959
1965.0000,-217.585251
1966.0000,22.591251
1967.0000,-82.696818
1968.0000,32.993005
1969.0000,114.508033
1970.0000,-59.760619
1971.0000,98.847749
1972.0000,108.761202
1973.0000,81.871129
1974.0000,22.263493
1975.0000,18.493950
1976.0000,-4.290683
1977.0000,-13.037420
1978.0000,-3.444541
1979.0000,67.249987
1980.0000,39.597099
1981.0000,26.909316
1982.0000,-21.520281
1983.0000,37.910495
1984.0000,94.547294
1985.0000,133.092523
1986.0000,68.952326
1987.0000,-60.578746
1988.0000,-106.043507
1989.0000,25.130606
1990.0000,4.157235
1991.0000,2.530982
1992.0000,96.076143
1993.0000,-54.621076
1994.0000,-27.142068
1995.0000,90.673653
1996.0000,-20.110300
1997.0000,-111.844852
1998.0000,-22.521250
1999.0000,-164.428072
2000.0000,12.205658
