raman_shift_cm-1,intensity
200.0000,7.464880
201.0000,-2.351582
202.0000,0.410937
203.0000,1.370764
204.0000,-2.233921
205.0000,17.507188
206.0000,-5.210249
207.0000,3.699788
208.0000,-4.246286
209.0000,-7.157914
210.0000,4.698518
211.0000,3.222408
212.0000,-3.081842
213.0000,-4.129927
214.0000,-2.593301
215.0000,-0.999773
216.0000,-1.116131
217.0000,-0.818658
218.0000,1.022556
219.0000,2.180936
220.0000,-0.158389
221.0000,7.861747
222.0000,7.725778
223.0000,-0.165803
224.0000,-7.940911
225.0000,10.214585
226.0000,2.399296
227.0000,-2.078835
228.0000,5.128458
229.0000,5.841896
230.0000,13.827794
231.0000,-9.182838
232.0000,15.294262
233.0000,5.721049
234.0000,-10.139301
235.0000,-0.891532
236.0000,7.271155
237.0000,-3.000723
238.0000,1.542028
239.0000,-4.696679
240.0000,-2.346306
241.0000,10.597991
242.0000,-1.374444
243.0000,3.571854
244.0000,-1.302565
245.0000,0.829118
246.0000,-9.081310
247.0000,3.363073
248.0000,1.128462
249.0000,-1.025992
250.0000,6.746153
251.0000,9.057089
252.0000,-4.224981
253.0000,-2.975242
254.0000,5.136440
255.0000,-2.620591
256.0000,1.144762
257.0000,7.929951
258.0000,-5.849506
259.0000,9.983128
260.0000,0.233287
261.0000,-11.017098
262.0000,11.291288
263.0000,0.716156
264.0000,-8.377582
265.0000,-2.563817
266.0000,2.527922
267.0000,-4.443952
268.0000,10.841810
269.0000,7.715095
270.0000,-12.758985
271.0000,3.220309
272.0000,-0.053212
273.0000,-1.738310
274.0000,-0.762390
275.0000,5.161058
276.0000,-1.838939
277.0000,-2.409156
278.0000,-3.277897
279.0000,-6.999776
280.0000,-6.281975
281.0000,-4.091204
282.0000,-2.746385
283.0000,-4.712960
284.0000,-4.918723
285.0000,1.114167
286.0000,7.976795
287.0000,-6.196098
288.0000,3.624206
289.0000,-9.650601
290.0000,-3.730250
291.0000,-3.256172
292.0000,7.957743
293.0000,-8.628261
294.0000,-0.615919
295.0000,-3.516728
296.0000,15.297328
297.0000,-4.251598
298.0000,6.329414
299.0000,6.878107
300.0000,-3.566871
301.0000,-5.037281
302.0000,-3.347521
303.0000,-6.710087
304.0000,1.800493
305.0000,-3.498992
306.0000,8.588552
307.0000,-7.086352
308.0000,-0.373021
309.0000,-5.750714
310.0000,9.559780
311.0000,-1.130829
312.0000,-1.950414
313.0000,0.705126
314.0000,1.392481
315.0000,3.982177
316.0000,2.684608
317.0000,3.975114
318.0000,3.433548
319.0000,0.846562
320.0000,-8.763958
321.0000,-1.104233
322.0000,-1.385110
323.0000,-0.766499
324.0000,-7.832938
325.0000,5.008527
326.0000,1.040768
327.0000,-7.010515
328.0000,-1.864134
329.0000,-0.297643
330.0000,-0.441087
331.0000,12.536422
332.0000,-4.062239
333.0000,11.983824
334.0000,1.345505
335.0000,-5.555623
336.0000,-1.104296
337.0000,-0.939634
338.0000,2.711068
339.0000,7.899528
340.0000,1.492028
341.0000,-7.377570
342.0000,-8.173030
343.0000,-6.462140
344.0000,-10.559362
345.0000,-2.188284
346.0000,-2.400842
347.0000,12.451015
348.0000,-13.760714
349.0000,0.621996
350.0000,0.521761
351.0000,-1.480265
352.0000,-0.419830
353.0000,-1.790621
354.0000,-8.677218
355.0000,7.527749
356.0000,3.082200
357.0000,23.394314
358.0000,9.045450
359.0000,-3.538875
360.0000,-0.040107
361.0000,1.669572
362.0000,-3.223839
363.0000,-8.840774
364.0000,-4.835843
365.0000,1.795302
366.0000,-4.708927
367.0000,-6.975246
368.0000,-0.600895
369.0000,11.115374
370.0000,0.230798
371.0000,1.715075
372.0000,2.826893
373.0000,0.308780
374.0000,5.596075
375.0000,-2.619858
376.0000,-4.315945
377.0000,-0.944693
378.0000,4.671177
379.0000,-9.926869
380.0000,-1.645771
381.0000,-1.006096
382.0000,-5.996162
383.0000,-2.089118
384.0000,2.294726
385.0000,5.004219
386.0000,-5.607363
387.0000,-1.582683
388.0000,5.468827
389.0000,0.965239
390.0000,4.515810
391.0000,-4.688052
392.0000,5.111724
393.0000,4.338650
394.0000,0.206589
395.0000,-3.353774
396.0000,4.456908
397.0000,-8.904316
398.0000,-8.169380
399.0000,-7.159913
400.0000,-1.639424
401.0000,-7.175942
402.0000,-0.459796
403.0000,4.566552
404.0000,3.509575
405.0000,5.015264
406.0000,1.601944
407.0000,8.167312
408.0000,2.152920
409.0000,2.011542
410.0000,4.901766
411.0000,-0.469425
412.0000,2.996269
413.0000,1.016615
414.0000,-7.293089
415.0000,-10.132515
416.0000,-2.181066
417.0000,0.885362
418.0000,5.612426
419.0000,-8.782102
420.0000,-0.896284
421.0000,-8.208229
422.0000,5.260502
423.0000,6.140682
424.0000,2.847497
425.0000,4.378489
426.0000,-6.054346
427.0000,3.456905
428.0000,3.646270
429.0000,3.215146
430.0000,1.210557
431.0000,-8.337907
432.0000,0.751474
433.0000,8.056546
434.0000,-0.237598
435.0000,6.365747
436.0000,6.615240
437.0000,-9.073445
438.0000,6.213635
439.0000,-1.968538
440.0000,2.804749
441.0000,14.297414
442.0000,6.134959
443.0000,3.857433
444.0000,8.631884
445.0000,8.019491
446.0000,-8.612840
447.0000,-1.342874
448.0000,5.108991
449.0000,13.933429
450.0000,-4.167296
451.0000,-2.646730
452.0000,0.358174
453.0000,1.637273
454.0000,12.914517
455.0000,4.112132
456.0000,-0.776398
457.0000,12.466537
458.0000,3.095588
459.0000,6.630615
460.0000,5.123595
461.0000,-6.520107
462.0000,2.518105
463.0000,4.674437
464.0000,9.309445
465.0000,-4.641669
466.0000,1.543685
467.0000,7.661860
468.0000,7.703864
469.0000,-1.390104
470.0000,5.983061
471.0000,7.328041
472.0000,-1.976507
473.0000,3.597718
474.0000,8.642916
475.0000,3.358452
476.0000,-3.368116
477.0000,-3.802316
478.0000,2.284600
479.0000,-0.592648
480.0000,-3.391770
481.0000,6.413256
482.0000,3.989670
483.0000,11.124843
484.0000,8.129031
485.0000,6.237916
486.0000,2.786835
487.0000,-2.403017
488.0000,8.389542
489.0000,6.838499
490.0000,11.176570
491.0000,7.790244
492.0000,16.540200
493.0000,12.780958
494.0000,10.215940
495.0000,3.774829
496.0000,16.107422
497.0000,6.926834
498.0000,-2.479180
499.0000,21.688212
500.0000,17.203792
501.0000,25.386620
502.0000,18.131302
503.0000,20.160970
504.0000,32.285585
505.0000,29.915270
506.0000,36.240818
507.0000,41.391447
508.0000,43.392677
509.0000,41.533706
510.0000,48.535237
511.0000,67.588707
512.0000,88.668129
513.0000,109.446095
514.0000,137.625680
515.0000,163.067785
516.0000,246.415599
517.0000,327.066091
518.0000,491.601679
519.0000,716.904541
520.0000,945.148046
521.0000,1004.602928
522.0000,805.737297
523.0000,566.583203
524.0000,369.229820
525.0000,263.211868
526.0000,198.251376
527.0000,139.378252
528.0000,121.036626
529.0000,80.640794
530.0000,66.360967
531.0000,52.910633
532.0000,54.969871
533.0000,45.201535
534.0000,40.978780
535.0000,35.546475
536.0000,26.493488
537.0000,23.310681
538.0000,26.307601
539.0000,17.182789
540.0000,17.921367
541.0000,16.687897
542.0000,15.802550
543.0000,2.157227
544.0000,9.034511
545.0000,14.415429
546.0000,1.528615
547.0000,6.681867
548.0000,9.794400
549.0000,-1.234059
550.0000,11.349459
551.0000,13.221764
552.0000,12.040670
553.0000,11.534869
554.0000,8.814599
555.0000,10.826330
556.0000,11.343744
557.0000,-0.032067
558.0000,5.242559
559.0000,15.779168
560.0000,-2.500403
561.0000,3.973168
562.0000,13.688339
563.0000,13.551922
564.0000,7.934253
565.0000,2.343159
566.0000,-1.697914
567.0000,-1.392364
568.0000,-5.424698
569.0000,4.551369
570.0000,-0.646394
571.0000,3.106938
572.0000,2.995209
573.0000,4.062122
574.0000,-0.555660
575.0000,-2.594768
576.0000,13.773378
577.0000,2.297529
578.0000,-3.053009
579.0000,8.587335
580.0000,-2.245322
581.0000,1.289719
582.0000,-5.358863
583.0000,5.481191
584.0000,-2.909519
585.0000,8.822127
586.0000,8.389065
587.0000,1.043696
588.0000,-6.093385
589.0000,16.827127
590.0000,2.861319
591.0000,3.449917
592.0000,-0.373782
593.0000,9.057717
594.0000,0.763171
595.0000,0.033555
596.0000,15.283394
597.0000,-1.959759
598.0000,6.054851
599.0000,2.598731
600.0000,-2.283676
601.0000,10.899673
602.0000,0.488140
603.0000,-7.024876
604.0000,8.469822
605.0000,4.519945
606.0000,2.113065
607.0000,-6.999529
608.0000,-9.143540
609.0000,-2.979320
610.0000,-1.348227
611.0000,2.971051
612.0000,8.235325
613.0000,-5.356157
614.0000,-12.726904
615.0000,3.048324
616.0000,1.154347
617.0000,14.398321
618.0000,-0.269426
619.0000,1.670309
620.0000,-7.828410
621.0000,3.469168
622.0000,-4.074313
623.0000,6.545981
624.0000,-3.885880
625.0000,3.114280
626.0000,-5.556790
627.0000,0.175893
628.0000,10.226925
629.0000,-1.666068
630.0000,-5.023076
631.0000,0.019082
632.0000,-2.982927
633.0000,-1.877774
634.0000,9.720881
635.0000,10.171402
636.0000,0.357992
637.0000,-8.816101
638.0000,1.412232
639.0000,7.049282
640.0000,-5.726008
641.0000,-3.189611
642.0000,6.976983
643.0000,10.216628
644.0000,7.017990
645.0000,0.033278
646.0000,2.128937
647.0000,8.364703
648.0000,16.175436
649.0000,-2.303370
650.0000,0.876790
651.0000,1.499390
652.0000,0.617541
653.0000,-4.003661
654.0000,9.793144
655.0000,2.482202
656.0000,-2.320148
657.0000,-2.435930
658.0000,-8.174325
659.0000,-7.088199
660.0000,8.022159
661.0000,-0.254275
662.0000,-0.530661
663.0000,7.485089
664.0000,-1.424853
665.0000,-3.899380
666.0000,-1.003521
667.0000,1.914478
668.0000,-1.354998
669.0000,-2.604501
670.0000,7.919048
671.0000,-3.490001
672.0000,6.380526
673.0000,7.102842
674.0000,-11.678052
675.0000,-3.796963
676.0000,9.197095
677.0000,0.215245
678.0000,-3.922617
679.0000,-6.470487
680.0000,-5.150568
681.0000,11.748634
682.0000,-2.056611
683.0000,14.403713
684.0000,0.192938
685.0000,3.676225
686.0000,-13.403532
687.0000,-10.153864
688.0000,1.832945
689.0000,3.436394
690.0000,4.508202
691.0000,-1.168340
692.0000,3.555406
693.0000,-2.205401
694.0000,-8.534553
695.0000,2.136691
696.0000,0.844262
697.0000,-1.147674
698.0000,-5.269165
699.0000,11.911171
700.0000,5.305583
701.0000,3.323460
702.0000,-1.442199
703.0000,5.248218
704.0000,-2.957134
705.0000,3.820917
706.0000,-2.305408
707.0000,-2.067829
708.0000,9.314830
709.0000,-0.149486
710.0000,-6.481651
711.0000,-4.222064
712.0000,0.746487
713.0000,5.652789
714.0000,4.807758
715.0000,-3.122644
716.0000,7.220488
717.0000,-9.741478
718.0000,-4.631050
719.0000,-0.074054
720.0000,4.172914
721.0000,6.968445
722.0000,7.413824
723.0000,0.643586
724.0000,-6.414572
725.0000,-2.831487
726.0000,8.425018
727.0000,6.801855
728.0000,1.964122
729.0000,4.016463
730.0000,-4.439574
731.0000,-2.451023
732.0000,1.385138
733.0000,9.434494
734.0000,0.662607
735.0000,-1.929317
736.0000,6.439450
737.0000,4.298814
738.0000,-3.104138
739.0000,3.555220
740.0000,-6.139803
741.0000,-3.585300
742.0000,0.805416
743.0000,7.917936
744.0000,9.418333
745.0000,7.409231
746.0000,0.402502
747.0000,-3.325034
748.0000,3.526170
749.0000,-10.945026
750.0000,-3.101200
751.0000,8.394376
752.0000,7.116046
753.0000,8.269925
754.0000,0.377427
755.0000,8.326701
756.0000,-7.239649
757.0000,1.415177
758.0000,9.184116
759.0000,5.849160
760.0000,5.565374
761.0000,3.713788
762.0000,-4.175879
763.0000,-3.867601
764.0000,-4.939154
765.0000,-1.709715
766.0000,-3.337513
767.0000,5.166887
768.0000,-2.382541
769.0000,-2.986663
770.0000,-4.778613
771.0000,-1.157992
772.0000,1.010918
773.0000,11.724848
774.0000,-7.206976
775.0000,2.217264
776.0000,-10.093381
777.0000,8.477543
778.0000,-7.177771
779.0000,6.383265
780.0000,8.481825
781.0000,-1.235458
782.0000,-5.426809
783.0000,9.888321
784.0000,9.332346
785.0000,5.576486
786.0000,-16.079647
787.0000,-4.265481
788.0000,10.998783
789.0000,8.758724
790.0000,2.882442
791.0000,-7.082503
792.0000,13.356283
793.0000,10.636583
794.0000,-0.024682
795.0000,-1.141674
796.0000,-4.277510
797.0000,4.107711
798.0000,3.377131
799.0000,4.667649
800.0000,10.406060
801.0000,2.970452
802.0000,1.926852
803.0000,-4.382550
804.0000,-12.388368
805.0000,-4.590840
806.0000,-0.633840
807.0000,6.365501
808.0000,4.743733
809.0000,9.520018
810.0000,-3.037184
811.0000,-5.367120
812.0000,5.997101
813.0000,7.100628
814.0000,-2.021321
815.0000,-0.600571
816.0000,3.769361
817.0000,-3.628183
818.0000,0.985950
819.0000,-1.283743
820.0000,-5.351638
821.0000,5.591509
822.0000,4.730271
823.0000,2.583655
824.0000,-7.665252
825.0000,-8.321053
826.0000,4.510259
827.0000,1.942864
828.0000,10.407219
829.0000,-1.348102
830.0000,6.743717
831.0000,-3.764123
832.0000,-2.705644
833.0000,6.053481
834.0000,6.467713
835.0000,-2.646808
836.0000,-1.128277
837.0000,0.472937
838.0000,2.992280
839.0000,0.700574
840.0000,-2.116094
841.0000,-1.229049
842.0000,-4.124108
843.0000,5.575946
844.0000,12.756394
845.0000,2.175485
846.0000,2.570350
847.0000,-2.577105
848.0000,0.382744
849.0000,14.539755
850.0000,7.649358
851.0000,-2.821234
852.0000,4.558814
853.0000,4.532235
854.0000,7.866017
855.0000,4.481997
856.0000,5.403182
857.0000,2.518540
858.0000,2.963750
859.0000,7.266760
860.0000,-2.138114
861.0000,12.290936
862.0000,3.155466
863.0000,4.500841
864.0000,-6.213900
865.0000,2.016370
866.0000,-8.020226
867.0000,-0.569833
868.0000,-2.360629
869.0000,2.007658
870.0000,5.563139
871.0000,5.226765
872.0000,9.943939
873.0000,-2.397499
874.0000,-4.068479
875.0000,17.973852
876.0000,6.524541
877.0000,19.473578
878.0000,3.513878
879.0000,4.184249
880.0000,-3.178329
881.0000,3.972514
882.0000,-0.730911
883.0000,13.404754
884.0000,7.090207
885.0000,11.096921
886.0000,8.709478
887.0000,4.501691
888.0000,10.832477
889.0000,12.276197
890.0000,-0.247517
891.0000,9.576443
892.0000,13.012795
893.0000,8.347693
894.0000,7.127203
895.0000,8.116344
896.0000,14.696323
897.0000,9.877676
898.0000,-0.905627
899.0000,1.801488
900.0000,15.876123
901.0000,7.198203
902.0000,10.594307
903.0000,0.746092
904.0000,9.609714
905.0000,14.522036
906.0000,12.319275
907.0000,17.402922
908.0000,4.687775
909.0000,19.421278
910.0000,4.656177
911.0000,16.641124
912.0000,9.622479
913.0000,7.968490
914.0000,6.605119
915.0000,19.423630
916.0000,8.565405
917.0000,12.120251
918.0000,18.323182
919.0000,10.822426
920.0000,13.843525
921.0000,15.792659
922.0000,25.220512
923.0000,22.308607
924.0000,17.255497
925.0000,8.488914
926.0000,18.035860
927.0000,17.844717
928.0000,19.040907
929.0000,24.120445
930.0000,29.155254
931.0000,26.765702
932.0000,38.178478
933.0000,25.949631
934.0000,26.758439
935.0000,36.242169
936.0000,39.067648
937.0000,35.791071
938.0000,40.024540
939.0000,27.240329
940.0000,25.699810
941.0000,37.719781
942.0000,35.873881
943.0000,22.169727
944.0000,36.939136
945.0000,47.459959
946.0000,34.068349
947.0000,28.783072
948.0000,35.922456
949.0000,29.591107
950.0000,49.314924
951.0000,34.274251
952.0000,35.536146
953.0000,39.689209
954.0000,52.557825
955.0000,36.191853
956.0000,35.637675
957.0000,33.150954
958.0000,35.439193
959.0000,27.666728
960.0000,37.543380
961.0000,29.595040
962.0000,24.179585
963.0000,31.093975
964.0000,17.317155
965.0000,29.394359
966.0000,31.162917
967.0000,20.985244
968.0000,38.467210
969.0000,29.256838
970.0000,21.887216
971.0000,19.338034
972.0000,10.948671
973.0000,11.582979
974.0000,19.298430
975.0000,14.736349
976.0000,25.477235
977.0000,17.984840
978.0000,11.424452
979.0000,17.471509
980.0000,11.600056
981.0000,11.058817
982.0000,8.694127
983.0000,7.485706
984.0000,5.179811
985.0000,9.450316
986.0000,19.897089
987.0000,15.405125
988.0000,13.572365
989.0000,8.707065
990.0000,14.580437
991.0000,12.690663
992.0000,4.774233
993.0000,8.631296
994.0000,12.015756
995.0000,-0.714613
996.0000,15.056522
997.0000,0.081203
998.0000,7.285658
999.0000,1.803994
1000.0000,12.419132
1001.0000,11.048067
1002.0000,6.382469
1003.0000,0.710559
1004.0000,10.488763
1005.0000,-0.757811
1006.0000,6.076483
1007.0000,12.756196
1008.0000,10.885656
1009.0000,20.134947
1010.0000,-2.044243
1011.0000,0.137043
1012.0000,-1.056138
1013.0000,5.265471
1014.0000,15.283898
1015.0000,12.046169
1016.0000,9.797386
1017.0000,1.941225
1018.0000,2.118893
1019.0000,-1.640045
1020.0000,6.796024
1021.0000,10.803174
1022.0000,6.369323
1023.0000,-1.845903
1024.0000,3.964128
1025.0000,-0.139150
1026.0000,3.676121
1027.0000,-7.142533
1028.0000,-1.486197
1029.0000,8.042830
1030.0000,-3.674809
1031.0000,-8.226632
1032.0000,2.024978
1033.0000,-1.245103
1034.0000,1.436606
1035.0000,6.158770
1036.0000,9.245499
1037.0000,-4.014542
1038.0000,-8.923893
1039.0000,4.408786
1040.0000,11.890685
1041.0000,-4.006109
1042.0000,4.656683
1043.0000,4.638155
1044.0000,-2.837765
1045.0000,9.721881
1046.0000,-1.120965
1047.0000,15.115087
1048.0000,1.902518
1049.0000,1.771235
1050.0000,-1.900793
1051.0000,9.315928
1052.0000,-2.188415
1053.0000,-6.399472
1054.0000,7.028442
1055.0000,8.138867
1056.0000,3.160143
1057.0000,9.225590
1058.0000,-9.165207
1059.0000,-4.842373
1060.0000,-0.227053
1061.0000,-0.839333
1062.0000,-1.471391
1063.0000,-6.790140
1064.0000,14.851221
1065.0000,-8.766081
1066.0000,4.781602
1067.0000,13.904413
1068.0000,-3.564892
1069.0000,14.840780
1070.0000,-0.005709
1071.0000,4.925822
1072.0000,11.562162
1073.0000,-3.812847
1074.0000,0.410569
1075.0000,-5.584683
1076.0000,11.156446
1077.0000,6.076454
1078.0000,11.896223
1079.0000,1.120266
1080.0000,3.023471
1081.0000,7.739942
1082.0000,-5.189601
1083.0000,-3.269084
1084.0000,-11.825059
1085.0000,5.827415
1086.0000,1.462770
1087.0000,3.245963
1088.0000,-0.271143
1089.0000,12.982235
1090.0000,9.841094
1091.0000,1.983037
1092.0000,-1.509923
1093.0000,10.277988
1094.0000,-11.437832
1095.0000,0.261759
1096.0000,1.744912
1097.0000,-3.525716
1098.0000,1.768771
1099.0000,-4.311971
1100.0000,4.344081
1101.0000,2.630341
1102.0000,-3.084466
1103.0000,-8.378437
1104.0000,-4.905319
1105.0000,12.917053
1106.0000,-4.627729
1107.0000,-0.544134
1108.0000,-7.978198
1109.0000,0.339986
1110.0000,7.904671
1111.0000,-1.838199
1112.0000,-10.018808
1113.0000,12.870867
1114.0000,2.633828
1115.0000,6.373216
1116.0000,-4.117622
1117.0000,6.004648
1118.0000,0.033511
1119.0000,-11.120425
1120.0000,7.018439
1121.0000,-10.991079
1122.0000,-8.452017
1123.0000,-1.631711
1124.0000,-9.791284
1125.0000,3.724167
1126.0000,8.199656
1127.0000,1.187834
1128.0000,2.215090
1129.0000,3.723827
1130.0000,13.962581
1131.0000,1.563347
1132.0000,6.172644
1133.0000,7.393308
1134.0000,-0.689450
1135.0000,2.240577
1136.0000,0.720009
1137.0000,-1.489453
1138.0000,7.271329
1139.0000,11.256023
1140.0000,3.446577
1141.0000,0.580175
1142.0000,3.978549
1143.0000,-5.967772
1144.0000,-3.242849
1145.0000,6.761096
1146.0000,8.787271
1147.0000,6.738073
1148.0000,-8.360653
1149.0000,4.497198
1150.0000,-3.440037
1151.0000,6.252196
1152.0000,-4.175816
1153.0000,11.617815
1154.0000,13.404243
1155.0000,-2.290006
1156.0000,-2.250888
1157.0000,-5.400847
1158.0000,-5.030995
1159.0000,4.479694
1160.0000,0.333732
1161.0000,0.418436
1162.0000,-0.573277
1163.0000,-7.387039
1164.0000,-5.517130
1165.0000,8.549986
1166.0000,-2.463018
1167.0000,0.549901
1168.0000,4.022146
1169.0000,4.156299
1170.0000,5.392264
1171.0000,9.701643
1172.0000,12.189988
1173.0000,0.965054
1174.0000,-0.205116
1175.0000,-2.619168
1176.0000,6.729133
1177.0000,2.214250
1178.0000,5.022376
1179.0000,-0.973925
1180.0000,-0.051582
1181.0000,-9.222215
1182.0000,0.047062
1183.0000,3.199989
1184.0000,-10.831084
1185.0000,-1.487679
1186.0000,3.496010
1187.0000,7.033127
1188.0000,-2.224134
1189.0000,-0.237450
1190.0000,0.241719
1191.0000,5.063796
1192.0000,-2.419314
1193.0000,7.717547
1194.0000,-7.437118
1195.0000,-0.729314
1196.0000,10.924087
1197.0000,14.823536
1198.0000,5.344530
1199.0000,-6.044368
1200.0000,1.266140
1201.0000,-7.477638
1202.0000,-0.241500
1203.0000,-7.086479
1204.0000,4.593814
1205.0000,-6.134077
1206.0000,-3.607654
1207.0000,5.753408
1208.0000,-4.514549
1209.0000,-6.217494
1210.0000,2.481557
1211.0000,3.248698
1212.0000,-4.451481
1213.0000,1.627294
1214.0000,-10.619287
1215.0000,10.397597
1216.0000,1.582008
1217.0000,6.437083
1218.0000,-5.565442
1219.0000,1.916899
1220.0000,3.229024
1221.0000,3.025920
1222.0000,0.810618
1223.0000,-4.883953
1224.0000,-2.484401
1225.0000,6.226213
1226.0000,0.553041
1227.0000,-12.713279
1228.0000,16.353434
1229.0000,-6.166527
1230.0000,-13.181561
1231.0000,-16.082991
1232.0000,7.764368
1233.0000,5.718026
1234.0000,3.912177
1235.0000,-2.600043
1236.0000,5.171357
1237.0000,-5.470638
1238.0000,-4.006221
1239.0000,4.465903
1240.0000,14.901066
1241.0000,2.213115
1242.0000,-4.699265
1243.0000,3.929373
1244.0000,-14.562025
1245.0000,-1.573177
1246.0000,-11.863026
1247.0000,5.594124
1248.0000,-7.475726
1249.0000,-9.452114
1250.0000,2.483896
1251.0000,-9.030909
1252.0000,-2.228350
1253.0000,-9.186071
1254.0000,-4.804946
1255.0000,-2.958867
1256.0000,3.844634
1257.0000,6.533160
1258.0000,6.465758
1259.0000,6.920724
1260.0000,2.577927
1261.0000,-2.797405
1262.0000,0.853908
1263.0000,-2.848636
1264.0000,-1.930790
1265.0000,3.936351
1266.0000,10.969237
1267.0000,2.547328
1268.0000,-1.985465
1269.0000,-7.815246
1270.0000,3.872810
1271.0000,-4.212367
1272.0000,-1.692818
1273.0000,6.303104
1274.0000,-8.460966
1275.0000,-2.636825
1276.0000,-7.866464
1277.0000,-2.074163
1278.0000,-6.533835
1279.0000,-0.591996
1280.0000,2.278864
1281.0000,-5.738914
1282.0000,-0.676628
1283.0000,-1.952288
1284.0000,0.574684
1285.0000,2.717715
1286.0000,-3.365573
1287.0000,-7.183703
1288.0000,-1.995450
1289.0000,-1.634466
1290.0000,2.693342
1291.0000,5.522837
1292.0000,3.142893
1293.0000,-1.074114
1294.0000,-3.391364
1295.0000,-0.680862
1296.0000,-1.165059
1297.0000,2.297481
1298.0000,-2.094480
1299.0000,-7.182991
1300.0000,7.078235
1301.0000,8.433815
1302.0000,-1.831041
1303.0000,2.707709
1304.0000,6.292463
1305.0000,0.419128
1306.0000,-8.929475
1307.0000,-9.185618
1308.0000,3.073461
1309.0000,-7.640094
1310.0000,4.313661
1311.0000,-1.616926
1312.0000,-5.747370
1313.0000,2.273029
1314.0000,-8.465430
1315.0000,2.572818
1316.0000,-0.697192
1317.0000,0.127456
1318.0000,-10.067801
1319.0000,7.359891
1320.0000,-3.412900
1321.0000,1.281283
1322.0000,-12.006801
1323.0000,3.587812
1324.0000,3.139632
1325.0000,3.609078
1326.0000,7.511689
1327.0000,0.081483
1328.0000,10.595505
1329.0000,9.455769
1330.0000,-0.046445
1331.0000,12.089103
1332.0000,2.758776
1333.0000,1.510032
1334.0000,-8.018209
1335.0000,-9.376905
1336.0000,2.048887
1337.0000,-1.840170
1338.0000,1.828078
1339.0000,-7.400507
1340.0000,1.041190
1341.0000,11.638071
1342.0000,-10.652529
1343.0000,-3.882924
1344.0000,-6.221824
1345.0000,-0.400465
1346.0000,-1.501721
1347.0000,1.354316
1348.0000,-2.878831
1349.0000,-8.050274
1350.0000,8.434229
1351.0000,0.637275
1352.0000,4.395688
1353.0000,-0.306324
1354.0000,-0.047035
1355.0000,-0.915118
1356.0000,7.412640
1357.0000,1.464385
1358.0000,-6.807081
1359.0000,12.264289
1360.0000,1.065087
1361.0000,2.063218
1362.0000,2.737191
1363.0000,1.667030
1364.0000,-4.711258
1365.0000,9.597893
1366.0000,2.816613
1367.0000,3.333438
1368.0000,4.850567
1369.0000,4.360504
1370.0000,-17.025528
1371.0000,-2.840387
1372.0000,-2.246360
1373.0000,-3.008890
1374.0000,14.368730
1375.0000,7.754196
1376.0000,-3.028300
1377.0000,-6.092408
1378.0000,0.051972
1379.0000,-0.295763
1380.0000,-2.990767
1381.0000,-4.792832
1382.0000,0.535692
1383.0000,4.328136
1384.0000,-5.425310
1385.0000,-0.246128
1386.0000,-10.358971
1387.0000,-2.519637
1388.0000,5.644137
1389.0000,3.139789
1390.0000,-7.176905
1391.0000,0.024200
1392.0000,-2.854908
1393.0000,-0.708557
1394.0000,5.382913
1395.0000,-4.467469
1396.0000,17.313160
1397.0000,2.138571
1398.0000,4.553057
1399.0000,-2.857231
1400.0000,-4.103696
1401.0000,-1.780843
1402.0000,-4.468336
1403.0000,-8.980893
1404.0000,-1.716617
1405.0000,-1.873721
1406.0000,-9.463082
1407.0000,11.217387
1408.0000,-3.222098
1409.0000,-7.052438
1410.0000,3.140911
1411.0000,3.005179
1412.0000,2.937012
1413.0000,-4.329877
1414.0000,7.924499
1415.0000,-8.861398
1416.0000,-0.984622
1417.0000,10.552665
1418.0000,1.782517
1419.0000,-3.709662
1420.0000,3.455198
1421.0000,13.903276
1422.0000,-0.799012
1423.0000,-1.583089
1424.0000,-2.145012
1425.0000,-12.392706
1426.0000,-0.219493
1427.0000,1.437839
1428.0000,3.193284
1429.0000,-0.343633
1430.0000,9.629560
1431.0000,4.500182
1432.0000,1.420609
1433.0000,-0.708576
1434.0000,-4.409219
1435.0000,-6.020471
1436.0000,2.119100
1437.0000,10.022055
1438.0000,13.587313
1439.0000,-2.285766
1440.0000,4.244080
1441.0000,2.676266
1442.0000,-0.648127
1443.0000,5.709487
1444.0000,10.626183
1445.0000,6.016435
1446.0000,12.512159
1447.0000,-6.256592
1448.0000,-0.575360
1449.0000,0.324250
1450.0000,2.920981
1451.0000,9.455666
1452.0000,-0.216685
1453.0000,9.027394
1454.0000,-3.472170
1455.0000,14.341451
1456.0000,-5.091749
1457.0000,1.727991
1458.0000,-4.730230
1459.0000,6.775596
1460.0000,5.745870
1461.0000,11.371507
1462.0000,-4.366354
1463.0000,-2.881462
1464.0000,-7.671843
1465.0000,-4.745324
1466.0000,3.976816
1467.0000,-2.110359
1468.0000,1.205564
1469.0000,7.947097
1470.0000,-4.830764
1471.0000,0.142819
1472.0000,-9.507004
1473.0000,-2.956715
1474.0000,3.873605
1475.0000,2.001557
1476.0000,-5.789950
1477.0000,-2.723668
1478.0000,5.276370
1479.0000,8.153379
1480.0000,-8.147622
1481.0000,-4.635993
1482.0000,7.458350
1483.0000,1.401181
1484.0000,2.568758
1485.0000,-7.769328
1486.0000,-12.135124
1487.0000,-11.030153
1488.0000,4.912002
1489.0000,-2.099568
1490.0000,1.848965
1491.0000,-6.933163
1492.0000,6.755942
1493.0000,3.448653
1494.0000,5.472730
1495.0000,-1.400612
1496.0000,1.577821
1497.0000,10.409407
1498.0000,15.224058
1499.0000,5.010710
1500.0000,-5.513548
1501.0000,13.771573
1502.0000,-6.758622
1503.0000,0.995730
1504.0000,4.599638
1505.0000,2.519032
1506.0000,2.530368
1507.0000,-6.771411
1508.0000,-4.304129
1509.0000,2.713407
1510.0000,-4.452925
1511.0000,-2.646629
1512.0000,-3.879670
1513.0000,-0.332226
1514.0000,-3.674860
1515.0000,2.868746
1516.0000,1.193771
1517.0000,9.266445
1518.0000,-3.532603
1519.0000,3.961213
1520.0000,-4.136666
1521.0000,5.750821
1522.0000,9.847656
1523.0000,-2.185255
1524.0000,-9.304342
1525.0000,-1.654201
1526.0000,-9.281633
1527.0000,-8.875846
1528.0000,-7.001348
1529.0000,2.881818
1530.0000,1.307861
1531.0000,3.301367
1532.0000,-0.898898
1533.0000,3.988789
1534.0000,6.368978
1535.0000,-2.285076
1536.0000,-5.669651
1537.0000,-6.951169
1538.0000,1.983197
1539.0000,0.645827
1540.0000,-2.424348
1541.0000,1.134895
1542.0000,4.966788
1543.0000,3.084274
1544.0000,-2.147928
1545.0000,-1.124449
1546.0000,-0.833978
1547.0000,-6.962758
1548.0000,3.283012
1549.0000,1.563994
1550.0000,1.129586
1551.0000,4.397150
1552.0000,1.688536
1553.0000,-8.447895
1554.0000,10.240010
1555.0000,15.773527
1556.0000,8.668483
1557.0000,-2.957328
1558.0000,9.922733
1559.0000,-7.510240
1560.0000,-4.536862
1561.0000,-3.036514
1562.0000,-4.434837
1563.0000,-2.636866
1564.0000,2.196329
1565.0000,-8.099832
1566.0000,1.827426
1567.0000,-1.792580
1568.0000,-8.298505
1569.0000,-6.841741
1570.0000,0.571132
1571.0000,6.887877
1572.0000,-0.098615
1573.0000,-9.117936
1574.0000,-3.545831
1575.0000,0.437893
1576.0000,5.064967
1577.0000,-2.578777
1578.0000,-6.886691
1579.0000,4.968706
1580.0000,0.382264
1581.0000,-1.901391
1582.0000,4.444884
1583.0000,2.095288
1584.0000,-5.696905
1585.0000,-1.037499
1586.0000,9.136097
1587.0000,3.471316
1588.0000,-12.341892
1589.0000,7.098431
1590.0000,4.832517
1591.0000,2.555234
1592.0000,-3.093527
1593.0000,-9.074704
1594.0000,2.935008
1595.0000,8.958963
1596.0000,3.569821
1597.0000,-0.437247
1598.0000,6.553802
1599.0000,8.304222
1600.0000,-9.849148
1601.0000,-0.808743
1602.0000,-0.358046
1603.0000,2.659173
1604.0000,1.096579
1605.0000,-7.535570
1606.0000,5.989016
1607.0000,-5.874846
1608.0000,-0.559240
1609.0000,1.509235
1610.0000,6.630975
1611.0000,1.526784
1612.0000,-2.811123
1613.0000,8.903911
1614.0000,-1.030549
1615.0000,8.288883
1616.0000,-8.515711
1617.0000,-2.201803
1618.0000,4.513276
1619.0000,3.693400
1620.0000,0.336046
1621.0000,-1.094409
1622.0000,-3.892751
1623.0000,8.625433
1624.0000,-1.578603
1625.0000,-0.598901
1626.0000,3.740733
1627.0000,0.576954
1628.0000,4.228816
1629.0000,1.556322
1630.0000,-5.089222
1631.0000,-4.996116
1632.0000,-1.388909
1633.0000,3.231262
1634.0000,-3.867957
1635.0000,-6.710137
1636.0000,1.936004
1637.0000,-5.546727
1638.0000,-12.096455
1639.0000,-5.636676
1640.0000,-7.275663
1641.0000,0.638582
1642.0000,3.022239
1643.0000,-4.045825
1644.0000,-5.533161
1645.0000,3.879807
1646.0000,12.129018
1647.0000,4.272369
1648.0000,-2.864081
1649.0000,-4.859943
1650.0000,-0.153181
1651.0000,9.748139
1652.0000,-9.264006
1653.0000,2.058046
1654.0000,-1.764774
1655.0000,0.752389
1656.0000,10.362371
1657.0000,-11.851867
1658.0000,-4.118833
1659.0000,2.864564
1660.0000,1.420131
1661.0000,-0.520509
1662.0000,-6.792329
1663.0000,-4.928644
1664.0000,-2.394077
1665.0000,10.854339
1666.0000,4.464402
1667.0000,5.158547
1668.0000,3.115064
1669.0000,2.468762
1670.0000,1.277941
1671.0000,3.164112
1672.0000,-0.759009
1673.0000,4.648382
1674.0000,8.866197
1675.0000,13.217233
1676.0000,-6.568373
1677.0000,-0.772668
1678.0000,-5.684983
1679.0000,8.279715
1680.0000,-0.812693
1681.0000,-6.912034
1682.0000,6.346459
1683.0000,-8.426843
1684.0000,3.472495
1685.0000,9.549450
1686.0000,-2.174738
1687.0000,1.837157
1688.0000,10.843284
1689.0000,2.859903
1690.0000,1.923926
1691.0000,2.096608
1692.0000,-2.895586
1693.0000,3.298092
1694.0000,5.240012
1695.0000,-5.959653
1696.0000,3.280427
1697.0000,-6.076970
1698.0000,-10.415517
1699.0000,4.593627
1700.0000,-3.639270
1701.0000,0.964637
1702.0000,3.567588
1703.0000,-2.070490
1704.0000,3.837756
1705.0000,4.304609
1706.0000,0.259603
1707.0000,-1.792063
1708.0000,7.395843
1709.0000,-2.416444
1710.0000,1.103947
1711.0000,-9.971701
1712.0000,4.795487
1713.0000,3.376918
1714.0000,-5.667349
1715.0000,-1.603943
1716.0000,4.002666
1717.0000,0.685923
1718.0000,0.840375
1719.0000,-2.699555
1720.0000,-3.682845
1721.0000,-4.687297
1722.0000,9.571140
1723.0000,-0.180601
1724.0000,2.923507
1725.0000,-9.394051
1726.0000,0.212208
1727.0000,2.586227
1728.0000,7.546141
1729.0000,10.963314
1730.0000,-6.498436
1731.0000,2.108755
1732.0000,-0.551527
1733.0000,4.015254
1734.0000,-15.331388
1735.0000,-0.709008
1736.0000,-4.989333
1737.0000,-5.225823
1738.0000,-8.828120
1739.0000,-5.401053
1740.0000,-0.079492
1741.0000,-10.587722
1742.0000,5.004155
1743.0000,-6.790785
1744.0000,-1.858104
1745.0000,-0.392996
1746.0000,4.589187
1747.0000,5.874360
1748.0000,-8.362569
1749.0000,-9.854812
1750.0000,1.027287
1751.0000,-9.221783
1752.0000,-4.759417
1753.0000,-2.608184
1754.0000,-15.049435
1755.0000,0.863280
1756.0000,0.022940
1757.0000,1.011111
1758.0000,1.233784
1759.0000,-3.972581
1760.0000,-6.529597
1761.0000,-2.935036
1762.0000,1.022945
1763.0000,-4.996180
1764.0000,-1.308217
1765.0000,-0.548201
1766.0000,-0.067444
1767.0000,10.982843
1768.0000,5.341238
1769.0000,-2.842617
1770.0000,-1.062510
1771.0000,-5.113172
1772.0000,3.729714
1773.0000,1.057515
1774.0000,-6.716787
1775.0000,-8.601756
1776.0000,-5.330078
1777.0000,-6.806493
1778.0000,3.111280
1779.0000,6.505627
1780.0000,-1.658324
1781.0000,-15.680158
1782.0000,1.198599
1783.0000,0.982433
1784.0000,-2.692843
1785.0000,-6.433351
1786.0000,-0.672324
1787.0000,0.656408
1788.0000,0.663995
1789.0000,2.571130
1790.0000,7.195088
1791.0000,4.821605
1792.0000,1.338303
1793.0000,-3.683411
1794.0000,3.687918
1795.0000,-4.309127
1796.0000,-10.887424
1797.0000,4.278673
1798.0000,3.391284
1799.0000,3.989167
1800.0000,4.079442
1801.0000,-14.058254
1802.0000,-6.291037
1803.0000,-10.762425
1804.0000,-0.118275
1805.0000,-9.875427
1806.0000,7.040319
1807.0000,0.984297
1808.0000,14.680692
1809.0000,0.645719
1810.0000,6.941862
1811.0000,5.434056
1812.0000,6.912585
1813.0000,-2.152784
1814.0000,-4.824367
1815.0000,5.136157
1816.0000,-0.883822
1817.0000,-2.499290
1818.0000,-7.252362
1819.0000,0.467936
1820.0000,9.139070
1821.0000,-4.549711
1822.0000,-10.830190
1823.0000,11.917146
1824.0000,5.986145
1825.0000,-8.536975
1826.0000,4.116451
1827.0000,-11.642682
1828.0000,2.154768
1829.0000,-6.421462
1830.0000,-6.054467
1831.0000,-7.729578
1832.0000,-3.635061
1833.0000,6.485447
1834.0000,-0.904382
1835.0000,0.346880
1836.0000,-8.215316
1837.0000,4.348976
1838.0000,-6.433144
1839.0000,-5.577194
1840.0000,0.239716
1841.0000,1.868029
1842.0000,-1.739920
1843.0000,-0.824931
1844.0000,-1.068489
1845.0000,2.809428
1846.0000,-6.812637
1847.0000,-7.732536
1848.0000,5.480857
1849.0000,6.653188
1850.0000,9.641576
1851.0000,1.049095
1852.0000,0.849576
1853.0000,3.111406
1854.0000,-5.426410
1855.0000,-5.973531
1856.0000,-1.350549
1857.0000,-0.123729
1858.0000,-0.028162
1859.0000,4.732051
1860.0000,-6.952633
1861.0000,-2.787223
1862.0000,3.260583
1863.0000,-0.033688
1864.0000,4.240013
1865.0000,0.443454
1866.0000,5.608455
1867.0000,5.747165
1868.0000,-5.022224
1869.0000,-3.634748
1870.0000,-0.562418
1871.0000,-1.671668
1872.0000,3.874657
1873.0000,-10.509716
1874.0000,8.453822
1875.0000,-10.087614
1876.0000,-2.548940
1877.0000,6.597847
1878.0000,-5.774658
1879.0000,12.368349
1880.0000,5.763478
1881.0000,10.881873
1882.0000,0.255572
1883.0000,4.346157
1884.0000,-7.282615
1885.0000,2.320093
1886.0000,1.884893
1887.0000,4.401297
1888.0000,5.971017
1889.0000,1.247755
1890.0000,-5.310103
1891.0000,-1.076412
1892.0000,7.563397
1893.0000,-3.121697
1894.0000,-7.973393
1895.0000,6.958545
1896.0000,3.187943
1897.0000,-3.158764
1898.0000,-8.364042
1899.0000,-1.852795
1900.0000,-5.612883
1901.0000,7.155396
1902.0000,1.186774
1903.0000,-4.783645
1904.0000,-1.654236
1905.0000,-3.259978
1906.0000,-8.457605
1907.0000,-10.236550
1908.0000,-4.273985
1909.0000,-1.217676
1910.0000,0.814357
1911.0000,10.925844
1912.0000,0.550562
1913.0000,8.573399
1914.0000,-0.780593
1915.0000,-4.286009
1916.0000,10.699610
1917.0000,-7.691913
1918.0000,-0.986656
1919.0000,7.760649
1920.0000,6.018938
1921.0000,12.352962
1922.0000,10.592484
1923.0000,10.496480
1924.0000,1.877495
1925.0000,3.527242
1926.0000,4.099985
1927.0000,-6.309057
1928.0000,1.819395
1929.0000,-1.154396
1930.0000,-0.036054
1931.0000,11.063592
1932.0000,1.679610
1933.0000,2.166963
1934.0000,5.257471
1935.0000,2.177570
1936.0000,-5.835172
1937.0000,8.329103
1938.0000,9.840352
1939.0000,4.367060
1940.0000,6.479297
1941.0000,6.239606
1942.0000,9.028100
1943.0000,-8.813978
1944.0000,-13.097635
1945.0000,10.465169
1946.0000,3.545824
1947.0000,6.977242
1948.0000,0.403505
1949.0000,-7.624254
1950.0000,-0.504912
1951.0000,-12.650914
1952.0000,15.502601
1953.0000,0.332013
1954.0000,6.346254
1955.0000,-7.404237
1956.0000,13.373366
1957.0000,2.475019
1958.0000,-2.210006
1959.0000,-1.769811
1960.0000,9.163009
1961.0000,-0.561237
1962.0000,4.316058
1963.0000,1.724954
1964.0000,5.805367
1965.0000,4.253080
1966.0000,-10.345728
1967.0000,-3.957655
1968.0000,-3.044511
1969.0000,-0.337525
1970.0000,6.803720
1971.0000,-13.244065
1972.0000,-5.123929
1973.0000,3.967508
1974.0000,1.843555
1975.0000,13.898906
1976.0000,-15.689296
1977.0000,0.530068
1978.0000,10.739438
1979.0000,-3.431210
1980.0000,-0.515726
1981.0000,3.032626
1982.0000,1.969666
1983.0000,-0.313519
1984.0000,8.308232
1985.0000,-1.608682
1986.0000,-7.238863
1987.0000,1.886999
1988.0000,4.888418
1989.0000,-10.103174
1990.0000,-2.560642
1991.0000,-3.752750
1992.0000,2.071061
1993.0000,-1.976613
1994.0000,14.998185
1995.0000,0.526226
1996.0000,-6.166783
1997.0000,-1.554790
1998.0000,-7.505269
1999.0000,-5.558121
2000.0000,7.106518
