raman_shift_cm-1,intensity
200.0000,-1.335379
201.0000,9.535991
202.0000,-1.774465
203.0000,-2.264820
204.0000,6.432580
205.0000,6.816121
206.0000,8.658446
207.0000,-3.516719
208.0000,-0.172749
209.0000,-4.907125
210.0000,-11.610542
211.0000,-0.573693
212.0000,4.734144
213.0000,-0.658039
214.0000,1.699698
215.0000,-7.397383
216.0000,-8.239672
217.0000,5.871359
218.0000,0.126876
219.0000,6.044417
220.0000,-3.577593
221.0000,-4.079387
222.0000,5.655337
223.0000,-4.261750
224.0000,1.441681
225.0000,0.935072
226.0000,-9.491138
227.0000,-2.014222
228.0000,-4.879305
229.0000,3.641982
230.0000,-1.120538
231.0000,1.538173
232.0000,14.774074
233.0000,-11.383838
234.0000,7.594448
235.0000,8.032638
236.0000,-7.056303
237.0000,-0.806411
238.0000,-9.016758
239.0000,7.733879
240.0000,2.937242
241.0000,4.862882
242.0000,5.697629
243.0000,-2.322379
244.0000,2.042714
245.0000,-2.769817
246.0000,-10.862150
247.0000,-2.298591
248.0000,-2.134159
249.0000,7.582045
250.0000,-4.660797
251.0000,2.742235
252.0000,3.536659
253.0000,-0.666280
254.0000,11.363304
255.0000,4.003188
256.0000,-7.365031
257.0000,7.227187
258.0000,0.425846
259.0000,-1.369151
260.0000,-5.043566
261.0000,-2.792378
262.0000,9.712474
263.0000,5.786385
264.0000,-5.085869
265.0000,8.487243
266.0000,6.863930
267.0000,7.788128
268.0000,-4.458346
269.0000,5.362075
270.0000,-11.689917
271.0000,11.388212
272.0000,15.608371
273.0000,-3.865141
274.0000,3.408336
275.0000,-5.749813
276.0000,-3.657515
277.0000,3.172615
278.0000,-2.980337
279.0000,-6.517089
280.0000,4.269854
281.0000,0.982831
282.0000,-1.480350
283.0000,5.007422
284.0000,5.545324
285.0000,-2.792441
286.0000,1.630254
287.0000,5.037702
288.0000,7.997304
289.0000,1.589236
290.0000,-8.580113
291.0000,-12.374210
292.0000,-0.241171
293.0000,-1.625409
294.0000,-3.209639
295.0000,4.411304
296.0000,5.934309
297.0000,-5.421760
298.0000,11.675049
299.0000,3.068638
300.0000,1.583577
301.0000,6.450859
302.0000,5.590978
303.0000,-11.234535
304.0000,5.140452
305.0000,4.628514
306.0000,-1.391283
307.0000,1.877323
308.0000,1.720575
309.0000,-8.536465
310.0000,-0.381992
311.0000,-5.367350
312.0000,3.924990
313.0000,3.480084
314.0000,-1.178342
315.0000,3.998334
316.0000,-10.069273
317.0000,-1.924298
318.0000,-3.875518
319.0000,-5.993785
320.0000,1.242666
321.0000,8.916098
322.0000,-4.544111
323.0000,-2.530723
324.0000,-9.328028
325.0000,-15.714864
326.0000,-4.906623
327.0000,4.617202
328.0000,-9.328661
329.0000,1.971169
330.0000,-3.467746
331.0000,-2.403002
332.0000,1.848624
333.0000,7.915395
334.0000,2.833292
335.0000,12.076237
336.0000,-6.791418
337.0000,3.742172
338.0000,1.893506
339.0000,-12.423527
340.0000,-1.094617
341.0000,7.880633
342.0000,5.623455
343.0000,3.599146
344.0000,-0.581385
345.0000,-0.324877
346.0000,-12.771434
347.0000,4.324178
348.0000,-4.330943
349.0000,-3.576263
350.0000,-6.668011
351.0000,-0.517623
352.0000,-5.685923
353.0000,1.633214
354.0000,3.059287
355.0000,-5.329423
356.0000,-5.386139
357.0000,7.156661
358.0000,-0.698957
359.0000,9.598879
360.0000,-11.850194
361.0000,-3.529650
362.0000,-10.068008
363.0000,1.201327
364.0000,2.548940
365.0000,2.364205
366.0000,1.101173
367.0000,1.654716
368.0000,2.479057
369.0000,0.391193
370.0000,-5.761355
371.0000,-6.213147
372.0000,3.349813
373.0000,0.892909
374.0000,-17.713070
375.0000,-1.205101
376.0000,-1.941429
377.0000,8.099523
378.0000,5.035753
379.0000,-7.087081
380.0000,0.938123
381.0000,1.701513
382.0000,11.854329
383.0000,1.430500
384.0000,-1.930933
385.0000,-11.784106
386.0000,-0.098059
387.0000,5.628236
388.0000,-3.628505
389.0000,6.653008
390.0000,-1.093338
391.0000,-16.837430
392.0000,-2.686561
393.0000,7.906115
394.0000,-2.682148
395.0000,0.976061
396.0000,3.064611
397.0000,-7.099527
398.0000,4.293962
399.0000,-1.308638
400.0000,-2.487591
401.0000,-1.890570
402.0000,6.399320
403.0000,1.321756
404.0000,3.255787
405.0000,-2.579182
406.0000,2.584501
407.0000,0.880810
408.0000,6.012471
409.0000,0.103707
410.0000,-7.247800
411.0000,-5.824301
412.0000,-6.530573
413.0000,-11.765008
414.0000,6.410577
415.0000,1.007130
416.0000,1.500399
417.0000,-8.655472
418.0000,8.142133
419.0000,-5.312679
420.0000,12.393297
421.0000,-0.567614
422.0000,4.968793
423.0000,-0.407878
424.0000,7.982562
425.0000,1.921402
426.0000,-3.357044
427.0000,-0.388999
428.0000,5.835966
429.0000,4.401327
430.0000,-8.194982
431.0000,-6.719241
432.0000,-4.444550
433.0000,0.630619
434.0000,-16.925719
435.0000,-5.776471
436.0000,-1.915820
437.0000,-2.106656
438.0000,-1.619700
439.0000,-0.110452
440.0000,7.865675
441.0000,3.576508
442.0000,-9.438257
443.0000,-0.503487
444.0000,-2.665554
445.0000,-12.119489
446.0000,-7.993181
447.0000,7.667381
448.0000,4.257021
449.0000,-2.851086
450.0000,-7.629468
451.0000,-7.108592
452.0000,-1.780275
453.0000,-2.082696
454.0000,4.373839
455.0000,-7.073360
456.0000,6.461045
457.0000,-8.987823
458.0000,6.041979
459.0000,-1.538718
460.0000,-0.560267
461.0000,10.155891
462.0000,-6.461192
463.0000,-2.430383
464.0000,6.079770
465.0000,-10.445711
466.0000,-1.850003
467.0000,-3.399576
468.0000,-5.225621
469.0000,1.778153
470.0000,-13.660002
471.0000,-1.856844
472.0000,2.774497
473.0000,-2.297545
474.0000,-6.611534
475.0000,4.506139
476.0000,-7.468552
477.0000,11.699637
478.0000,3.584800
479.0000,-1.491940
480.0000,5.023868
481.0000,1.142930
482.0000,-3.189775
483.0000,7.180411
484.0000,6.852611
485.0000,-8.678693
486.0000,-12.334154
487.0000,-0.088760
488.0000,-0.583380
489.0000,-5.910026
490.0000,-0.225347
491.0000,3.215414
492.0000,-2.330534
493.0000,-9.892509
494.0000,3.655635
495.0000,6.312170
496.0000,4.957520
497.0000,0.080790
498.0000,8.195446
499.0000,3.003619
500.0000,-8.343409
501.0000,4.292495
502.0000,-4.583690
503.0000,-0.646124
504.0000,1.788764
505.0000,-0.259018
506.0000,11.569495
507.0000,1.089127
508.0000,2.761252
509.0000,1.516653
510.0000,6.800291
511.0000,1.911764
512.0000,3.505583
513.0000,-2.937469
514.0000,8.471007
515.0000,18.251600
516.0000,1.231277
517.0000,-5.222798
518.0000,6.030675
519.0000,11.116887
520.0000,1.664079
521.0000,-1.947922
522.0000,-6.390160
523.0000,-1.771169
524.0000,-7.383318
525.0000,-4.956681
526.0000,-0.558965
527.0000,2.659207
528.0000,2.188181
529.0000,3.434288
530.0000,6.513721
531.0000,-4.017098
532.0000,13.748043
533.0000,9.571262
534.0000,0.988360
535.0000,7.011126
536.0000,4.281154
537.0000,-4.834239
538.0000,-0.789725
539.0000,0.296911
540.0000,-3.262421
541.0000,0.126701
542.0000,2.237422
543.0000,-2.034842
544.0000,2.620612
545.0000,8.561393
546.0000,2.877321
547.0000,3.467015
548.0000,-1.206716
549.0000,1.916027
550.0000,-0.187656
551.0000,9.217931
552.0000,13.070377
553.0000,4.302455
554.0000,-0.889384
555.0000,3.340132
556.0000,4.542937
557.0000,-1.438683
558.0000,-8.588680
559.0000,-1.724434
560.0000,2.866499
561.0000,8.823754
562.0000,-1.177775
563.0000,0.714757
564.0000,8.391035
565.0000,7.867646
566.0000,19.253746
567.0000,-4.120004
568.0000,-9.201671
569.0000,-6.726783
570.0000,2.024575
571.0000,10.180290
572.0000,-7.316003
573.0000,-4.657526
574.0000,2.202935
575.0000,-4.644933
576.0000,2.475958
577.0000,3.053354
578.0000,7.093011
579.0000,8.723555
580.0000,4.756445
581.0000,8.781012
582.0000,15.028095
583.0000,8.119602
584.0000,2.466910
585.0000,15.417146
586.0000,4.957385
587.0000,10.725573
588.0000,5.305477
589.0000,2.696750
590.0000,13.674423
591.0000,5.068535
592.0000,-0.427995
593.0000,6.823518
594.0000,-1.027019
595.0000,3.179816
596.0000,14.205888
597.0000,2.984631
598.0000,7.352647
599.0000,6.081891
600.0000,5.352321
601.0000,6.178517
602.0000,19.832292
603.0000,6.676371
604.0000,10.479701
605.0000,15.809804
606.0000,8.183354
607.0000,10.588545
608.0000,12.813316
609.0000,5.777966
610.0000,17.102735
611.0000,10.533847
612.0000,15.511668
613.0000,17.091760
614.0000,16.533721
615.0000,24.421546
616.0000,34.670999
617.0000,21.715835
618.0000,33.721222
619.0000,25.365024
620.0000,45.080081
621.0000,44.874920
622.0000,48.594441
623.0000,64.612456
624.0000,65.652185
625.0000,83.556945
626.0000,87.796114
627.0000,107.015994
628.0000,142.653142
629.0000,166.605269
630.0000,177.474559
631.0000,197.258288
632.0000,191.325619
633.0000,201.224129
634.0000,176.575010
635.0000,158.291773
636.0000,137.197650
637.0000,124.829976
638.0000,104.817073
639.0000,92.553356
640.0000,71.616859
641.0000,55.905884
642.0000,55.590204
643.0000,39.353146
644.0000,51.925714
645.0000,42.443284
646.0000,40.570919
647.0000,30.347802
648.0000,37.573574
649.0000,21.470062
650.0000,24.080691
651.0000,27.398200
652.0000,24.779360
653.0000,16.739853
654.0000,20.459137
655.0000,13.365208
656.0000,14.644654
657.0000,13.178018
658.0000,10.976992
659.0000,21.983120
660.0000,5.736663
661.0000,12.141683
662.0000,9.018841
663.0000,16.779624
664.0000,6.923546
665.0000,8.456120
666.0000,9.450829
667.0000,28.186499
668.0000,11.694331
669.0000,9.872135
670.0000,21.270650
671.0000,15.725638
672.0000,16.308577
673.0000,19.670176
674.0000,20.169239
675.0000,17.350530
676.0000,24.784067
677.0000,23.863123
678.0000,19.148740
679.0000,29.919412
680.0000,16.589656
681.0000,36.818412
682.0000,30.421026
683.0000,31.016392
684.0000,41.256697
685.0000,27.725939
686.0000,25.158387
687.0000,51.157773
688.0000,54.028291
689.0000,59.203575
690.0000,55.746639
691.0000,68.940486
692.0000,86.007743
693.0000,97.116725
694.0000,119.332400
695.0000,127.780537
696.0000,148.962838
697.0000,176.316175
698.0000,204.269657
699.0000,240.659960
700.0000,251.240235
701.0000,269.964085
702.0000,282.574678
703.0000,275.330710
704.0000,269.810094
705.0000,228.312241
706.0000,195.720416
707.0000,185.242848
708.0000,153.839472
709.0000,127.802549
710.0000,100.287145
711.0000,92.476685
712.0000,83.362640
713.0000,64.859913
714.0000,69.843030
715.0000,62.674610
716.0000,40.773170
717.0000,31.913134
718.0000,47.920821
719.0000,24.138466
720.0000,35.816598
721.0000,33.082175
722.0000,23.922955
723.0000,20.906336
724.0000,17.537649
725.0000,22.493487
726.0000,21.517669
727.0000,17.662379
728.0000,20.024904
729.0000,10.984312
730.0000,6.679893
731.0000,15.744277
732.0000,5.252206
733.0000,7.080063
734.0000,8.496330
735.0000,12.786044
736.0000,6.461499
737.0000,13.815489
738.0000,8.544541
739.0000,15.859249
740.0000,12.221606
741.0000,9.812083
742.0000,5.306983
743.0000,4.510830
744.0000,5.857212
745.0000,6.286639
746.0000,8.742216
747.0000,2.481188
748.0000,1.918788
749.0000,-1.403853
750.0000,16.503795
751.0000,3.169779
752.0000,4.360645
753.0000,5.619517
754.0000,10.123853
755.0000,2.857120
756.0000,16.890299
757.0000,2.047129
758.0000,5.630888
759.0000,6.055314
760.0000,6.950361
761.0000,4.949385
762.0000,4.951418
763.0000,3.696926
764.0000,10.245404
765.0000,7.739291
766.0000,16.421888
767.0000,14.075948
768.0000,12.859986
769.0000,12.666035
770.0000,14.818830
771.0000,5.278886
772.0000,9.267206
773.0000,4.973653
774.0000,3.243310
775.0000,19.316684
776.0000,19.943446
777.0000,13.925971
778.0000,27.094238
779.0000,22.718130
780.0000,19.254881
781.0000,24.441091
782.0000,25.915040
783.0000,34.422959
784.0000,29.434311
785.0000,37.255961
786.0000,46.018191
787.0000,44.105955
788.0000,49.469824
789.0000,64.394961
790.0000,71.876198
791.0000,70.002100
792.0000,95.090450
793.0000,100.077504
794.0000,105.874632
795.0000,106.533709
796.0000,106.735425
797.0000,87.290643
798.0000,86.445046
799.0000,78.261264
800.0000,66.629133
801.0000,64.446685
802.0000,54.167949
803.0000,45.653192
804.0000,43.226251
805.0000,29.373898
806.0000,34.708222
807.0000,36.536029
808.0000,36.902986
809.0000,6.412505
810.0000,29.368839
811.0000,20.330609
812.0000,19.877884
813.0000,22.550400
814.0000,21.564591
815.0000,26.567246
816.0000,15.184119
817.0000,24.061281
818.0000,17.060353
819.0000,23.702555
820.0000,7.477250
821.0000,32.085489
822.0000,20.492132
823.0000,24.724783
824.0000,33.763835
825.0000,23.141629
826.0000,29.102030
827.0000,24.131215
828.0000,12.785818
829.0000,21.313335
830.0000,18.752845
831.0000,17.194870
832.0000,10.433107
833.0000,21.036882
834.0000,20.796247
835.0000,19.745625
836.0000,17.861711
837.0000,29.623129
838.0000,33.562841
839.0000,29.618623
840.0000,30.578161
841.0000,43.744874
842.0000,47.450652
843.0000,43.178752
844.0000,50.338359
845.0000,57.742784
846.0000,69.911166
847.0000,78.143302
848.0000,94.866208
849.0000,105.125385
850.0000,115.683776
851.0000,148.137414
852.0000,170.732832
853.0000,208.039707
854.0000,239.097651
855.0000,264.627609
856.0000,293.609963
857.0000,306.691977
858.0000,288.416871
859.0000,272.078379
860.0000,226.738130
861.0000,193.113755
862.0000,173.165165
863.0000,152.371684
864.0000,120.945554
865.0000,104.008165
866.0000,91.078658
867.0000,74.590350
868.0000,64.644826
869.0000,63.315221
870.0000,53.256976
871.0000,49.799470
872.0000,41.690770
873.0000,29.098564
874.0000,36.687744
875.0000,32.541610
876.0000,43.248971
877.0000,23.382696
878.0000,16.283150
879.0000,28.741670
880.0000,13.762330
881.0000,23.106576
882.0000,24.745704
883.0000,19.133284
884.0000,14.789649
885.0000,12.090312
886.0000,18.339173
887.0000,5.054911
888.0000,9.753889
889.0000,15.936523
890.0000,17.237543
891.0000,17.017249
892.0000,8.628731
893.0000,9.137368
894.0000,-0.439810
895.0000,-0.626980
896.0000,13.081725
897.0000,13.400943
898.0000,6.156552
899.0000,11.831732
900.0000,16.160857
901.0000,5.767459
902.0000,-1.657811
903.0000,15.925023
904.0000,8.415843
905.0000,9.817247
906.0000,-2.015489
907.0000,8.327937
908.0000,9.399049
909.0000,4.422328
910.0000,4.492825
911.0000,-0.088899
912.0000,1.826615
913.0000,6.884058
914.0000,5.855409
915.0000,4.499012
916.0000,10.422989
917.0000,5.060502
918.0000,-0.651841
919.0000,4.644733
920.0000,-3.633818
921.0000,-0.040812
922.0000,4.029166
923.0000,8.900644
924.0000,3.466201
925.0000,7.046180
926.0000,-9.905986
927.0000,-11.290689
928.0000,-12.524744
929.0000,7.760382
930.0000,0.922847
931.0000,-3.742315
932.0000,-3.948167
933.0000,8.656048
934.0000,2.868124
935.0000,-0.696894
936.0000,-2.257416
937.0000,7.329295
938.0000,4.176741
939.0000,-8.477919
940.0000,7.507408
941.0000,-3.990706
942.0000,2.967134
943.0000,12.248450
944.0000,11.308060
945.0000,0.731238
946.0000,-2.798504
947.0000,1.034577
948.0000,-2.234566
949.0000,1.705279
950.0000,4.868529
951.0000,-2.828102
952.0000,7.731256
953.0000,-3.259070
954.0000,7.784632
955.0000,3.024717
956.0000,1.335445
957.0000,4.795347
958.0000,-6.052118
959.0000,2.596501
960.0000,-10.393891
961.0000,13.738923
962.0000,10.195727
963.0000,0.665523
964.0000,-14.728497
965.0000,9.064230
966.0000,8.358932
967.0000,3.281760
968.0000,-0.438142
969.0000,0.925696
970.0000,0.912185
971.0000,7.400883
972.0000,-0.646888
973.0000,-1.207621
974.0000,3.899934
975.0000,-6.164904
976.0000,2.652823
977.0000,-6.009839
978.0000,-0.521531
979.0000,9.557719
980.0000,-7.090779
981.0000,-0.348482
982.0000,-0.400076
983.0000,7.743439
984.0000,2.352629
985.0000,11.408613
986.0000,7.296859
987.0000,7.833927
988.0000,8.159442
989.0000,-4.386373
990.0000,5.865797
991.0000,2.711288
992.0000,3.425641
993.0000,0.699688
994.0000,11.151134
995.0000,-0.040848
996.0000,7.143324
997.0000,16.697730
998.0000,9.301661
999.0000,-3.421953
1000.0000,12.742910
1001.0000,-2.970267
1002.0000,0.277444
1003.0000,0.894486
1004.0000,17.346142
1005.0000,15.467271
1006.0000,8.401745
1007.0000,8.679165
1008.0000,12.497119
1009.0000,5.590800
1010.0000,2.664485
1011.0000,-1.941789
1012.0000,7.975704
1013.0000,4.431359
1014.0000,15.721300
1015.0000,11.243125
1016.0000,-1.570314
1017.0000,1.472808
1018.0000,8.855006
1019.0000,6.153581
1020.0000,-1.636501
1021.0000,6.149364
1022.0000,6.676547
1023.0000,3.677742
1024.0000,-0.754665
1025.0000,5.980546
1026.0000,-1.200229
1027.0000,8.092787
1028.0000,4.072166
1029.0000,4.339977
1030.0000,11.205141
1031.0000,4.895488
1032.0000,14.403992
1033.0000,1.672771
1034.0000,-10.064893
1035.0000,11.949876
1036.0000,9.888237
1037.0000,9.248085
1038.0000,10.872632
1039.0000,13.283068
1040.0000,4.246223
1041.0000,6.984519
1042.0000,11.264844
1043.0000,-6.586028
1044.0000,-0.403882
1045.0000,10.188577
1046.0000,7.947537
1047.0000,25.268344
1048.0000,6.717489
1049.0000,7.216231
1050.0000,2.401655
1051.0000,3.041952
1052.0000,3.310589
1053.0000,13.669094
1054.0000,11.067261
1055.0000,4.665274
1056.0000,21.287430
1057.0000,11.322173
1058.0000,12.549256
1059.0000,11.319511
1060.0000,11.971163
1061.0000,16.962653
1062.0000,18.446019
1063.0000,9.550316
1064.0000,14.954623
1065.0000,21.576658
1066.0000,18.312433
1067.0000,10.588381
1068.0000,18.004428
1069.0000,8.599909
1070.0000,12.955258
1071.0000,14.464626
1072.0000,26.190601
1073.0000,29.215782
1074.0000,25.327961
1075.0000,21.365000
1076.0000,24.659534
1077.0000,35.972427
1078.0000,33.588345
1079.0000,47.371253
1080.0000,43.141410
1081.0000,67.551899
1082.0000,58.026829
1083.0000,63.732687
1084.0000,78.417109
1085.0000,81.562993
1086.0000,95.382229
1087.0000,129.711746
1088.0000,138.140551
1089.0000,156.079409
1090.0000,193.917574
1091.0000,233.155851
1092.0000,274.185015
1093.0000,327.949100
1094.0000,382.191739
1095.0000,417.105024
1096.0000,446.295808
1097.0000,419.848602
1098.0000,392.137578
1099.0000,341.935219
1100.0000,291.437157
1101.0000,246.248992
1102.0000,218.232669
1103.0000,196.448854
1104.0000,170.225615
1105.0000,160.774515
1106.0000,145.853656
1107.0000,152.449872
1108.0000,145.713457
1109.0000,162.509313
1110.0000,165.909643
1111.0000,208.759368
1112.0000,229.560942
1113.0000,254.583804
1114.0000,293.378700
1115.0000,336.790478
1116.0000,376.528109
1117.0000,379.024555
1118.0000,361.401778
1119.0000,339.314104
1120.0000,286.245303
1121.0000,234.883245
1122.0000,192.397631
1123.0000,161.650995
1124.0000,136.812365
1125.0000,123.771700
1126.0000,100.291449
1127.0000,73.335702
1128.0000,68.178443
1129.0000,58.346671
1130.0000,69.606676
1131.0000,53.622036
1132.0000,54.174812
1133.0000,51.877892
1134.0000,44.896571
1135.0000,31.447682
1136.0000,37.441929
1137.0000,24.720695
1138.0000,34.422122
1139.0000,27.488289
1140.0000,17.974929
1141.0000,20.246475
1142.0000,25.605312
1143.0000,25.553130
1144.0000,22.848733
1145.0000,8.096061
1146.0000,18.979656
1147.0000,5.780278
1148.0000,21.055507
1149.0000,9.242835
1150.0000,13.751675
1151.0000,23.980503
1152.0000,13.266171
1153.0000,7.372599
1154.0000,23.466477
1155.0000,8.315982
1156.0000,8.953762
1157.0000,17.352491
1158.0000,3.789860
1159.0000,19.011013
1160.0000,14.245523
1161.0000,27.559139
1162.0000,7.034540
1163.0000,13.682945
1164.0000,9.427836
1165.0000,13.437266
1166.0000,7.706991
1167.0000,6.888056
1168.0000,13.866180
1169.0000,10.057345
1170.0000,17.324172
1171.0000,13.776183
1172.0000,6.869336
1173.0000,2.807661
1174.0000,6.634914
1175.0000,2.251606
1176.0000,-1.843092
1177.0000,10.913918
1178.0000,5.428343
1179.0000,13.328478
1180.0000,-1.459556
1181.0000,7.984345
1182.0000,19.134390
1183.0000,7.513157
1184.0000,7.798773
1185.0000,5.585917
1186.0000,10.851804
1187.0000,4.777034
1188.0000,11.600904
1189.0000,4.651783
1190.0000,11.396872
1191.0000,4.652533
1192.0000,9.230428
1193.0000,0.631422
1194.0000,9.174126
1195.0000,11.390060
1196.0000,4.680260
1197.0000,3.746904
1198.0000,2.772749
1199.0000,10.422539
1200.0000,14.137242
1201.0000,-0.956037
1202.0000,1.616353
1203.0000,-0.103309
1204.0000,14.696831
1205.0000,-7.406563
1206.0000,9.680160
1207.0000,6.517292
1208.0000,1.690852
1209.0000,11.690193
1210.0000,10.140931
1211.0000,5.511184
1212.0000,8.501297
1213.0000,11.067134
1214.0000,20.325602
1215.0000,9.587549
1216.0000,-1.557330
1217.0000,1.645843
1218.0000,6.912881
1219.0000,5.479340
1220.0000,4.058711
1221.0000,10.548482
1222.0000,7.405728
1223.0000,9.339779
1224.0000,6.721341
1225.0000,5.965758
1226.0000,3.007487
1227.0000,-0.662009
1228.0000,-0.086027
1229.0000,7.546165
1230.0000,4.052524
1231.0000,7.826016
1232.0000,1.588036
1233.0000,11.910124
1234.0000,13.612060
1235.0000,15.071760
1236.0000,6.371017
1237.0000,17.291467
1238.0000,21.018197
1239.0000,16.209633
1240.0000,-3.510672
1241.0000,10.518361
1242.0000,15.994356
1243.0000,17.335740
1244.0000,7.868070
1245.0000,3.323390
1246.0000,16.798121
1247.0000,10.716809
1248.0000,1.488461
1249.0000,16.374053
1250.0000,11.706664
1251.0000,16.938836
1252.0000,18.292465
1253.0000,-1.085613
1254.0000,6.550647
1255.0000,24.609513
1256.0000,10.907518
1257.0000,12.447046
1258.0000,12.222772
1259.0000,15.961940
1260.0000,21.761907
1261.0000,28.206279
1262.0000,22.628490
1263.0000,16.568202
1264.0000,21.867266
1265.0000,23.361928
1266.0000,20.269315
1267.0000,33.740478
1268.0000,17.497693
1269.0000,34.379193
1270.0000,37.817889
1271.0000,39.257824
1272.0000,35.962132
1273.0000,42.295603
1274.0000,58.065892
1275.0000,63.322866
1276.0000,73.126142
1277.0000,80.863449
1278.0000,83.568444
1279.0000,99.230862
1280.0000,126.638569
1281.0000,134.211112
1282.0000,136.010546
1283.0000,173.106124
1284.0000,197.266877
1285.0000,221.376467
1286.0000,246.901523
1287.0000,286.297721
1288.0000,321.924841
1289.0000,332.636002
1290.0000,344.848874
1291.0000,323.914906
1292.0000,313.825391
1293.0000,281.991356
1294.0000,260.844705
1295.0000,215.240361
1296.0000,194.632078
1297.0000,155.092957
1298.0000,139.889886
1299.0000,114.567674
1300.0000,115.553541
1301.0000,94.686467
1302.0000,101.512881
1303.0000,76.304363
1304.0000,62.522098
1305.0000,70.095671
1306.0000,61.100634
1307.0000,48.932087
1308.0000,45.393999
1309.0000,40.943828
1310.0000,44.929315
1311.0000,50.273529
1312.0000,37.801592
1313.0000,31.241127
1314.0000,26.199289
1315.0000,21.104471
1316.0000,22.151103
1317.0000,24.045138
1318.0000,10.490479
1319.0000,25.696667
1320.0000,21.550764
1321.0000,21.225588
1322.0000,14.098240
1323.0000,13.104353
1324.0000,17.534309
1325.0000,2.299828
1326.0000,14.236737
1327.0000,14.141115
1328.0000,6.387118
1329.0000,17.025259
1330.0000,8.028979
1331.0000,7.303158
1332.0000,14.407391
1333.0000,5.032622
1334.0000,9.296202
1335.0000,11.481440
1336.0000,1.851803
1337.0000,5.229554
1338.0000,5.185016
1339.0000,8.748721
1340.0000,8.903417
1341.0000,2.600908
1342.0000,10.180109
1343.0000,7.411235
1344.0000,17.716659
1345.0000,9.751319
1346.0000,19.474804
1347.0000,11.378267
1348.0000,7.094320
1349.0000,8.410029
1350.0000,9.633824
1351.0000,8.348257
1352.0000,11.660512
1353.0000,18.652938
1354.0000,-0.789402
1355.0000,17.135990
1356.0000,1.232769
1357.0000,11.905063
1358.0000,6.853036
1359.0000,13.393171
1360.0000,11.577491
1361.0000,-5.411883
1362.0000,12.630392
1363.0000,6.482016
1364.0000,-0.783542
1365.0000,9.628513
1366.0000,10.271695
1367.0000,12.057799
1368.0000,10.868277
1369.0000,21.263744
1370.0000,9.082139
1371.0000,4.321061
1372.0000,13.188379
1373.0000,14.219413
1374.0000,13.298324
1375.0000,9.233677
1376.0000,25.464744
1377.0000,7.038455
1378.0000,13.020651
1379.0000,6.940619
1380.0000,20.274179
1381.0000,12.595249
1382.0000,10.038292
1383.0000,8.176964
1384.0000,15.850884
1385.0000,15.289172
1386.0000,14.709727
1387.0000,21.631518
1388.0000,20.089924
1389.0000,12.704477
1390.0000,22.198204
1391.0000,19.121616
1392.0000,25.103167
1393.0000,30.294730
1394.0000,12.963263
1395.0000,14.078089
1396.0000,35.489314
1397.0000,30.373153
1398.0000,50.547977
1399.0000,31.354682
1400.0000,52.452503
1401.0000,50.497704
1402.0000,51.765624
1403.0000,60.883366
1404.0000,66.746553
1405.0000,75.320288
1406.0000,92.870739
1407.0000,109.016954
1408.0000,113.641486
1409.0000,140.436270
1410.0000,158.900372
1411.0000,190.275235
1412.0000,219.055940
1413.0000,242.990700
1414.0000,270.815488
1415.0000,292.588702
1416.0000,293.763922
1417.0000,299.493100
1418.0000,277.194256
1419.0000,252.170632
1420.0000,212.334586
1421.0000,174.085637
1422.0000,153.336765
1423.0000,132.952781
1424.0000,112.773470
1425.0000,101.082514
1426.0000,92.431491
1427.0000,72.686822
1428.0000,55.658596
1429.0000,72.230302
1430.0000,56.935253
1431.0000,48.253087
1432.0000,43.209802
1433.0000,34.491958
1434.0000,34.651514
1435.0000,20.801447
1436.0000,29.143118
1437.0000,29.662860
1438.0000,21.723270
1439.0000,31.311540
1440.0000,16.734196
1441.0000,29.722759
1442.0000,24.121423
1443.0000,24.064787
1444.0000,13.348728
1445.0000,7.454600
1446.0000,20.160566
1447.0000,20.159965
1448.0000,14.098014
1449.0000,16.203511
1450.0000,8.747678
1451.0000,13.425598
1452.0000,4.419377
1453.0000,12.754939
1454.0000,22.594248
1455.0000,7.506094
1456.0000,-0.356890
1457.0000,21.398023
1458.0000,15.750045
1459.0000,9.549812
1460.0000,11.727212
1461.0000,10.818252
1462.0000,0.982914
1463.0000,4.776969
1464.0000,5.756027
1465.0000,13.580742
1466.0000,10.402483
1467.0000,6.650120
1468.0000,2.007830
1469.0000,5.962893
1470.0000,15.462881
1471.0000,15.341203
1472.0000,7.650530
1473.0000,-8.570299
1474.0000,15.385313
1475.0000,2.250482
1476.0000,7.468571
1477.0000,1.865528
1478.0000,0.389946
1479.0000,8.259785
1480.0000,10.028835
1481.0000,4.996380
1482.0000,-2.470616
1483.0000,-0.806428
1484.0000,4.676098
1485.0000,10.412502
1486.0000,0.025126
1487.0000,7.038223
1488.0000,4.798982
1489.0000,16.647384
1490.0000,7.126980
1491.0000,1.812631
1492.0000,2.842452
1493.0000,-8.690766
1494.0000,3.072824
1495.0000,4.776406
1496.0000,10.012428
1497.0000,4.004051
1498.0000,1.318213
1499.0000,21.656613
1500.0000,5.050479
1501.0000,5.009567
1502.0000,-0.960198
1503.0000,5.513412
1504.0000,-1.559930
1505.0000,11.642773
1506.0000,0.859368
1507.0000,4.666473
1508.0000,8.941334
1509.0000,2.368317
1510.0000,14.357420
1511.0000,5.366054
1512.0000,9.867632
1513.0000,-4.433104
1514.0000,8.783488
1515.0000,-3.721772
1516.0000,-0.394380
1517.0000,0.552475
1518.0000,0.673275
1519.0000,12.639861
1520.0000,3.331919
1521.0000,6.446819
1522.0000,0.658174
1523.0000,2.884718
1524.0000,2.306681
1525.0000,1.807719
1526.0000,-1.029195
1527.0000,5.072341
1528.0000,3.189365
1529.0000,2.324337
1530.0000,17.238161
1531.0000,3.688900
1532.0000,6.918947
1533.0000,-3.984868
1534.0000,8.760606
1535.0000,8.445055
1536.0000,15.523043
1537.0000,2.795155
1538.0000,9.729209
1539.0000,7.416543
1540.0000,-4.066235
1541.0000,7.463428
1542.0000,-4.118674
1543.0000,11.242200
1544.0000,-2.131145
1545.0000,5.237304
1546.0000,20.355562
1547.0000,8.646440
1548.0000,1.035979
1549.0000,6.703327
1550.0000,7.886004
1551.0000,8.539568
1552.0000,3.378686
1553.0000,10.128922
1554.0000,15.975738
1555.0000,1.347403
1556.0000,13.125583
1557.0000,4.054156
1558.0000,6.812235
1559.0000,3.319423
1560.0000,7.436568
1561.0000,13.624651
1562.0000,6.520982
1563.0000,15.831076
1564.0000,10.494817
1565.0000,14.587503
1566.0000,33.424978
1567.0000,16.713144
1568.0000,15.247195
1569.0000,16.876970
1570.0000,10.068221
1571.0000,11.803474
1572.0000,18.833464
1573.0000,12.279265
1574.0000,16.807384
1575.0000,24.163148
1576.0000,25.208287
1577.0000,20.799749
1578.0000,15.306348
1579.0000,23.734361
1580.0000,30.486841
1581.0000,31.987698
1582.0000,37.464829
1583.0000,21.002519
1584.0000,32.980882
1585.0000,19.449021
1586.0000,40.109953
1587.0000,31.847530
1588.0000,37.883399
1589.0000,42.546718
1590.0000,45.153997
1591.0000,49.408726
1592.0000,46.401225
1593.0000,52.195369
1594.0000,64.989165
1595.0000,75.067544
1596.0000,77.947272
1597.0000,86.379914
1598.0000,103.307055
1599.0000,105.713294
1600.0000,129.139391
1601.0000,138.429586
1602.0000,153.348612
1603.0000,180.586245
1604.0000,206.902396
1605.0000,248.641556
1606.0000,285.043797
1607.0000,359.372767
1608.0000,424.937856
1609.0000,522.959051
1610.0000,626.216770
1611.0000,762.279098
1612.0000,859.807140
1613.0000,958.801762
1614.0000,1002.955692
1615.0000,960.477696
1616.0000,860.182232
1617.0000,765.530239
1618.0000,631.763833
1619.0000,516.498321
1620.0000,427.218255
1621.0000,358.055870
1622.0000,295.301180
1623.0000,253.755336
1624.0000,217.695108
1625.0000,178.771452
1626.0000,159.617185
1627.0000,137.016602
1628.0000,113.264243
1629.0000,104.731157
1630.0000,103.976910
1631.0000,95.582741
1632.0000,72.211532
1633.0000,76.166239
1634.0000,64.974275
1635.0000,62.302450
1636.0000,63.331483
1637.0000,58.459790
1638.0000,34.766666
1639.0000,40.965759
1640.0000,39.886711
1641.0000,39.526361
1642.0000,33.726461
1643.0000,33.738088
1644.0000,25.314895
1645.0000,26.757738
1646.0000,25.763158
1647.0000,24.814975
1648.0000,24.221763
1649.0000,30.738405
1650.0000,15.760082
1651.0000,26.363725
1652.0000,15.255885
1653.0000,22.130486
1654.0000,34.305790
1655.0000,21.918336
1656.0000,14.872945
1657.0000,26.097754
1658.0000,14.681043
1659.0000,15.446744
1660.0000,23.292371
1661.0000,22.178309
1662.0000,22.032329
1663.0000,19.822374
1664.0000,25.798112
1665.0000,12.994009
1666.0000,15.894670
1667.0000,6.984772
1668.0000,29.723649
1669.0000,9.767125
1670.0000,15.196172
1671.0000,10.502478
1672.0000,16.042669
1673.0000,22.670596
1674.0000,14.970431
1675.0000,13.794421
1676.0000,10.571092
1677.0000,21.022937
1678.0000,26.521098
1679.0000,16.258210
1680.0000,16.290912
1681.0000,22.681491
1682.0000,19.325386
1683.0000,19.518565
1684.0000,21.022042
1685.0000,14.931493
1686.0000,23.004883
1687.0000,21.463114
1688.0000,17.665218
1689.0000,30.280874
1690.0000,14.352215
1691.0000,26.255620
1692.0000,25.380781
1693.0000,20.702300
1694.0000,23.577532
1695.0000,28.085530
1696.0000,16.151422
1697.0000,36.359104
1698.0000,38.701114
1699.0000,40.096982
1700.0000,43.181316
1701.0000,46.821477
1702.0000,39.407878
1703.0000,51.252149
1704.0000,48.846609
1705.0000,59.537303
1706.0000,52.775133
1707.0000,56.980541
1708.0000,62.152601
1709.0000,72.997346
1710.0000,73.921429
1711.0000,96.390417
1712.0000,88.712058
1713.0000,101.988348
1714.0000,116.188190
1715.0000,128.694468
1716.0000,155.321140
1717.0000,166.084015
1718.0000,189.095811
1719.0000,216.777397
1720.0000,236.800493
1721.0000,279.216624
1722.0000,320.809547
1723.0000,373.331425
1724.0000,410.105521
1725.0000,448.365543
1726.0000,485.097552
1727.0000,509.822989
1728.0000,520.209856
1729.0000,521.197813
1730.0000,494.471508
1731.0000,452.350716
1732.0000,405.486579
1733.0000,356.748975
1734.0000,311.484932
1735.0000,272.372724
1736.0000,242.235373
1737.0000,208.235263
1738.0000,186.419362
1739.0000,161.645175
1740.0000,143.707749
1741.0000,129.457122
1742.0000,103.749641
1743.0000,105.012950
1744.0000,96.748208
1745.0000,96.134900
1746.0000,71.858399
1747.0000,65.703438
1748.0000,60.681517
1749.0000,70.222124
1750.0000,49.098029
1751.0000,47.092536
1752.0000,47.339121
1753.0000,48.845940
1754.0000,56.604631
1755.0000,45.639571
1756.0000,42.785287
1757.0000,32.164155
1758.0000,28.059101
1759.0000,32.527388
1760.0000,33.156447
1761.0000,22.194651
1762.0000,34.662327
1763.0000,16.895298
1764.0000,14.940604
1765.0000,21.273590
1766.0000,17.623421
1767.0000,19.383575
1768.0000,26.419481
1769.0000,16.858482
1770.0000,19.665623
1771.0000,13.916922
1772.0000,11.451584
1773.0000,12.241869
1774.0000,24.484652
1775.0000,20.472607
1776.0000,13.364925
1777.0000,20.989078
1778.0000,11.193431
1779.0000,16.806618
1780.0000,17.778682
1781.0000,-2.504489
1782.0000,-2.110108
1783.0000,8.133246
1784.0000,8.655274
1785.0000,1.354806
1786.0000,10.505056
1787.0000,1.991438
1788.0000,15.752013
1789.0000,14.728604
1790.0000,2.705200
1791.0000,-0.302679
1792.0000,10.237311
1793.0000,1.854712
1794.0000,9.607235
1795.0000,18.643859
1796.0000,2.873532
1797.0000,9.198398
1798.0000,20.850809
1799.0000,8.652182
1800.0000,12.723560
1801.0000,-4.915003
1802.0000,7.032037
1803.0000,4.222986
1804.0000,2.229762
1805.0000,-8.660041
1806.0000,-1.873652
1807.0000,8.177792
1808.0000,8.831345
1809.0000,-0.996973
1810.0000,4.691673
1811.0000,3.994203
1812.0000,5.868312
1813.0000,7.800876
1814.0000,-5.038493
1815.0000,5.279800
1816.0000,6.110335
1817.0000,-4.732771
1818.0000,-4.248496
1819.0000,4.371779
1820.0000,7.012879
1821.0000,2.269567
1822.0000,-6.592301
1823.0000,-7.600365
1824.0000,5.737897
1825.0000,13.893927
1826.0000,5.959266
1827.0000,1.090134
1828.0000,-0.217974
1829.0000,-2.320031
1830.0000,5.222121
1831.0000,5.417087
1832.0000,0.157717
1833.0000,10.374845
1834.0000,6.468653
1835.0000,-0.944620
1836.0000,8.810803
1837.0000,8.097900
1838.0000,3.560691
1839.0000,-5.713053
1840.0000,4.517549
1841.0000,8.436486
1842.0000,-9.181588
1843.0000,-10.772999
1844.0000,-8.034372
1845.0000,2.235712
1846.0000,5.929933
1847.0000,5.682735
1848.0000,-5.111809
1849.0000,-0.304806
1850.0000,4.591715
1851.0000,2.385332
1852.0000,-6.170080
1853.0000,-0.927972
1854.0000,5.876639
1855.0000,-1.506368
1856.0000,-7.069072
1857.0000,4.742774
1858.0000,5.021864
1859.0000,-2.129517
1860.0000,-7.996691
1861.0000,-11.062261
1862.0000,-0.403854
1863.0000,5.652936
1864.0000,-5.049649
1865.0000,7.705435
1866.0000,-8.804832
1867.0000,4.369194
1868.0000,0.836427
1869.0000,-3.951298
1870.0000,6.068254
1871.0000,4.621716
1872.0000,9.270937
1873.0000,8.425457
1874.0000,-9.069844
1875.0000,-0.869124
1876.0000,4.271713
1877.0000,9.385297
1878.0000,4.895434
1879.0000,9.606170
1880.0000,0.614355
1881.0000,-1.125559
1882.0000,1.088572
1883.0000,7.625239
1884.0000,-0.269998
1885.0000,-5.858768
1886.0000,5.043663
1887.0000,-3.354689
1888.0000,3.539564
1889.0000,5.222374
1890.0000,-3.006697
1891.0000,-7.414942
1892.0000,18.708964
1893.0000,0.449861
1894.0000,3.855720
1895.0000,-0.281409
1896.0000,-1.179121
1897.0000,4.661475
1898.0000,-3.259004
1899.0000,3.360228
1900.0000,6.291463
1901.0000,8.974658
1902.0000,9.674780
1903.0000,0.255397
1904.0000,-5.121580
1905.0000,0.854651
1906.0000,4.628133
1907.0000,0.359142
1908.0000,4.905864
1909.0000,8.001199
1910.0000,12.719569
1911.0000,1.335185
1912.0000,-5.664298
1913.0000,4.958424
1914.0000,-0.531949
1915.0000,7.066835
1916.0000,-1.784994
1917.0000,1.172837
1918.0000,-3.076399
1919.0000,11.314356
1920.0000,-1.241592
1921.0000,6.528523
1922.0000,-0.438872
1923.0000,0.087459
1924.0000,4.757676
1925.0000,-13.207834
1926.0000,3.232521
1927.0000,3.027704
1928.0000,6.143668
1929.0000,6.677336
1930.0000,-0.118112
1931.0000,-1.129857
1932.0000,-0.038172
1933.0000,-8.111751
1934.0000,0.933652
1935.0000,1.009097
1936.0000,0.442957
1937.0000,6.015135
1938.0000,-7.295294
1939.0000,11.022426
1940.0000,-9.255787
1941.0000,1.006751
1942.0000,2.427060
1943.0000,0.614411
1944.0000,4.379278
1945.0000,-1.647973
1946.0000,-6.688595
1947.0000,-5.583790
1948.0000,5.256799
1949.0000,3.965294
1950.0000,-0.970293
1951.0000,8.628288
1952.0000,3.650599
1953.0000,0.052233
1954.0000,1.170204
1955.0000,3.002675
1956.0000,7.843318
1957.0000,10.687895
1958.0000,-4.677009
1959.0000,-4.852855
1960.0000,-2.478955
1961.0000,4.008710
1962.0000,1.640534
1963.0000,-3.520897
1964.0000,11.572274
1965.0000,2.957504
1966.0000,5.540437
1967.0000,3.880798
1968.0000,8.724259
1969.0000,-1.536302
1970.0000,1.223804
1971.0000,4.353716
1972.0000,-10.849060
1973.0000,0.595130
1974.0000,4.039208
1975.0000,-5.045639
1976.0000,-3.666470
1977.0000,-3.681320
1978.0000,13.124387
1979.0000,2.403567
1980.0000,10.691160
1981.0000,-9.291145
1982.0000,9.678414
1983.0000,-5.130376
1984.0000,-3.124037
1985.0000,4.200581
1986.0000,0.596475
1987.0000,3.702190
1988.0000,-6.817237
1989.0000,3.117298
1990.0000,3.999680
1991.0000,-2.635363
1992.0000,5.245636
1993.0000,-2.174665
1994.0000,-8.260871
1995.0000,-3.767677
1996.0000,1.142967
1997.0000,-5.378555
1998.0000,-0.206403
1999.0000,13.965568
2000.0000,8.436461
