raman_shift_cm-1,intensity
200.0000,15.157046
201.0000,4.136450
202.0000,-1.806700
203.0000,-12.191788
204.0000,-3.456630
205.0000,-8.514782
206.0000,4.418975
207.0000,-11.486728
208.0000,-5.616476
209.0000,-6.014437
210.0000,1.014846
211.0000,-4.658100
212.0000,-2.646492
213.0000,7.547895
214.0000,-1.240711
215.0000,-8.071288
216.0000,-3.289562
217.0000,-12.661299
218.0000,5.831754
219.0000,-6.664631
220.0000,4.928830
221.0000,6.844792
222.0000,5.969015
223.0000,-1.859798
224.0000,4.338705
225.0000,0.195055
226.0000,3.634095
227.0000,-5.170221
228.0000,-0.039435
229.0000,2.246898
230.0000,-1.436146
231.0000,-10.217751
232.0000,-2.006049
233.0000,5.355587
234.0000,-4.100764
235.0000,14.446336
236.0000,14.788539
237.0000,2.528793
238.0000,0.756116
239.0000,6.868522
240.0000,-9.786723
241.0000,0.789022
242.0000,-9.285952
243.0000,-3.000490
244.0000,-3.544185
245.0000,8.008982
246.0000,6.935708
247.0000,-0.902189
248.0000,3.177670
249.0000,-1.674653
250.0000,-1.849622
251.0000,-7.590275
252.0000,-3.072173
253.0000,-2.148954
254.0000,-1.657085
255.0000,-2.339279
256.0000,-14.650655
257.0000,1.685175
258.0000,1.288874
259.0000,0.844384
260.0000,-1.781761
261.0000,-14.406627
262.0000,0.280127
263.0000,7.992365
264.0000,-12.674093
265.0000,-3.850697
266.0000,-4.290091
267.0000,-0.137357
268.0000,-11.865217
269.0000,-0.111010
270.0000,0.095114
271.0000,-0.935626
272.0000,1.807528
273.0000,0.519450
274.0000,0.394136
275.0000,-1.161901
276.0000,2.726579
277.0000,-0.034745
278.0000,-4.363161
279.0000,-6.900547
280.0000,1.759289
281.0000,2.539290
282.0000,4.149162
283.0000,-9.946610
284.0000,3.684358
285.0000,-1.110457
286.0000,2.054924
287.0000,-5.166261
288.0000,0.624851
289.0000,2.976921
290.0000,8.233250
291.0000,4.600996
292.0000,6.182201
293.0000,-3.620895
294.0000,2.697005
295.0000,2.973405
296.0000,12.538585
297.0000,11.678782
298.0000,-0.560196
299.0000,-5.732033
300.0000,4.238577
301.0000,-10.101537
302.0000,2.367367
303.0000,1.942814
304.0000,0.758177
305.0000,10.951229
306.0000,-7.053725
307.0000,-0.469280
308.0000,17.211592
309.0000,-4.911615
310.0000,-1.838617
311.0000,-5.005356
312.0000,5.054234
313.0000,-3.394093
314.0000,0.177126
315.0000,1.289142
316.0000,5.874566
317.0000,-4.532647
318.0000,5.256749
319.0000,0.996241
320.0000,0.205168
321.0000,-3.235366
322.0000,4.661679
323.0000,-0.224737
324.0000,9.474402
325.0000,-9.140032
326.0000,-3.223016
327.0000,1.146468
328.0000,2.232428
329.0000,3.907748
330.0000,1.662612
331.0000,4.702655
332.0000,-3.069820
333.0000,3.983585
334.0000,14.227390
335.0000,-9.406738
336.0000,-4.564775
337.0000,0.819401
338.0000,8.395109
339.0000,10.235369
340.0000,-2.497399
341.0000,4.862380
342.0000,4.943888
343.0000,-2.647965
344.0000,4.754179
345.0000,5.346336
346.0000,1.903616
347.0000,-5.005382
348.0000,1.879514
349.0000,4.243304
350.0000,3.575139
351.0000,4.912615
352.0000,6.256371
353.0000,3.085464
354.0000,-0.497206
355.0000,2.689425
356.0000,-5.324189
357.0000,0.070946
358.0000,6.439051
359.0000,-3.462429
360.0000,1.044125
361.0000,2.799895
362.0000,-0.859915
363.0000,0.241637
364.0000,0.367977
365.0000,-3.640641
366.0000,-0.594979
367.0000,5.351812
368.0000,-3.942610
369.0000,-2.587567
370.0000,0.941424
371.0000,5.193410
372.0000,-3.145883
373.0000,-1.518964
374.0000,-7.372968
375.0000,6.152699
376.0000,-2.857115
377.0000,-7.204346
378.0000,5.168387
379.0000,-9.786352
380.0000,7.209740
381.0000,-2.522501
382.0000,5.301091
383.0000,0.917709
384.0000,9.988841
385.0000,-1.914880
386.0000,-1.291516
387.0000,-1.593395
388.0000,-6.381403
389.0000,1.511069
390.0000,-3.740903
391.0000,12.435393
392.0000,-0.255382
393.0000,17.058709
394.0000,-0.218364
395.0000,-5.316944
396.0000,-1.662293
397.0000,-9.798470
398.0000,-0.965198
399.0000,5.609038
400.0000,2.245784
401.0000,9.732577
402.0000,-5.965993
403.0000,-2.902535
404.0000,-1.998517
405.0000,2.228398
406.0000,10.863013
407.0000,-2.482198
408.0000,-0.362959
409.0000,-0.700983
410.0000,3.247717
411.0000,1.625546
412.0000,7.342578
413.0000,-0.388974
414.0000,4.783447
415.0000,7.072303
416.0000,0.661213
417.0000,-1.741389
418.0000,-0.083503
419.0000,1.964923
420.0000,-4.918372
421.0000,-8.930732
422.0000,2.180154
423.0000,9.538115
424.0000,-1.868202
425.0000,2.725387
426.0000,-2.388231
427.0000,1.423599
428.0000,-2.334885
429.0000,-2.005382
430.0000,-2.934421
431.0000,11.529449
432.0000,1.397391
433.0000,-3.064841
434.0000,-4.778475
435.0000,8.138324
436.0000,-6.927535
437.0000,-0.672333
438.0000,-6.791154
439.0000,6.630548
440.0000,-2.458139
441.0000,-8.403932
442.0000,4.998071
443.0000,-3.507105
444.0000,2.416033
445.0000,5.994104
446.0000,-1.359940
447.0000,0.450307
448.0000,-2.724121
449.0000,-3.723369
450.0000,2.301350
451.0000,6.307113
452.0000,18.870466
453.0000,-7.220605
454.0000,6.592799
455.0000,3.611342
456.0000,-4.489305
457.0000,-1.275534
458.0000,10.225756
459.0000,2.177726
460.0000,3.052969
461.0000,-3.659303
462.0000,-5.939241
463.0000,-8.205526
464.0000,-2.824207
465.0000,7.172358
466.0000,-2.257858
467.0000,-2.469658
468.0000,2.625895
469.0000,5.745898
470.0000,1.381985
471.0000,2.629343
472.0000,3.114931
473.0000,-5.280005
474.0000,-1.478757
475.0000,8.394339
476.0000,-3.878906
477.0000,10.127959
478.0000,-0.835426
479.0000,-8.967610
480.0000,-4.741202
481.0000,0.685495
482.0000,-5.241429
483.0000,13.865918
484.0000,7.780048
485.0000,-11.792080
486.0000,-6.524892
487.0000,-5.347375
488.0000,-9.837775
489.0000,4.284319
490.0000,3.406566
491.0000,-5.736668
492.0000,9.217093
493.0000,-5.549457
494.0000,-1.763339
495.0000,-7.035925
496.0000,0.842597
497.0000,3.610101
498.0000,5.538218
499.0000,-4.955805
500.0000,0.541223
501.0000,1.045097
502.0000,-7.794106
503.0000,11.224103
504.0000,11.227995
505.0000,-2.838007
506.0000,5.280432
507.0000,-1.343472
508.0000,4.960674
509.0000,2.912824
510.0000,8.614146
511.0000,-0.489047
512.0000,-4.866914
513.0000,1.614838
514.0000,-0.437213
515.0000,4.844986
516.0000,9.093810
517.0000,-9.337316
518.0000,-7.838796
519.0000,6.227901
520.0000,9.039697
521.0000,11.103585
522.0000,3.818729
523.0000,-9.001410
524.0000,-8.387250
525.0000,-3.581452
526.0000,-0.694748
527.0000,-6.655220
528.0000,3.840258
529.0000,-3.318032
530.0000,4.293613
531.0000,7.604375
532.0000,-2.259085
533.0000,-1.770255
534.0000,-7.819525
535.0000,14.534404
536.0000,-5.872564
537.0000,-0.671993
538.0000,-9.365836
539.0000,2.101146
540.0000,-5.120538
541.0000,1.660839
542.0000,3.214551
543.0000,10.177789
544.0000,2.411452
545.0000,7.644587
546.0000,1.837145
547.0000,12.747003
548.0000,-4.090552
549.0000,-0.533013
550.0000,-5.526289
551.0000,4.638195
552.0000,4.477655
553.0000,4.731217
554.0000,-4.526380
555.0000,-1.020530
556.0000,-3.855417
557.0000,-1.231936
558.0000,7.056137
559.0000,5.972562
560.0000,4.756468
561.0000,4.039144
562.0000,-3.251939
563.0000,9.381866
564.0000,-1.243776
565.0000,8.688375
566.0000,3.249634
567.0000,-7.812241
568.0000,4.318705
569.0000,3.498108
570.0000,-2.078936
571.0000,-3.042272
572.0000,-3.772550
573.0000,7.469154
574.0000,-0.912271
575.0000,5.166939
576.0000,-2.567942
577.0000,5.535136
578.0000,-2.287863
579.0000,1.865759
580.0000,3.097748
581.0000,8.271955
582.0000,6.532685
583.0000,7.543817
584.0000,2.992117
585.0000,9.199257
586.0000,3.806367
587.0000,11.483022
588.0000,3.370182
589.0000,6.903563
590.0000,5.578164
591.0000,5.129450
592.0000,11.105709
593.0000,1.380701
594.0000,4.720080
595.0000,-1.551469
596.0000,2.093091
597.0000,1.453400
598.0000,-5.452144
599.0000,0.746037
600.0000,5.117828
601.0000,15.494847
602.0000,11.051140
603.0000,6.564417
604.0000,10.080621
605.0000,14.344695
606.0000,11.013622
607.0000,13.536112
608.0000,13.584544
609.0000,1.391230
610.0000,22.416812
611.0000,10.949048
612.0000,18.679452
613.0000,15.654606
614.0000,15.277039
615.0000,18.993735
616.0000,26.499200
617.0000,22.342929
618.0000,27.198723
619.0000,33.029349
620.0000,41.183438
621.0000,33.928099
622.0000,57.274580
623.0000,63.485251
624.0000,57.947564
625.0000,74.941370
626.0000,91.220699
627.0000,119.203680
628.0000,151.791151
629.0000,166.499602
630.0000,176.575079
631.0000,191.194184
632.0000,204.353363
633.0000,193.071206
634.0000,179.160230
635.0000,163.390177
636.0000,133.033910
637.0000,106.668294
638.0000,91.889877
639.0000,79.523966
640.0000,68.761399
641.0000,63.852763
642.0000,56.896410
643.0000,38.696615
644.0000,38.069461
645.0000,44.069418
646.0000,31.684874
647.0000,27.122357
648.0000,27.553276
649.0000,31.270262
650.0000,18.698660
651.0000,19.548967
652.0000,9.382578
653.0000,15.052268
654.0000,23.102215
655.0000,10.646137
656.0000,21.289038
657.0000,15.203946
658.0000,19.768051
659.0000,21.043708
660.0000,16.867029
661.0000,14.861509
662.0000,15.009876
663.0000,6.957096
664.0000,23.542869
665.0000,24.382467
666.0000,11.825291
667.0000,22.956698
668.0000,9.772426
669.0000,18.585623
670.0000,21.551747
671.0000,12.749415
672.0000,2.569144
673.0000,15.140275
674.0000,13.231116
675.0000,12.934715
676.0000,25.574700
677.0000,17.069724
678.0000,15.459715
679.0000,35.595697
680.0000,22.204662
681.0000,25.437378
682.0000,34.970725
683.0000,40.726027
684.0000,34.395889
685.0000,44.129536
686.0000,40.292357
687.0000,42.000106
688.0000,67.452487
689.0000,58.549651
690.0000,50.458990
691.0000,69.086276
692.0000,88.149865
693.0000,97.434196
694.0000,105.825771
695.0000,114.064067
696.0000,146.695603
697.0000,175.496892
698.0000,208.423467
699.0000,223.715146
700.0000,256.782075
701.0000,272.781452
702.0000,275.252311
703.0000,279.258753
704.0000,252.947274
705.0000,233.403126
706.0000,199.803872
707.0000,167.798551
708.0000,153.816807
709.0000,124.219623
710.0000,107.909872
711.0000,92.877593
712.0000,87.658282
713.0000,70.206305
714.0000,58.903830
715.0000,55.540670
716.0000,55.324971
717.0000,47.097976
718.0000,35.334734
719.0000,26.895518
720.0000,30.767205
721.0000,24.575440
722.0000,25.336958
723.0000,29.590938
724.0000,23.514741
725.0000,32.885416
726.0000,6.221304
727.0000,24.180200
728.0000,15.021495
729.0000,6.514173
730.0000,18.868786
731.0000,22.991200
732.0000,20.268569
733.0000,19.136803
734.0000,15.858800
735.0000,22.726035
736.0000,2.423813
737.0000,13.456591
738.0000,14.634859
739.0000,11.052497
740.0000,2.952664
741.0000,12.879163
742.0000,12.843231
743.0000,-2.728526
744.0000,0.409108
745.0000,4.436488
746.0000,2.872297
747.0000,11.316299
748.0000,13.135716
749.0000,6.250606
750.0000,3.473483
751.0000,10.906384
752.0000,10.885922
753.0000,11.340417
754.0000,8.755646
755.0000,1.606308
756.0000,1.722699
757.0000,6.187997
758.0000,19.355083
759.0000,16.925731
760.0000,19.394581
761.0000,8.249032
762.0000,6.097564
763.0000,19.652962
764.0000,7.065175
765.0000,9.591532
766.0000,1.799971
767.0000,15.457036
768.0000,15.501075
769.0000,9.740012
770.0000,9.247266
771.0000,1.540547
772.0000,2.667246
773.0000,20.271036
774.0000,13.430976
775.0000,21.976796
776.0000,17.361671
777.0000,20.679415
778.0000,3.350034
779.0000,24.285488
780.0000,30.157772
781.0000,29.941192
782.0000,19.590111
783.0000,33.249321
784.0000,34.619070
785.0000,43.408678
786.0000,37.195851
787.0000,45.233012
788.0000,58.821821
789.0000,62.444010
790.0000,61.704156
791.0000,74.258507
792.0000,88.317935
793.0000,86.686518
794.0000,99.222115
795.0000,95.964794
796.0000,101.722533
797.0000,89.034542
798.0000,86.607670
799.0000,85.084490
800.0000,71.141016
801.0000,60.469772
802.0000,52.583702
803.0000,38.848325
804.0000,49.900792
805.0000,37.619077
806.0000,18.186610
807.0000,31.370143
808.0000,31.512283
809.0000,24.688513
810.0000,17.680171
811.0000,19.654723
812.0000,24.039655
813.0000,24.772678
814.0000,18.609096
815.0000,13.851689
816.0000,24.677663
817.0000,16.552730
818.0000,14.836277
819.0000,18.167876
820.0000,19.325543
821.0000,14.166462
822.0000,7.656025
823.0000,17.312822
824.0000,16.134534
825.0000,14.466012
826.0000,18.535563
827.0000,22.496674
828.0000,24.798176
829.0000,24.282474
830.0000,24.294836
831.0000,30.692140
832.0000,27.167838
833.0000,19.808359
834.0000,26.785499
835.0000,23.295907
836.0000,19.503925
837.0000,33.706615
838.0000,26.381307
839.0000,37.714963
840.0000,29.849500
841.0000,42.013437
842.0000,41.014759
843.0000,38.851365
844.0000,68.414046
845.0000,55.647251
846.0000,56.731863
847.0000,74.185526
848.0000,86.858719
849.0000,107.567053
850.0000,124.351320
851.0000,134.112087
852.0000,169.671627
853.0000,205.540542
854.0000,239.987264
855.0000,264.671254
856.0000,297.030341
857.0000,295.901289
858.0000,290.540739
859.0000,262.208457
860.0000,238.747242
861.0000,196.431084
862.0000,178.912512
863.0000,152.384445
864.0000,116.687017
865.0000,104.032100
866.0000,85.022835
867.0000,69.848154
868.0000,64.514234
869.0000,57.865438
870.0000,49.887518
871.0000,37.662130
872.0000,50.126102
873.0000,33.731099
874.0000,29.423726
875.0000,42.041867
876.0000,31.561233
877.0000,30.910906
878.0000,21.723116
879.0000,20.999279
880.0000,4.759625
881.0000,21.019436
882.0000,15.442344
883.0000,21.511948
884.0000,6.748686
885.0000,15.861884
886.0000,18.486746
887.0000,7.878879
888.0000,23.049921
889.0000,-0.124951
890.0000,14.316612
891.0000,11.714848
892.0000,1.874400
893.0000,9.428458
894.0000,15.477188
895.0000,12.173164
896.0000,12.602726
897.0000,4.992290
898.0000,3.517207
899.0000,16.286058
900.0000,12.061534
901.0000,11.570964
902.0000,-0.117607
903.0000,-3.237149
904.0000,11.264992
905.0000,-1.678594
906.0000,3.838689
907.0000,10.480223
908.0000,8.328233
909.0000,-6.103376
910.0000,4.280942
911.0000,-4.946588
912.0000,2.424080
913.0000,12.046092
914.0000,12.191892
915.0000,-0.827128
916.0000,3.381808
917.0000,-1.740489
918.0000,1.268426
919.0000,5.227183
920.0000,8.498804
921.0000,1.096069
922.0000,-0.127846
923.0000,10.390905
924.0000,12.645903
925.0000,1.756332
926.0000,6.329020
927.0000,8.999763
928.0000,-1.355023
929.0000,2.461103
930.0000,12.329820
931.0000,-1.642981
932.0000,12.762487
933.0000,-1.606139
934.0000,4.691122
935.0000,-1.484814
936.0000,2.265149
937.0000,3.267724
938.0000,12.930027
939.0000,4.905236
940.0000,17.014141
941.0000,4.098192
942.0000,5.324703
943.0000,-4.618605
944.0000,4.575830
945.0000,4.917883
946.0000,-2.785363
947.0000,3.752680
948.0000,1.337810
949.0000,4.192565
950.0000,0.231394
951.0000,7.749117
952.0000,8.080038
953.0000,2.742953
954.0000,1.431941
955.0000,-1.516241
956.0000,-3.556169
957.0000,6.365702
958.0000,3.767974
959.0000,4.737369
960.0000,6.400723
961.0000,-5.424426
962.0000,1.156121
963.0000,-7.317981
964.0000,9.388851
965.0000,-3.683443
966.0000,-11.045540
967.0000,8.558115
968.0000,0.933612
969.0000,-4.005329
970.0000,-1.945442
971.0000,2.394159
972.0000,8.167745
973.0000,-3.043801
974.0000,14.061533
975.0000,-9.647367
976.0000,7.901091
977.0000,8.016775
978.0000,2.969691
979.0000,1.113254
980.0000,7.710843
981.0000,10.167344
982.0000,-7.375745
983.0000,-3.199730
984.0000,1.125943
985.0000,-6.022731
986.0000,-6.298611
987.0000,-2.191476
988.0000,0.373978
989.0000,9.382268
990.0000,2.280049
991.0000,-7.779606
992.0000,6.709922
993.0000,10.003612
994.0000,-9.640906
995.0000,4.435950
996.0000,5.731517
997.0000,8.061770
998.0000,1.686466
999.0000,0.226556
1000.0000,6.637034
1001.0000,-0.824175
1002.0000,-4.579985
1003.0000,1.037027
1004.0000,0.464293
1005.0000,-1.865303
1006.0000,-1.472180
1007.0000,0.220605
1008.0000,11.477642
1009.0000,4.078674
1010.0000,7.969890
1011.0000,-5.857818
1012.0000,0.598583
1013.0000,-0.280188
1014.0000,6.597532
1015.0000,5.894658
1016.0000,10.365992
1017.0000,6.599755
1018.0000,5.541676
1019.0000,7.724195
1020.0000,-1.499344
1021.0000,-4.259377
1022.0000,6.389599
1023.0000,1.890327
1024.0000,8.541178
1025.0000,-2.006021
1026.0000,-0.245061
1027.0000,1.759782
1028.0000,5.953629
1029.0000,-5.838126
1030.0000,12.702999
1031.0000,3.498109
1032.0000,-0.932533
1033.0000,13.379921
1034.0000,-0.838739
1035.0000,-0.692871
1036.0000,11.958399
1037.0000,4.834185
1038.0000,7.029695
1039.0000,10.100390
1040.0000,13.104538
1041.0000,-0.188560
1042.0000,3.042302
1043.0000,8.625507
1044.0000,13.516826
1045.0000,16.073878
1046.0000,18.635419
1047.0000,3.424088
1048.0000,5.774876
1049.0000,-1.164975
1050.0000,10.464378
1051.0000,13.328361
1052.0000,24.822216
1053.0000,16.096264
1054.0000,6.702011
1055.0000,9.850040
1056.0000,7.605296
1057.0000,4.161474
1058.0000,6.642651
1059.0000,20.915991
1060.0000,6.188029
1061.0000,10.223066
1062.0000,23.822111
1063.0000,27.109949
1064.0000,7.513174
1065.0000,28.348351
1066.0000,29.918411
1067.0000,25.424712
1068.0000,12.347551
1069.0000,14.314254
1070.0000,23.291775
1071.0000,21.194723
1072.0000,13.880372
1073.0000,23.101581
1074.0000,10.167051
1075.0000,36.459831
1076.0000,36.646987
1077.0000,33.586554
1078.0000,43.292240
1079.0000,40.818161
1080.0000,53.118601
1081.0000,50.707936
1082.0000,56.542694
1083.0000,66.059832
1084.0000,63.643963
1085.0000,89.794588
1086.0000,103.444707
1087.0000,108.986435
1088.0000,133.055855
1089.0000,158.126964
1090.0000,181.075151
1091.0000,234.046734
1092.0000,282.905530
1093.0000,335.593164
1094.0000,388.027015
1095.0000,418.592830
1096.0000,434.624561
1097.0000,416.622332
1098.0000,389.945227
1099.0000,352.340506
1100.0000,290.487756
1101.0000,251.014547
1102.0000,225.241726
1103.0000,191.879818
1104.0000,180.042081
1105.0000,170.829546
1106.0000,144.076224
1107.0000,154.338928
1108.0000,152.789731
1109.0000,166.480949
1110.0000,170.980290
1111.0000,190.341728
1112.0000,225.426950
1113.0000,263.525424
1114.0000,287.598537
1115.0000,349.413272
1116.0000,376.833828
1117.0000,386.454811
1118.0000,366.206979
1119.0000,329.920863
1120.0000,284.896070
1121.0000,252.179449
1122.0000,209.457531
1123.0000,169.730267
1124.0000,147.086631
1125.0000,123.154355
1126.0000,100.972828
1127.0000,91.709970
1128.0000,76.199023
1129.0000,69.941844
1130.0000,66.122534
1131.0000,44.823119
1132.0000,48.126262
1133.0000,35.584349
1134.0000,45.367182
1135.0000,27.634547
1136.0000,36.046218
1137.0000,32.203625
1138.0000,32.442960
1139.0000,27.706728
1140.0000,23.767515
1141.0000,26.912354
1142.0000,26.548659
1143.0000,18.571953
1144.0000,24.032768
1145.0000,9.034626
1146.0000,17.746015
1147.0000,0.740670
1148.0000,16.183634
1149.0000,21.038614
1150.0000,19.319965
1151.0000,17.829282
1152.0000,12.206393
1153.0000,9.426305
1154.0000,13.933355
1155.0000,12.123430
1156.0000,17.414797
1157.0000,19.488773
1158.0000,9.809191
1159.0000,16.422552
1160.0000,9.409585
1161.0000,3.903728
1162.0000,11.486466
1163.0000,15.930138
1164.0000,3.359056
1165.0000,6.462113
1166.0000,9.663200
1167.0000,5.953480
1168.0000,7.730723
1169.0000,15.036251
1170.0000,9.597570
1171.0000,5.968340
1172.0000,-0.563271
1173.0000,9.054259
1174.0000,11.331251
1175.0000,1.244946
1176.0000,6.824523
1177.0000,4.348390
1178.0000,4.127216
1179.0000,-1.953872
1180.0000,-2.063772
1181.0000,-1.112034
1182.0000,17.381457
1183.0000,4.006473
1184.0000,-0.523299
1185.0000,-1.171577
1186.0000,11.345766
1187.0000,16.101381
1188.0000,6.482812
1189.0000,13.708534
1190.0000,3.481364
1191.0000,4.720538
1192.0000,7.994980
1193.0000,9.492528
1194.0000,3.674074
1195.0000,3.668681
1196.0000,0.103880
1197.0000,14.874710
1198.0000,7.040512
1199.0000,10.034288
1200.0000,8.652416
1201.0000,6.065884
1202.0000,-3.440495
1203.0000,15.550528
1204.0000,6.083420
1205.0000,-3.156571
1206.0000,9.259128
1207.0000,9.303833
1208.0000,2.215294
1209.0000,-2.758437
1210.0000,10.883340
1211.0000,-10.259748
1212.0000,7.798939
1213.0000,7.258028
1214.0000,13.195684
1215.0000,9.789386
1216.0000,2.907458
1217.0000,3.501841
1218.0000,-2.976184
1219.0000,12.012239
1220.0000,4.610480
1221.0000,-0.808122
1222.0000,10.588378
1223.0000,14.382526
1224.0000,8.563950
1225.0000,14.285268
1226.0000,14.529257
1227.0000,11.534208
1228.0000,12.011159
1229.0000,-0.381194
1230.0000,10.601060
1231.0000,2.645622
1232.0000,9.194325
1233.0000,3.942642
1234.0000,5.165865
1235.0000,13.267812
1236.0000,4.899946
1237.0000,8.048251
1238.0000,3.044057
1239.0000,4.820976
1240.0000,11.789279
1241.0000,-0.314931
1242.0000,13.636696
1243.0000,-3.706627
1244.0000,20.314814
1245.0000,1.856845
1246.0000,14.172250
1247.0000,3.622917
1248.0000,8.336562
1249.0000,13.182226
1250.0000,8.582606
1251.0000,7.654562
1252.0000,10.086290
1253.0000,16.654766
1254.0000,18.606743
1255.0000,8.617543
1256.0000,19.525782
1257.0000,11.906655
1258.0000,8.560846
1259.0000,14.436542
1260.0000,11.770268
1261.0000,14.123619
1262.0000,17.322078
1263.0000,19.919179
1264.0000,23.408574
1265.0000,19.209303
1266.0000,42.640891
1267.0000,30.485695
1268.0000,40.670869
1269.0000,35.605443
1270.0000,32.776783
1271.0000,39.572542
1272.0000,55.865768
1273.0000,57.221672
1274.0000,57.084238
1275.0000,67.808074
1276.0000,65.141152
1277.0000,78.386320
1278.0000,90.886203
1279.0000,96.742930
1280.0000,112.988794
1281.0000,127.142824
1282.0000,140.745173
1283.0000,173.397088
1284.0000,181.730378
1285.0000,222.838594
1286.0000,253.335578
1287.0000,279.953855
1288.0000,315.014063
1289.0000,320.836321
1290.0000,338.442802
1291.0000,333.334146
1292.0000,312.694434
1293.0000,289.255296
1294.0000,272.993255
1295.0000,216.019663
1296.0000,205.540658
1297.0000,167.823052
1298.0000,142.025940
1299.0000,129.672928
1300.0000,109.831782
1301.0000,95.938735
1302.0000,85.917963
1303.0000,82.925848
1304.0000,62.697444
1305.0000,62.441202
1306.0000,58.256292
1307.0000,54.199747
1308.0000,52.326785
1309.0000,39.911810
1310.0000,31.651468
1311.0000,33.916462
1312.0000,32.894964
1313.0000,35.575601
1314.0000,24.067928
1315.0000,27.613155
1316.0000,21.369742
1317.0000,15.598905
1318.0000,17.534962
1319.0000,20.281315
1320.0000,27.363720
1321.0000,14.811563
1322.0000,30.403083
1323.0000,21.003946
1324.0000,13.435080
1325.0000,11.639557
1326.0000,21.429598
1327.0000,12.452606
1328.0000,8.997739
1329.0000,13.985156
1330.0000,17.926848
1331.0000,9.692201
1332.0000,17.298277
1333.0000,16.650202
1334.0000,14.624105
1335.0000,4.179192
1336.0000,23.676779
1337.0000,13.482334
1338.0000,21.997877
1339.0000,5.867432
1340.0000,11.046917
1341.0000,9.372098
1342.0000,4.798981
1343.0000,6.760939
1344.0000,6.965229
1345.0000,18.722589
1346.0000,5.301041
1347.0000,12.639567
1348.0000,5.398559
1349.0000,3.641924
1350.0000,4.931408
1351.0000,-5.075498
1352.0000,15.680733
1353.0000,14.553879
1354.0000,0.426350
1355.0000,10.429283
1356.0000,3.785271
1357.0000,8.199488
1358.0000,7.937898
1359.0000,-2.174678
1360.0000,2.525209
1361.0000,10.745855
1362.0000,8.358166
1363.0000,5.081236
1364.0000,6.680157
1365.0000,15.730068
1366.0000,10.781504
1367.0000,7.443099
1368.0000,18.383630
1369.0000,4.782729
1370.0000,10.817923
1371.0000,14.879852
1372.0000,1.930452
1373.0000,5.446999
1374.0000,6.890977
1375.0000,16.894631
1376.0000,16.543512
1377.0000,5.070655
1378.0000,6.486649
1379.0000,14.603164
1380.0000,2.427467
1381.0000,5.906534
1382.0000,10.693442
1383.0000,15.142208
1384.0000,4.227272
1385.0000,20.886766
1386.0000,16.029288
1387.0000,2.744762
1388.0000,24.288685
1389.0000,22.410396
1390.0000,15.409962
1391.0000,23.060817
1392.0000,20.817656
1393.0000,25.451480
1394.0000,11.891714
1395.0000,28.149096
1396.0000,27.048205
1397.0000,41.662196
1398.0000,27.382099
1399.0000,43.234753
1400.0000,42.650565
1401.0000,50.535101
1402.0000,57.125274
1403.0000,56.429077
1404.0000,80.510019
1405.0000,77.721125
1406.0000,91.491408
1407.0000,106.160073
1408.0000,120.932882
1409.0000,134.626983
1410.0000,153.321370
1411.0000,195.178852
1412.0000,213.668263
1413.0000,246.345863
1414.0000,273.066441
1415.0000,297.559540
1416.0000,306.065653
1417.0000,299.389333
1418.0000,273.262440
1419.0000,256.029054
1420.0000,216.267711
1421.0000,181.420052
1422.0000,163.567568
1423.0000,139.776926
1424.0000,113.222402
1425.0000,109.040395
1426.0000,93.209275
1427.0000,84.259655
1428.0000,67.479795
1429.0000,47.332429
1430.0000,39.104873
1431.0000,47.511168
1432.0000,32.168038
1433.0000,31.694026
1434.0000,33.210583
1435.0000,39.277382
1436.0000,31.804941
1437.0000,22.160976
1438.0000,15.783963
1439.0000,18.467523
1440.0000,18.301342
1441.0000,14.717551
1442.0000,21.545864
1443.0000,9.679954
1444.0000,16.479751
1445.0000,7.769035
1446.0000,22.456321
1447.0000,16.356372
1448.0000,18.585107
1449.0000,13.003642
1450.0000,8.925626
1451.0000,13.240920
1452.0000,10.501410
1453.0000,35.669062
1454.0000,3.779367
1455.0000,-1.551871
1456.0000,11.006708
1457.0000,12.718436
1458.0000,20.201572
1459.0000,4.788317
1460.0000,5.846223
1461.0000,15.163471
1462.0000,12.308851
1463.0000,3.870891
1464.0000,7.637505
1465.0000,8.274285
1466.0000,8.151560
1467.0000,8.535119
1468.0000,1.519666
1469.0000,7.741141
1470.0000,7.481759
1471.0000,4.293422
1472.0000,2.459000
1473.0000,-7.454928
1474.0000,1.015662
1475.0000,-0.059297
1476.0000,3.296969
1477.0000,7.595528
1478.0000,16.161805
1479.0000,-2.914828
1480.0000,17.607582
1481.0000,9.302953
1482.0000,0.106199
1483.0000,8.108327
1484.0000,2.811473
1485.0000,6.426818
1486.0000,3.905252
1487.0000,11.176682
1488.0000,6.783311
1489.0000,13.932058
1490.0000,-1.020908
1491.0000,-1.655200
1492.0000,4.797140
1493.0000,3.969446
1494.0000,13.634540
1495.0000,2.311938
1496.0000,16.901761
1497.0000,8.019406
1498.0000,1.950523
1499.0000,4.859313
1500.0000,4.240365
1501.0000,-0.694084
1502.0000,13.810349
1503.0000,-4.509104
1504.0000,2.488855
1505.0000,7.437138
1506.0000,4.771078
1507.0000,6.200881
1508.0000,3.845973
1509.0000,16.364532
1510.0000,5.990493
1511.0000,15.609048
1512.0000,5.740428
1513.0000,-3.477971
1514.0000,3.391906
1515.0000,7.799118
1516.0000,-1.711576
1517.0000,10.680644
1518.0000,7.958445
1519.0000,9.294490
1520.0000,-1.279909
1521.0000,4.015524
1522.0000,4.886012
1523.0000,6.479633
1524.0000,9.335615
1525.0000,1.616560
1526.0000,8.200781
1527.0000,2.339627
1528.0000,-5.771283
1529.0000,12.140868
1530.0000,2.457295
1531.0000,10.027403
1532.0000,-8.722752
1533.0000,0.587203
1534.0000,6.742025
1535.0000,10.320214
1536.0000,0.997010
1537.0000,13.114554
1538.0000,2.296252
1539.0000,-1.919742
1540.0000,4.835873
1541.0000,-3.016889
1542.0000,1.077408
1543.0000,0.907282
1544.0000,12.239508
1545.0000,1.012814
1546.0000,10.703225
1547.0000,12.606805
1548.0000,5.263739
1549.0000,13.936899
1550.0000,-3.851287
1551.0000,2.337658
1552.0000,11.840694
1553.0000,18.234183
1554.0000,9.345088
1555.0000,7.432243
1556.0000,13.928782
1557.0000,10.348559
1558.0000,-0.969579
1559.0000,15.579108
1560.0000,9.907741
1561.0000,15.994336
1562.0000,1.543912
1563.0000,11.931377
1564.0000,6.682062
1565.0000,15.831940
1566.0000,19.609398
1567.0000,20.214545
1568.0000,27.283166
1569.0000,22.247320
1570.0000,17.836110
1571.0000,22.599094
1572.0000,22.035726
1573.0000,22.668040
1574.0000,17.850068
1575.0000,16.389383
1576.0000,19.825284
1577.0000,11.081056
1578.0000,18.222225
1579.0000,26.060517
1580.0000,30.326386
1581.0000,22.986913
1582.0000,25.514421
1583.0000,29.817320
1584.0000,24.873147
1585.0000,37.764155
1586.0000,30.097290
1587.0000,32.754929
1588.0000,36.652161
1589.0000,39.102221
1590.0000,53.420718
1591.0000,56.150025
1592.0000,53.622866
1593.0000,62.970915
1594.0000,57.773332
1595.0000,72.807849
1596.0000,69.784961
1597.0000,95.413550
1598.0000,90.721278
1599.0000,104.853105
1600.0000,131.979850
1601.0000,139.979241
1602.0000,153.054076
1603.0000,176.474562
1604.0000,196.272487
1605.0000,252.628179
1606.0000,297.793858
1607.0000,355.128431
1608.0000,413.992772
1609.0000,523.021648
1610.0000,629.306191
1611.0000,754.127451
1612.0000,856.855846
1613.0000,962.445836
1614.0000,1005.925384
1615.0000,963.766060
1616.0000,877.932303
1617.0000,742.933777
1618.0000,629.633257
1619.0000,523.811056
1620.0000,426.022201
1621.0000,353.749128
1622.0000,297.101988
1623.0000,248.992614
1624.0000,213.213212
1625.0000,181.774142
1626.0000,173.539903
1627.0000,136.607462
1628.0000,112.739880
1629.0000,102.707310
1630.0000,105.632356
1631.0000,84.051628
1632.0000,73.547062
1633.0000,72.641542
1634.0000,75.202244
1635.0000,59.905560
1636.0000,61.861236
1637.0000,49.156161
1638.0000,60.765631
1639.0000,36.743601
1640.0000,41.647519
1641.0000,40.202440
1642.0000,32.875426
1643.0000,37.266138
1644.0000,28.636049
1645.0000,44.718784
1646.0000,31.363198
1647.0000,30.357222
1648.0000,22.486543
1649.0000,24.503408
1650.0000,19.633126
1651.0000,22.208407
1652.0000,35.877813
1653.0000,32.400841
1654.0000,27.165268
1655.0000,17.757519
1656.0000,22.126725
1657.0000,20.299350
1658.0000,13.372613
1659.0000,26.170678
1660.0000,21.415852
1661.0000,16.512448
1662.0000,24.602055
1663.0000,12.437495
1664.0000,13.052899
1665.0000,17.981567
1666.0000,11.991808
1667.0000,21.941027
1668.0000,20.017778
1669.0000,27.289749
1670.0000,19.062654
1671.0000,23.819953
1672.0000,21.806128
1673.0000,28.936489
1674.0000,9.795424
1675.0000,18.524922
1676.0000,29.162265
1677.0000,22.124881
1678.0000,4.734686
1679.0000,18.026131
1680.0000,9.659030
1681.0000,23.103482
1682.0000,18.870749
1683.0000,18.988466
1684.0000,10.597062
1685.0000,26.697897
1686.0000,9.125578
1687.0000,30.538047
1688.0000,20.450627
1689.0000,27.587368
1690.0000,22.137761
1691.0000,30.007361
1692.0000,39.582683
1693.0000,26.470313
1694.0000,24.728955
1695.0000,34.434307
1696.0000,36.467873
1697.0000,39.341999
1698.0000,31.466304
1699.0000,30.499988
1700.0000,42.437604
1701.0000,37.456668
1702.0000,51.694707
1703.0000,48.127562
1704.0000,53.422573
1705.0000,55.529408
1706.0000,60.935966
1707.0000,76.157738
1708.0000,67.002978
1709.0000,66.814550
1710.0000,84.360637
1711.0000,81.999594
1712.0000,95.569048
1713.0000,103.908606
1714.0000,120.223311
1715.0000,122.828066
1716.0000,149.087671
1717.0000,169.284877
1718.0000,187.877916
1719.0000,201.568738
1720.0000,241.503286
1721.0000,268.309893
1722.0000,319.241890
1723.0000,358.624113
1724.0000,407.348070
1725.0000,449.130733
1726.0000,490.182157
1727.0000,507.869451
1728.0000,521.761156
1729.0000,516.648763
1730.0000,484.743731
1731.0000,451.098657
1732.0000,406.130798
1733.0000,371.310486
1734.0000,325.372014
1735.0000,287.242715
1736.0000,245.735647
1737.0000,206.881230
1738.0000,188.293025
1739.0000,166.787204
1740.0000,148.727611
1741.0000,141.153607
1742.0000,123.123161
1743.0000,103.364960
1744.0000,93.783617
1745.0000,89.260657
1746.0000,81.986709
1747.0000,71.042300
1748.0000,60.727531
1749.0000,51.277701
1750.0000,44.948336
1751.0000,42.329183
1752.0000,52.807044
1753.0000,38.565371
1754.0000,36.255783
1755.0000,48.992704
1756.0000,40.381452
1757.0000,32.724627
1758.0000,27.603308
1759.0000,23.469797
1760.0000,21.273478
1761.0000,26.744350
1762.0000,37.912136
1763.0000,14.971506
1764.0000,30.231965
1765.0000,22.782146
1766.0000,19.640131
1767.0000,14.715727
1768.0000,8.013637
1769.0000,14.629828
1770.0000,11.745894
1771.0000,9.457654
1772.0000,28.772428
1773.0000,6.586440
1774.0000,10.583465
1775.0000,17.780584
1776.0000,6.081825
1777.0000,14.985223
1778.0000,21.596492
1779.0000,15.275847
1780.0000,15.801442
1781.0000,15.266687
1782.0000,10.317604
1783.0000,11.546913
1784.0000,8.623284
1785.0000,14.008084
1786.0000,3.120563
1787.0000,20.427867
1788.0000,13.756437
1789.0000,5.590018
1790.0000,2.179568
1791.0000,4.212937
1792.0000,-1.397808
1793.0000,9.446125
1794.0000,-0.108456
1795.0000,0.720569
1796.0000,13.083729
1797.0000,11.952603
1798.0000,7.281322
1799.0000,2.590894
1800.0000,2.543662
1801.0000,15.197113
1802.0000,-2.368962
1803.0000,3.054673
1804.0000,-4.798102
1805.0000,1.117096
1806.0000,12.268787
1807.0000,5.461853
1808.0000,9.363669
1809.0000,-0.024094
1810.0000,7.628556
1811.0000,0.614848
1812.0000,1.792636
1813.0000,3.293472
1814.0000,0.593300
1815.0000,-2.030834
1816.0000,14.159355
1817.0000,-8.139666
1818.0000,-4.878381
1819.0000,8.115342
1820.0000,4.529144
1821.0000,11.207795
1822.0000,7.330771
1823.0000,6.256752
1824.0000,8.244023
1825.0000,4.002330
1826.0000,4.693315
1827.0000,4.705825
1828.0000,9.573189
1829.0000,0.830679
1830.0000,1.793836
1831.0000,-12.646229
1832.0000,-0.461404
1833.0000,13.290094
1834.0000,3.603702
1835.0000,1.145256
1836.0000,6.212991
1837.0000,-2.567755
1838.0000,-0.535072
1839.0000,-2.486686
1840.0000,1.938203
1841.0000,-5.699348
1842.0000,2.067834
1843.0000,-2.340297
1844.0000,6.769576
1845.0000,5.355527
1846.0000,4.375454
1847.0000,7.426525
1848.0000,15.935615
1849.0000,3.992811
1850.0000,5.062803
1851.0000,8.259020
1852.0000,-4.697038
1853.0000,-2.864915
1854.0000,3.723982
1855.0000,-2.594386
1856.0000,2.245277
1857.0000,11.240651
1858.0000,-4.667515
1859.0000,4.064684
1860.0000,6.156718
1861.0000,21.897300
1862.0000,2.641951
1863.0000,6.461135
1864.0000,2.688786
1865.0000,-7.874550
1866.0000,-4.018331
1867.0000,9.460552
1868.0000,6.247746
1869.0000,2.148720
1870.0000,1.992952
1871.0000,0.970952
1872.0000,-3.195275
1873.0000,17.152134
1874.0000,9.346979
1875.0000,5.087286
1876.0000,11.024264
1877.0000,2.086514
1878.0000,12.034004
1879.0000,-3.346136
1880.0000,-5.754632
1881.0000,3.738757
1882.0000,1.647666
1883.0000,2.047322
1884.0000,1.051890
1885.0000,8.375349
1886.0000,2.235955
1887.0000,9.326853
1888.0000,12.904912
1889.0000,2.954440
1890.0000,-5.026012
1891.0000,-0.856403
1892.0000,-11.013811
1893.0000,1.082346
1894.0000,3.547506
1895.0000,-2.724821
1896.0000,2.573105
1897.0000,2.498978
1898.0000,-3.457133
1899.0000,-12.947127
1900.0000,-4.438524
1901.0000,2.011458
1902.0000,-9.129242
1903.0000,0.041236
1904.0000,4.488016
1905.0000,-6.650284
1906.0000,-7.891962
1907.0000,9.522095
1908.0000,1.939293
1909.0000,-4.323152
1910.0000,-2.721672
1911.0000,-2.159965
1912.0000,9.252605
1913.0000,1.594708
1914.0000,-4.801331
1915.0000,-11.126463
1916.0000,6.723704
1917.0000,-6.893169
1918.0000,13.006019
1919.0000,-1.187410
1920.0000,-9.011749
1921.0000,9.640367
1922.0000,-3.651384
1923.0000,-3.433375
1924.0000,1.770910
1925.0000,-9.019081
1926.0000,-7.962286
1927.0000,-1.979260
1928.0000,-1.953432
1929.0000,-0.768354
1930.0000,-1.398680
1931.0000,9.764028
1932.0000,9.808460
1933.0000,4.400580
1934.0000,5.052375
1935.0000,12.607476
1936.0000,-4.103969
1937.0000,-1.259217
1938.0000,-0.696396
1939.0000,5.158769
1940.0000,-4.768908
1941.0000,1.228138
1942.0000,3.019417
1943.0000,-2.171967
1944.0000,-1.675024
1945.0000,-0.698047
1946.0000,14.520426
1947.0000,0.501258
1948.0000,-3.116829
1949.0000,0.225758
1950.0000,3.614993
1951.0000,-5.911905
1952.0000,-1.376772
1953.0000,-0.208763
1954.0000,2.981901
1955.0000,4.845665
1956.0000,2.899125
1957.0000,8.396779
1958.0000,1.059961
1959.0000,1.894231
1960.0000,-6.249581
1961.0000,4.137408
1962.0000,6.610665
1963.0000,-3.581993
1964.0000,-4.471960
1965.0000,-4.544631
1966.0000,-4.638009
1967.0000,10.644710
1968.0000,7.660100
1969.0000,5.942629
1970.0000,5.450000
1971.0000,2.287680
1972.0000,7.740513
1973.0000,-0.567994
1974.0000,8.217232
1975.0000,14.513791
1976.0000,-5.852620
1977.0000,-8.847804
1978.0000,11.130067
1979.0000,6.722281
1980.0000,5.807785
1981.0000,9.681623
1982.0000,-2.872872
1983.0000,4.924283
1984.0000,-8.321747
1985.0000,3.604125
1986.0000,-10.411981
1987.0000,1.123941
1988.0000,-2.730649
1989.0000,-3.794773
1990.0000,-1.494691
1991.0000,7.168050
1992.0000,6.952061
1993.0000,-0.294994
1994.0000,-0.820503
1995.0000,3.299147
1996.0000,-2.804190
1997.0000,0.607720
1998.0000,-6.574292
1999.0000,6.040667
2000.0000,-3.031157
