pixel_index,raman_shift_cm-1,intensity
0,200.000,-1.351986459857585
1,201.000,6.525883022379446
2,202.000,8.836132387395423
3,203.000,-3.5988008760866705
4,204.000,-0.7338812462681403
5,205.000,-8.645458168321909
6,206.000,-1.7370800544400709
7,207.000,-7.911591283881194
8,208.000,-2.1926432030178375
9,209.000,4.803521874615797
10,210.000,3.915339668276772
11,211.000,-0.11742007003437038
12,212.000,-9.715989555620865
13,213.000,-3.0487879711372443
14,214.000,-1.2787844666368073
15,215.000,-0.7285801596190709
16,216.000,-3.7729121350770924
17,217.000,6.576319554454756
18,218.000,7.412737888853599
19,219.000,-6.105122119639418
20,220.000,-10.977270426466589
21,221.000,-1.3461479548013813
22,222.000,5.47138040440467
23,223.000,3.129905792373961
24,224.000,-0.03153061754431974
25,225.000,-0.7756886199218798
26,226.000,1.2278560227015873
27,227.000,-4.512318420229633
28,228.000,-0.13902564733399458
29,229.000,-7.678346325340726
30,230.000,5.889917910862721
31,231.000,3.364434458183837
32,232.000,-2.0106202547231646
33,233.000,2.391115232495622
34,234.000,18.132006411846135
35,235.000,14.71913580693922
36,236.000,-9.000228027057233
37,237.000,6.173311496534382
38,238.000,6.626937995854291
39,239.000,-7.46813787954278
40,240.000,-9.975460448734395
41,241.000,-1.2468859994784225
42,242.000,-4.587276788259999
43,243.000,0.672548959660503
44,244.000,7.5148120502005895
45,245.000,0.5225153204076491
46,246.000,0.41240163841189315
47,247.000,5.166585903378746
48,248.000,4.09259504546128
49,249.000,4.871944025752953
50,250.000,8.71667783624008
51,251.000,3.6441624997543727
52,252.000,14.29774906992543
53,253.000,-5.332254368866643
54,254.000,6.290467298461408
55,255.000,5.316433217648125
56,256.000,3.5851145650404987
57,257.000,4.579293547545888
58,258.000,2.348963402585184
59,259.000,-2.949042601955341
60,260.000,2.09431283222915
61,261.000,6.454194033814247
62,262.000,5.1461183617988695
63,263.000,3.3018272054579256
64,264.000,4.340806984294829
65,265.000,-3.53591385200599
66,266.000,1.2793831763732442
67,267.000,4.7483975793368245
68,268.000,-8.416698103172735
69,269.000,-4.4771713012214605
70,270.000,-1.6108174149316596
71,271.000,-1.4400438145295311
72,272.000,2.8078991596079277
73,273.000,-6.98187180309543
74,274.000,6.6076270165384585
75,275.000,-0.28217763260556694
76,276.000,2.1707360280157673
77,277.000,6.848928806557296
78,278.000,6.129440540738642
79,279.000,2.9970530977954013
80,280.000,9.264346374432535
81,281.000,4.941575296776705
82,282.000,3.8827278203290234
83,283.000,6.825128929917355
84,284.000,7.339973639648747
85,285.000,6.196969992862137
86,286.000,-0.5266579379186851
87,287.000,6.672682948966667
88,288.000,4.7460097842684945
89,289.000,-11.43780927222133
90,290.000,0.24969396828385015
91,291.000,-9.308430276481545
92,292.000,-16.255339759884237
93,293.000,1.2856047935619017
94,294.000,-1.8152983118525299
95,295.000,-6.794950743079312
96,296.000,-1.4518281383604972
97,297.000,1.9432408927243614
98,298.000,-1.7694992307895063
99,299.000,2.640599938701257
100,300.000,1.4856678773192016
101,301.000,0.7074970896602508
102,302.000,-4.7636938912548885
103,303.000,2.2521134959724805
104,304.000,-1.9972241589293844
105,305.000,0.4198177620515935
106,306.000,-5.4998150948378
107,307.000,-3.402221055162954
108,308.000,-2.018050416348615
109,309.000,-8.523071447726466
110,310.000,0.4368336094169081
111,311.000,7.743968541793606
112,312.000,6.2580191640658995
113,313.000,7.644203318799214
114,314.000,-5.881359123585071
115,315.000,0.7294147351424272
116,316.000,6.639014820971852
117,317.000,-0.5171189123931299
118,318.000,4.863953516417041
119,319.000,-12.073668883609912
120,320.000,4.571504924085048
121,321.000,-0.08794399641601558
122,322.000,-2.186838553554594
123,323.000,-5.748533628343694
124,324.000,6.889572925585071
125,325.000,-4.361472718066921
126,326.000,-3.405957358311298
127,327.000,6.783480233078649
128,328.000,4.661729311521071
129,329.000,-5.803136840421985
130,330.000,8.213028086907798
131,331.000,-3.191880569782029
132,332.000,8.515049553217182
133,333.000,2.236881846568508
134,334.000,3.8544767278414156
135,335.000,3.734488641464509
136,336.000,8.278331058678077
137,337.000,9.556390477486616
138,338.000,0.8713104226114865
139,339.000,4.577164445443145
140,340.000,0.17405212399410175
141,341.000,-4.81357393714859
142,342.000,-9.215013106871538
143,343.000,-10.93692972758106
144,344.000,2.650419884747862
145,345.000,3.727893440525122
146,346.000,-10.352754323502154
147,347.000,1.6684683557025437
148,348.000,-2.5852187325817795
149,349.000,4.43699622711847
150,350.000,1.887000076424215
151,351.000,-5.587063316943954
152,352.000,12.65177894078738
153,353.000,-5.9783802306037614
154,354.000,-2.3327608853819584
155,355.000,0.285663948098545
156,356.000,10.018157267345714
157,357.000,-3.4710669043171265
158,358.000,1.817674482200914
159,359.000,-8.698623498289066
160,360.000,8.453535254696703
161,361.000,-4.6629161327323345
162,362.000,-3.4198765088895016
163,363.000,3.4945583034425454
164,364.000,-0.6468834930358298
165,365.000,-2.8733826701890166
166,366.000,9.615116025506836
167,367.000,6.347519872915996
168,368.000,7.029096176195708
169,369.000,7.128325264749151
170,370.000,-3.10016050682259
171,371.000,3.473896241232751
172,372.000,-2.1123440862301095
173,373.000,-8.139004059299623
174,374.000,7.064020776943153
175,375.000,6.852626902378802
176,376.000,-0.8799051781988965
177,377.000,-4.986894935130067
178,378.000,1.803163186063216
179,379.000,-0.796317235369429
180,380.000,-5.993749595454801
181,381.000,10.685049734456129
182,382.000,-1.394328592358761
183,383.000,6.225220101959735
184,384.000,3.059557519804912
185,385.000,5.965619388055757
186,386.000,8.077458458030605
187,387.000,5.827866505439374
188,388.000,-14.44720066966454
189,389.000,1.8796997570693748
190,390.000,14.065273634240157
191,391.000,-10.539747165351173
192,392.000,5.022953255250513
193,393.000,1.9312158171068177
194,394.000,-0.9235255346608255
195,395.000,7.799594169080024
196,396.000,-4.98156207857312
197,397.000,0.22468673939351902
198,398.000,1.5999726638636957
199,399.000,6.532466759542672
200,400.000,-9.181777885089218
201,401.000,0.41519684217473696
202,402.000,-5.391400922778416
203,403.000,0.9172229795698286
204,404.000,-4.255126267676928
205,405.000,0.8183185421223698
206,406.000,6.042566639098027
207,407.000,7.584434276823231
208,408.000,-7.641513267734808
209,409.000,-11.955022694260265
210,410.000,3.990677320861778
211,411.000,2.720329124498903
212,412.000,4.08431308672391
213,413.000,-0.2256713992327377
214,414.000,10.308512082969173
215,415.000,-1.725183027266894
216,416.000,5.878988732477296
217,417.000,-3.367923152412004
218,418.000,-2.2619191736282573
219,419.000,7.135202200007598
220,420.000,5.746677522500818
221,421.000,1.3458833706336009
222,422.000,1.534520343919553
223,423.000,4.351727064555007
224,424.000,4.045509177371628
225,425.000,17.800072349789275
226,426.000,10.092751271769089
227,427.000,-3.2466743442355437
228,428.000,1.4045082366754968
229,429.000,2.3766787717997886
230,430.000,-3.82883995921361
231,431.000,2.7514498455874445
232,432.000,10.743074010411306
233,433.000,0.2775303816742962
234,434.000,-9.704084172045668
235,435.000,5.069301239942774
236,436.000,2.2035865303968194
237,437.000,-5.457250365907157
238,438.000,4.868956507777739
239,439.000,-4.4219708698773275
240,440.000,-0.06114649832500163
241,441.000,8.337318644811148
242,442.000,5.142922603688248
243,443.000,2.3601644441980625
244,444.000,7.434272253918607
245,445.000,2.5853671420667297
246,446.000,17.714331239450985
247,447.000,1.6806786984242308
248,448.000,-7.0373273071643325
249,449.000,-7.173116582016178
250,450.000,6.3057810905690985
251,451.000,10.027372948645962
252,452.000,17.589505251575815
253,453.000,-2.5694797200204675
254,454.000,-1.4432806643102367
255,455.000,-8.568305258296277
256,456.000,5.268389842135548
257,457.000,-0.12696899783111348
258,458.000,-2.0638833919902027
259,459.000,-7.660732933161171
260,460.000,6.862699806763203
261,461.000,-1.4270097232292756
262,462.000,3.1952529466809665
263,463.000,3.403959307098603
264,464.000,5.130576869365427
265,465.000,8.338012165513078
266,466.000,0.3964587482158777
267,467.000,4.499110190743295
268,468.000,-0.16299591308825256
269,469.000,3.5256600510384715
270,470.000,4.318863717892782
271,471.000,1.4130827426495216
272,472.000,5.630216800841026
273,473.000,-9.921796411690025
274,474.000,6.262450821162133
275,475.000,11.566853235717872
276,476.000,5.904373588466342
277,477.000,5.3381316560165715
278,478.000,2.6300532350510366
279,479.000,9.435856142277203
280,480.000,2.5269902143808167
281,481.000,5.009843307978485
282,482.000,2.01541729956989
283,483.000,1.3798020854901552
284,484.000,-4.148505418137006
285,485.000,-4.471416275447268
286,486.000,-4.070766530882906
287,487.000,3.1667027907597003
288,488.000,-3.867818315717386
289,489.000,-0.4053068359610279
290,490.000,-7.163179736114898
291,491.000,-10.633908962866371
292,492.000,2.2299695565061484
293,493.000,-1.6088520859152595
294,494.000,-6.168165778734419
295,495.000,2.873394608710896
296,496.000,4.154075226301984
297,497.000,3.674254243091241
298,498.000,-0.37423115274498286
299,499.000,5.651220246046137
300,500.000,-1.8057703342537934
301,501.000,-0.8075226483813367
302,502.000,-3.0422484321392176
303,503.000,12.271748597556325
304,504.000,7.290446742628546
305,505.000,-0.33685567620807433
306,506.000,-12.57343831949413
307,507.000,11.39684317092565
308,508.000,-1.4033668281432483
309,509.000,1.2349220787059494
310,510.000,10.728593305434742
311,511.000,14.97386628451136
312,512.000,2.7922164668636924
313,513.000,2.0039363218314747
314,514.000,2.781809337119398
315,515.000,1.4155640187489098
316,516.000,-5.8920791089885824
317,517.000,2.5592154964205065
318,518.000,2.8830433956641173
319,519.000,5.787677167558286
320,520.000,6.525929408998081
321,521.000,0.8556737349115338
322,522.000,13.864377778211633
323,523.000,0.21936718974825453
324,524.000,-2.9891953617378704
325,525.000,5.504206810336086
326,526.000,2.2630964103478846
327,527.000,7.76239116042359
328,528.000,3.696477800388948
329,529.000,2.364920087722794
330,530.000,-5.204137202491211
331,531.000,-4.046280277611004
332,532.000,4.272740672515738
333,533.000,6.0997744755039776
334,534.000,-5.999562023615681
335,535.000,9.307322037555764
336,536.000,-2.0608054612629303
337,537.000,-3.9610756230790685
338,538.000,-6.384925533674618
339,539.000,2.9533897383463454
340,540.000,-5.153630858488896
341,541.000,2.12097664142982
342,542.000,-4.496433779251561
343,543.000,10.036827879101452
344,544.000,-6.129540366935657
345,545.000,6.170929516106071
346,546.000,-0.5464584214587376
347,547.000,-6.78610211251646
348,548.000,-7.323873473202525
349,549.000,12.323077597051338
350,550.000,-3.86952378453077
351,551.000,-2.5212084841156184
352,552.000,-4.189129351308907
353,553.000,-4.060948219202032
354,554.000,6.919380095579186
355,555.000,-10.502758207171269
356,556.000,3.921279088711003
357,557.000,7.8876082157154315
358,558.000,2.305478422607166
359,559.000,1.8197729743811806
360,560.000,3.2124861522136143
361,561.000,9.192105253414752
362,562.000,6.966462591382083
363,563.000,4.446054495551607
364,564.000,7.258221311351917
365,565.000,-14.58261159984454
366,566.000,10.121762139231805
367,567.000,-6.242190078300041
368,568.000,12.442152156480688
369,569.000,6.378978268249739
370,570.000,-8.680019302610503
371,571.000,3.8515188999423344
372,572.000,-1.610516652437468
373,573.000,1.6474375274689237
374,574.000,5.160401942398153
375,575.000,4.072430110556411
376,576.000,3.247631565572192
377,577.000,-11.64325914355129
378,578.000,0.07292454751666355
379,579.000,0.5572012183873767
380,580.000,5.372767463903756
381,581.000,11.646101894094386
382,582.000,-6.963006865874718
383,583.000,17.165999824252594
384,584.000,11.226634619775155
385,585.000,3.8115681909871455
386,586.000,3.4368972231307
387,587.000,8.073127416347688
388,588.000,3.979230485633707
389,589.000,3.072225160789003
390,590.000,5.4015351863721435
391,591.000,2.940590321652394
392,592.000,8.111488340561891
393,593.000,2.832729031648114
394,594.000,3.3127881980271923
395,595.000,1.8495586573355922
396,596.000,10.598012241683136
397,597.000,2.082138797605353
398,598.000,6.86048218601627
399,599.000,0.41231128216065827
400,600.000,9.704715975566842
401,601.000,5.793194169998856
402,602.000,-2.2891832165905726
403,603.000,11.374721747892181
404,604.000,24.36910000963462
405,605.000,8.200738528870033
406,606.000,29.09119327983069
407,607.000,9.184249250699736
408,608.000,11.684982443564763
409,609.000,32.22299887436873
410,610.000,21.5994385728643
411,611.000,35.14813758256514
412,612.000,33.74291696069861
413,613.000,55.33975177815944
414,614.000,53.87167611946029
415,615.000,72.3477490826865
416,616.000,92.66655077944654
417,617.000,123.50711133482594
418,618.000,141.58308388733985
419,619.000,176.6091525888852
420,620.000,182.61073660469185
421,621.000,165.1923761132781
422,622.000,137.88029630640108
423,623.000,114.90847038900995
424,624.000,102.44588357919793
425,625.000,77.54939210815576
426,626.000,68.94660822012372
427,627.000,57.844452172343836
428,628.000,43.33411323501309
429,629.000,36.47355069123569
430,630.000,31.227979836975464
431,631.000,23.812836981008786
432,632.000,25.497161444876383
433,633.000,9.480867562836465
434,634.000,20.751460681818116
435,635.000,0.7276391613713713
436,636.000,14.701336373622325
437,637.000,14.129300703224317
438,638.000,10.597249547310867
439,639.000,3.197704315448391
440,640.000,6.972958429587834
441,641.000,10.299105324018228
442,642.000,10.68723744531917
443,643.000,-9.139162747687124
444,644.000,2.6897602160163387
445,645.000,7.703056819595986
446,646.000,2.328116558317106
447,647.000,12.310393939498226
448,648.000,6.467426482465044
449,649.000,10.665163718499116
450,650.000,9.778049190794036
451,651.000,8.384936454406215
452,652.000,-1.739893923792124
453,653.000,16.960333634839344
454,654.000,4.2230807206617555
455,655.000,-11.223893064290223
456,656.000,2.9371068936441134
457,657.000,16.90435121970313
458,658.000,2.5349665506576002
459,659.000,7.5894385347603475
460,660.000,5.734569831701265
461,661.000,1.1416521125581767
462,662.000,4.543447059751088
463,663.000,2.0716433669924754
464,664.000,3.289678739242163
465,665.000,-5.939972107342101
466,666.000,-0.7879104454502794
467,667.000,3.013249463330112
468,668.000,-0.7431336315298722
469,669.000,0.19041403044775507
470,670.000,-9.075260779296286
471,671.000,-3.034642278407773
472,672.000,-3.5470686736655352
473,673.000,-5.3512571610292525
474,674.000,0.1659150743128066
475,675.000,-6.32761014210314
476,676.000,7.295232025936002
477,677.000,-9.233876574727674
478,678.000,-5.9245870866695896
479,679.000,-6.057150641931457
480,680.000,-8.063321362067654
481,681.000,2.452396641807127
482,682.000,3.9228002689699224
483,683.000,-2.7037635709575625
484,684.000,-12.25114795805598
485,685.000,11.779368037842914
486,686.000,-3.8956636428899856
487,687.000,6.174480950271118
488,688.000,-11.1348612220404
489,689.000,-6.653501189132385
490,690.000,-3.926837970299175
491,691.000,8.695541425129022
492,692.000,4.1204409977410705
493,693.000,7.322741757993526
494,694.000,-8.16006127383207
495,695.000,6.584711932318896
496,696.000,-7.766914583769903
497,697.000,3.6187082273647775
498,698.000,3.7172694248195057
499,699.000,6.479261077275851
500,700.000,-11.223294737047354
501,701.000,1.2171560695603603
502,702.000,5.023585594251472
503,703.000,4.702828943574559
504,704.000,2.2691072334255296
505,705.000,3.348652589001631
506,706.000,6.530116144752583
507,707.000,6.549807044334557
508,708.000,-3.7948045594387168
509,709.000,-8.165837504642923
510,710.000,6.305441379710373
511,711.000,5.331910273624999
512,712.000,6.356784366073043
513,713.000,2.5283798549478433
514,714.000,1.0064269470158251
515,715.000,3.6794478578704
516,716.000,3.8565198118817534
517,717.000,10.228466042153286
518,718.000,6.538725790470835
519,719.000,-0.4716076927436461
520,720.000,-11.14252414847897
521,721.000,5.169600690817106
522,722.000,-5.672976898809111
523,723.000,3.3008963671352376
524,724.000,-4.419409218458895
525,725.000,-5.53466335434814
526,726.000,-7.547884730985743
527,727.000,0.10294296943220616
528,728.000,3.866509072917779
529,729.000,-10.719891086354664
530,730.000,-2.924079166096135
531,731.000,-10.131982815951233
532,732.000,14.108028322453947
533,733.000,2.0620006154658768
534,734.000,8.74363643735569
535,735.000,-3.003622829729238
536,736.000,12.118084204188335
537,737.000,-8.425305063132555
538,738.000,-6.902933226198002
539,739.000,-12.873087871827238
540,740.000,-4.691719579200026
541,741.000,-1.1337739199036605
542,742.000,0.5902845420191625
543,743.000,-4.997756749976816
544,744.000,-2.3289193449872982
545,745.000,-6.308272784705423
546,746.000,4.173480396530977
547,747.000,-1.2230423283097025
548,748.000,8.777727521002362
549,749.000,-5.3007885680913205
550,750.000,-3.1260781009841594
551,751.000,-0.9052085759515194
552,752.000,-5.135914484198793
553,753.000,-3.107233309908679
554,754.000,2.241015469711556
555,755.000,12.029663384382275
556,756.000,2.1820579707043635
557,757.000,4.014407772111099
558,758.000,4.622809338821753
559,759.000,4.014356227793314
560,760.000,7.6539580026737895
561,761.000,3.3092232337537553
562,762.000,11.429025497919156
563,763.000,0.0036203786050919007
564,764.000,4.595958465746207
565,765.000,13.062660355731168
566,766.000,5.768089651354558
567,767.000,3.651706961768241
568,768.000,3.387135902436512
569,769.000,13.39628209508578
570,770.000,-3.7531458323410334
571,771.000,0.8583407542676014
572,772.000,12.308307495143936
573,773.000,8.131834036594455
574,774.000,7.957153030951304
575,775.000,-4.078248863474755
576,776.000,-4.02359998244151
577,777.000,-0.5317296558230282
578,778.000,8.416221792343094
579,779.000,10.682361043808442
580,780.000,13.760769786064884
581,781.000,10.50098271229922
582,782.000,16.978670521345293
583,783.000,9.401074917633878
584,784.000,27.35751061114979
585,785.000,28.89628931738048
586,786.000,34.08823275727059
587,787.000,41.15432665717367
588,788.000,41.310896748806044
589,789.000,48.12906476919693
590,790.000,61.51647446064317
591,791.000,58.041761570661265
592,792.000,76.50506485193864
593,793.000,75.54725806228885
594,794.000,99.31700096460122
595,795.000,97.22134532679456
596,796.000,93.17975392177118
597,797.000,88.88038652736645
598,798.000,69.85659492630361
599,799.000,62.30541690614632
600,800.000,64.55221325924936
601,801.000,41.30636578271333
602,802.000,46.31492727833597
603,803.000,27.79733255256383
604,804.000,26.95752041644846
605,805.000,29.594030685594134
606,806.000,36.36208818011346
607,807.000,31.973782724579678
608,808.000,26.48253014797774
609,809.000,16.466506283658873
610,810.000,22.896249969291148
611,811.000,8.068843046813527
612,812.000,18.23119636238721
613,813.000,4.883460766349344
614,814.000,6.808797113165156
615,815.000,5.332422261379634
616,816.000,9.587251073570997
617,817.000,9.813157416303966
618,818.000,13.4075141600797
619,819.000,16.428453179291637
620,820.000,1.9724333521753579
621,821.000,-0.2906924392370911
622,822.000,7.020134690833856
623,823.000,-2.3144733681310754
624,824.000,-4.0394647229970815
625,825.000,7.3370435229751365
626,826.000,9.820927270084667
627,827.000,-1.2361945778586687
628,828.000,-1.1060761135822759
629,829.000,0.42168057360322564
630,830.000,8.767514397755576
631,831.000,-12.564682723745591
632,832.000,-1.4975868702479147
633,833.000,0.15986588212763309
634,834.000,-5.734281539560925
635,835.000,17.561686794875868
636,836.000,-5.785030181288903
637,837.000,-10.485657531745574
638,838.000,14.339414682804318
639,839.000,-3.9209845953987497
640,840.000,6.274898578779585
641,841.000,-8.275267846680663
642,842.000,11.051386079001759
643,843.000,2.0788793093581717
644,844.000,8.808643800624623
645,845.000,0.12351851169410111
646,846.000,8.811568404069021
647,847.000,10.986621441812986
648,848.000,5.190158591505224
649,849.000,-7.5999861778091145
650,850.000,-4.922022894664224
651,851.000,5.597726414775934
652,852.000,5.833916726674488
653,853.000,0.8660860194695488
654,854.000,-9.63051072616986
655,855.000,1.2913564726072764
656,856.000,3.940884600786603
657,857.000,11.495544645441441
658,858.000,0.4574555956842232
659,859.000,-1.2037415573788621
660,860.000,3.1009471793022385
661,861.000,-4.775222199324389
662,862.000,-4.129649696461001
663,863.000,6.733734686493335
664,864.000,2.8954299498943783
665,865.000,-1.6509819041948504
666,866.000,5.1047211279501425
667,867.000,2.881405051665297
668,868.000,-12.468499126147208
669,869.000,5.370480602932275
670,870.000,5.825208248793615
671,871.000,-1.0577701772494947
672,872.000,8.813313337490627
673,873.000,-7.681215192967784
674,874.000,11.617517246671014
675,875.000,4.82654167293822
676,876.000,2.2144961035503457
677,877.000,-3.8102584426389967
678,878.000,-7.748892945684247
679,879.000,2.766324615403164
680,880.000,-7.498318737392765
681,881.000,4.119890018861042
682,882.000,-1.8711690920022193
683,883.000,1.5005759547057096
684,884.000,-0.285694815522902
685,885.000,0.2615396235642038
686,886.000,-2.239574701070069
687,887.000,-2.3513757617990905
688,888.000,5.168600469620287
689,889.000,-14.745527978000155
690,890.000,2.091273924672123
691,891.000,-2.11690479255617
692,892.000,0.09900090054907196
693,893.000,-3.613744965400656
694,894.000,5.620003640538471
695,895.000,-5.7897932504058645
696,896.000,-1.1214366067688388
697,897.000,2.0883906031019706
698,898.000,-4.715235588997302
699,899.000,7.442757848821657
700,900.000,0.7237579484956314
701,901.000,-5.6436922580405735
702,902.000,4.702507261101346
703,903.000,4.21483653771179
704,904.000,6.646225603439689
705,905.000,-3.067199510256387
706,906.000,-2.3187717721573335
707,907.000,-6.720707151327815
708,908.000,7.115010382833816
709,909.000,0.19130286054883072
710,910.000,-5.1059006883892835
711,911.000,5.136366765337925
712,912.000,1.1356172505261384
713,913.000,4.35427479540067
714,914.000,1.3923624275696511
715,915.000,-6.707676826024681
716,916.000,-0.9280079391510299
717,917.000,4.545296113659788
718,918.000,-13.304997642929038
719,919.000,1.005090814890309
720,920.000,1.6982955100238541
721,921.000,-6.8695915355729085
722,922.000,-3.3403653009413574
723,923.000,-6.476488766168131
724,924.000,-1.102863912431303
725,925.000,4.5250872779511155
726,926.000,-3.155678178525932
727,927.000,-6.5778782666022835
728,928.000,13.117824027700635
729,929.000,-4.408982282968509
730,930.000,2.6083248126626586
731,931.000,12.10287532444113
732,932.000,-7.869977739256456
733,933.000,3.8890076284258157
734,934.000,1.7343784327781577
735,935.000,-5.248202322524321
736,936.000,-5.851261635467154
737,937.000,-5.811849505745386
738,938.000,-2.120207934811333
739,939.000,4.063885074080417
740,940.000,0.19189051582156935
741,941.000,-6.3963826165932005
742,942.000,-1.6841873321163803
743,943.000,17.477688358305613
744,944.000,1.9904444416849856
745,945.000,10.534377902946062
746,946.000,0.6427957248756684
747,947.000,-6.962797111921191
748,948.000,-2.5951306290728553
749,949.000,11.68969814951538
750,950.000,5.7340031976114005
751,951.000,0.9202334866101864
752,952.000,5.468056985485646
753,953.000,4.571160660742862
754,954.000,6.054359476371474
755,955.000,11.645597393798198
756,956.000,10.001040371837917
757,957.000,3.322432366647945
758,958.000,11.533967331680742
759,959.000,0.40211221763388494
760,960.000,4.059811972405896
761,961.000,1.77025454104637
762,962.000,0.014792865709750913
763,963.000,16.755092885608292
764,964.000,0.7017365369617892
765,965.000,9.652503752954544
766,966.000,18.378846463684567
767,967.000,0.8500855961165144
768,968.000,8.910004074034987
769,969.000,13.146010817998558
770,970.000,15.097108745288097
771,971.000,15.991574769863973
772,972.000,23.35387180231578
773,973.000,8.00906674981502
774,974.000,18.195610516068882
775,975.000,14.99818000127243
776,976.000,18.820328102060785
777,977.000,18.842997711460384
778,978.000,14.799120718844733
779,979.000,18.92966800988438
780,980.000,14.231332466500135
781,981.000,17.70986696681507
782,982.000,32.99072238510894
783,983.000,35.47764959176925
784,984.000,40.44090245324219
785,985.000,35.22175783198941
786,986.000,42.12123258643646
787,987.000,51.14115557092805
788,988.000,64.08174163567924
789,989.000,57.50673662672739
790,990.000,74.65948438588748
791,991.000,94.03632575070151
792,992.000,104.8064275543918
793,993.000,118.67054462581586
794,994.000,165.32871878941523
795,995.000,205.23626586517184
796,996.000,267.7304166685567
797,997.000,364.3442300104857
798,998.000,502.71708669727036
799,999.000,695.3162935305716
800,1000.000,891.9377213073499
801,1001.000,1001.1449218198213
802,1002.000,898.3482188554065
803,1003.000,691.611796196687
804,1004.000,504.47806862135394
805,1005.000,366.6475669021629
806,1006.000,282.6105928068864
807,1007.000,205.74700909826515
808,1008.000,157.4672595339623
809,1009.000,132.49382986651472
810,1010.000,106.65661884328551
811,1011.000,98.65124520641803
812,1012.000,74.48384769278596
813,1013.000,65.11790403394866
814,1014.000,57.167718956101226
815,1015.000,77.50903318002884
816,1016.000,67.78664442105855
817,1017.000,61.760093389010535
818,1018.000,55.993353788154536
819,1019.000,60.432224317158216
820,1020.000,57.85431266904061
821,1021.000,62.309705531127065
822,1022.000,71.03848458499874
823,1023.000,88.47477350644817
824,1024.000,104.4263809654276
825,1025.000,114.33325262600715
826,1026.000,150.0852011463221
827,1027.000,188.47641417852833
828,1028.000,246.02881536875407
829,1029.000,327.5799783570526
830,1030.000,396.46816777735535
831,1031.000,428.0548122574228
832,1032.000,392.6529854187984
833,1033.000,324.76351487676084
834,1034.000,246.4790742402772
835,1035.000,191.3001041119535
836,1036.000,143.67789708798978
837,1037.000,116.3512767581301
838,1038.000,93.0445377056185
839,1039.000,68.17730450714703
840,1040.000,50.32723473281294
841,1041.000,51.560826946066754
842,1042.000,46.455384703669324
843,1043.000,31.57394055564032
844,1044.000,40.52733804521381
845,1045.000,24.83298570878901
846,1046.000,23.776607075883703
847,1047.000,16.891751669085124
848,1048.000,21.451538004006125
849,1049.000,25.104272589234142
850,1050.000,20.110442926284577
851,1051.000,14.028377509554957
852,1052.000,14.616904826275231
853,1053.000,11.098399356462323
854,1054.000,20.366157572871316
855,1055.000,12.057090940948683
856,1056.000,-0.8802390812156773
857,1057.000,25.44486995706393
858,1058.000,8.293488499023397
859,1059.000,9.495578980398477
860,1060.000,5.516527829379811
861,1061.000,5.8034104665641735
862,1062.000,10.362999304905998
863,1063.000,-1.2302462503259903
864,1064.000,8.516766198398727
865,1065.000,10.102564040827247
866,1066.000,7.743843658877722
867,1067.000,3.8085634265873978
868,1068.000,7.3144977100701
869,1069.000,14.82388686746549
870,1070.000,15.482579248891398
871,1071.000,15.635020196400092
872,1072.000,6.187494043925653
873,1073.000,7.369230117241159
874,1074.000,19.635968733907475
875,1075.000,8.430316203227676
876,1076.000,3.8194468262017836
877,1077.000,3.8464328954739813
878,1078.000,1.4623056952893876
879,1079.000,-6.190346498553936
880,1080.000,-5.328994418754974
881,1081.000,3.7005971934465833
882,1082.000,12.279498588219212
883,1083.000,4.9597490070948425
884,1084.000,-10.17054231707948
885,1085.000,-0.14161916019111231
886,1086.000,7.131077693095676
887,1087.000,-2.36980055071308
888,1088.000,3.0416663060138944
889,1089.000,1.9910114519864237
890,1090.000,1.4377360669438985
891,1091.000,-3.097321678390699
892,1092.000,-1.081347622360454
893,1093.000,8.493969387580819
894,1094.000,5.62685249481865
895,1095.000,2.596706833532153
896,1096.000,3.5027415286454016
897,1097.000,9.121636695781035
898,1098.000,12.612341441212038
899,1099.000,2.784086861813421
900,1100.000,9.005011045018136
901,1101.000,0.39716106876539925
902,1102.000,10.202792001455919
903,1103.000,3.5226539019035954
904,1104.000,1.3755978192882594
905,1105.000,-3.7333902068921816
906,1106.000,11.65115085313164
907,1107.000,4.4017540193519835
908,1108.000,7.215683301937133
909,1109.000,5.034383701184652
910,1110.000,-4.13561379252792
911,1111.000,-2.14212719878833
912,1112.000,-0.9414245471984941
913,1113.000,7.59854812257754
914,1114.000,4.392783760768452
915,1115.000,-2.751356692554282
916,1116.000,3.141984692477763
917,1117.000,14.277544835481422
918,1118.000,13.07026864577574
919,1119.000,0.14164402233268447
920,1120.000,4.057556853731057
921,1121.000,13.1667700181099
922,1122.000,11.66583138311853
923,1123.000,11.079913805870774
924,1124.000,2.260232132897727
925,1125.000,2.1533932000986624
926,1126.000,6.372741832696192
927,1127.000,15.950094845186186
928,1128.000,5.198027041291198
929,1129.000,10.44297021391435
930,1130.000,2.883425145089177
931,1131.000,0.3355846059353098
932,1132.000,11.33130435660928
933,1133.000,13.903580146255536
934,1134.000,12.157870712963131
935,1135.000,11.310031783713839
936,1136.000,-5.103983925662305
937,1137.000,8.36655428946392
938,1138.000,31.299320122475137
939,1139.000,5.829280255458343
940,1140.000,17.214264359156687
941,1141.000,29.731876092925177
942,1142.000,34.27588310468036
943,1143.000,28.729144030854286
944,1144.000,28.743326496346754
945,1145.000,30.200682114475967
946,1146.000,30.255884486935656
947,1147.000,43.418101203742935
948,1148.000,36.595739843192405
949,1149.000,64.53220397181099
950,1150.000,61.240152144305966
951,1151.000,82.46792790352265
952,1152.000,103.58422078039189
953,1153.000,134.21037529388605
954,1154.000,144.8446459509712
955,1155.000,149.47839624655876
956,1156.000,134.25283466345695
957,1157.000,124.45594067232628
958,1158.000,123.52826673162963
959,1159.000,91.55697828758616
960,1160.000,82.24118477412298
961,1161.000,50.92336261282867
962,1162.000,51.154139212904056
963,1163.000,41.236029971116295
964,1164.000,53.78156627175258
965,1165.000,36.09336548656938
966,1166.000,38.88669897474756
967,1167.000,23.059674082842776
968,1168.000,23.666688144741556
969,1169.000,35.0979034816105
970,1170.000,21.005158401849258
971,1171.000,23.534326201045133
972,1172.000,30.914267161924045
973,1173.000,22.43200055430225
974,1174.000,28.979229635040838
975,1175.000,29.558578647997365
976,1176.000,46.43894782397865
977,1177.000,48.62407638069203
978,1178.000,60.93648152269975
979,1179.000,67.15114844137065
980,1180.000,91.52667431483337
981,1181.000,116.57958030792702
982,1182.000,107.18846857215567
983,1183.000,125.6545482456404
984,1184.000,121.10364445307209
985,1185.000,98.97705030566226
986,1186.000,94.23473990109733
987,1187.000,65.28177432349207
988,1188.000,50.40303864333873
989,1189.000,59.11369091746337
990,1190.000,41.780048188976025
991,1191.000,39.266826487224535
992,1192.000,24.947011827744518
993,1193.000,23.21845221221588
994,1194.000,10.546564628413535
995,1195.000,28.232820050157898
996,1196.000,3.2449644372711646
997,1197.000,3.9983967355274217
998,1198.000,12.232042876604282
999,1199.000,12.213929778039756
1000,1200.000,18.63749234317993
1001,1201.000,-7.03348253886702
1002,1202.000,9.725355006725522
1003,1203.000,4.11833884044745
1004,1204.000,-4.654519191587724
1005,1205.000,-12.306232257694319
1006,1206.000,9.805466459336685
1007,1207.000,7.292846762196177
1008,1208.000,-2.6493685609993918
1009,1209.000,2.8352842632541524
1010,1210.000,8.562860993793038
1011,1211.000,-0.5093426252572044
1012,1212.000,7.581413135471394
1013,1213.000,2.38907599053573
1014,1214.000,3.263915639642846
1015,1215.000,-0.6348822324046068
1016,1216.000,-0.7721029557524162
1017,1217.000,0.8409121244576454
1018,1218.000,5.5568226480384055
1019,1219.000,7.7818042397120735
1020,1220.000,12.1115285090616
1021,1221.000,3.1298800504830524
1022,1222.000,8.76925744313985
1023,1223.000,3.899510250911817
1024,1224.000,11.856253022352575
1025,1225.000,-1.9142857093618204
1026,1226.000,1.5027235735194608
1027,1227.000,4.1175433732798865
1028,1228.000,-4.318660823320442
1029,1229.000,-6.626799545083941
1030,1230.000,1.4350916635719386
1031,1231.000,0.896040242568688
1032,1232.000,0.3292776161204074
1033,1233.000,-9.06171180731667
1034,1234.000,-2.6611286350878345
1035,1235.000,1.7922065096097413
1036,1236.000,-4.8521280123193264
1037,1237.000,0.23064514408588366
1038,1238.000,-7.832183692211856
1039,1239.000,12.462855791714446
1040,1240.000,6.599023892702007
1041,1241.000,3.2710108914513967
1042,1242.000,4.431103052482058
1043,1243.000,5.67514862408143
1044,1244.000,8.671632838259484
1045,1245.000,3.8606919107012345
1046,1246.000,1.4547600407177015
1047,1247.000,-5.276952588798167
1048,1248.000,3.9271061885756353
1049,1249.000,7.441200522748659
1050,1250.000,3.467255547066543
1051,1251.000,1.9558223782639743
1052,1252.000,-4.961372883579315
1053,1253.000,-0.7758261550907264
1054,1254.000,1.009251630350036
1055,1255.000,-5.181716477436794
1056,1256.000,5.0690475545218305
1057,1257.000,2.0151277423051397
1058,1258.000,2.343583085049204
1059,1259.000,-7.264833435101082
1060,1260.000,-13.302696853035059
1061,1261.000,1.2702967792697564
1062,1262.000,0.3955713927073248
1063,1263.000,1.1402609009899152
1064,1264.000,2.7271432006018586
1065,1265.000,-5.634762829244664
1066,1266.000,5.083044673338236
1067,1267.000,7.561935552871546
1068,1268.000,-1.3090143635424738
1069,1269.000,-12.65249926626575
1070,1270.000,9.18130663682905
1071,1271.000,4.078198120308116
1072,1272.000,7.460890941133357
1073,1273.000,-7.1945821613890075
1074,1274.000,2.5078255343453293
1075,1275.000,-8.368629267806455
1076,1276.000,-6.26469788178656
1077,1277.000,2.307176360621952
1078,1278.000,-2.1455908902582905
1079,1279.000,0.009278997957608226
1080,1280.000,-2.000816360329054
1081,1281.000,12.282464631243101
1082,1282.000,12.24761555096029
1083,1283.000,-1.846343041023374
1084,1284.000,9.360516397269976
1085,1285.000,0.77267138959769
1086,1286.000,11.568365441441301
1087,1287.000,6.254995039968662
1088,1288.000,-3.948575346021471
1089,1289.000,6.270310733855922
1090,1290.000,-4.0822482884716464
1091,1291.000,-13.791899999589077
1092,1292.000,4.735487995365247
1093,1293.000,1.3859550726494945
1094,1294.000,-0.8215684101301122
1095,1295.000,3.380003885936503
1096,1296.000,0.29551328101138097
1097,1297.000,-6.5570019235337895
1098,1298.000,11.934950554829584
1099,1299.000,5.856808979743391
1100,1300.000,-7.515508404084585
1101,1301.000,2.4973386290660073
1102,1302.000,2.576650285890082
1103,1303.000,7.679664754002715
1104,1304.000,-7.456607798107598
1105,1305.000,9.260331778878708
1106,1306.000,3.2991086150564115
1107,1307.000,3.8320448212557494
1108,1308.000,6.706669488991565
1109,1309.000,-4.790687309586701
1110,1310.000,0.7308244782657312
1111,1311.000,3.404395885829672
1112,1312.000,1.7409869268874445
1113,1313.000,-0.727143404335493
1114,1314.000,-7.7900011332123995
1115,1315.000,0.10503469523769127
1116,1316.000,0.9165470162977272
1117,1317.000,-9.399719254486172
1118,1318.000,-6.035239221363781
1119,1319.000,-5.4742310084179735
1120,1320.000,-0.1703257596163894
1121,1321.000,11.145780361138577
1122,1322.000,-9.26948983003058
1123,1323.000,-5.183617537032887
1124,1324.000,6.430466016151286
1125,1325.000,2.851423585419525
1126,1326.000,-4.39074409350269
1127,1327.000,3.1952156948980246
1128,1328.000,-3.7244103541331697
1129,1329.000,-3.8378045656615996
1130,1330.000,-4.9998862851102785
1131,1331.000,-3.929873878310218
1132,1332.000,3.870444268453184
1133,1333.000,4.4263877483936085
1134,1334.000,-1.0408268658234192
1135,1335.000,1.504872977870491
1136,1336.000,-10.440183189100026
1137,1337.000,2.191071143997533
1138,1338.000,-2.361467532841516
1139,1339.000,-5.997557750409669
1140,1340.000,4.680515939668794
1141,1341.000,4.566054964886689
1142,1342.000,-6.534027268190812
1143,1343.000,3.2791716260248904
1144,1344.000,10.522782012098787
1145,1345.000,1.7495002335263052
1146,1346.000,5.690527612682217
1147,1347.000,3.103953450778363
1148,1348.000,-1.79800397218969
1149,1349.000,3.4679416025135197
1150,1350.000,3.3588964123177902
1151,1351.000,9.528642673293689
1152,1352.000,0.9364555801100778
1153,1353.000,-0.7482946940124293
1154,1354.000,1.594478002643882
1155,1355.000,-2.4123271997441407
1156,1356.000,2.432121807403746
1157,1357.000,0.6521311110295755
1158,1358.000,-3.150222223611081
1159,1359.000,11.902878846996146
1160,1360.000,6.699815344589979
1161,1361.000,6.771958269075185
1162,1362.000,-8.15646140152262
1163,1363.000,1.9944472889017106
1164,1364.000,-3.851776725523905
1165,1365.000,6.5275304673111805
1166,1366.000,-2.011890242551317
1167,1367.000,-2.919692987184817
1168,1368.000,5.908457079177879
1169,1369.000,-4.533210219911098
1170,1370.000,3.00158491684806
1171,1371.000,-14.279252731553242
1172,1372.000,3.2971455915258048
1173,1373.000,-4.926951379671891
1174,1374.000,2.673871066643187
1175,1375.000,-9.459274380226134
1176,1376.000,3.06419994647581
1177,1377.000,0.8973986909159066
1178,1378.000,3.5734054746267248
1179,1379.000,-4.05452510354894
1180,1380.000,7.753599532505405
1181,1381.000,9.589285936124725
1182,1382.000,2.889113637814944
1183,1383.000,8.736963145213622
1184,1384.000,-9.160978056971771
1185,1385.000,-5.956456506995437
1186,1386.000,-2.151179766131918
1187,1387.000,3.0188835812803063
1188,1388.000,-1.0351900722055234
1189,1389.000,10.042759642797591
1190,1390.000,2.6602420724789226
1191,1391.000,9.237087539768027
1192,1392.000,1.8378013442948031
1193,1393.000,-4.898467237657769
1194,1394.000,-0.6427179532088303
1195,1395.000,-0.0012695729137703893
1196,1396.000,2.623111109175852
1197,1397.000,1.059089275471024
1198,1398.000,7.240664084799391
1199,1399.000,1.8918456723488362
1200,1400.000,-2.2920498503672206
1201,1401.000,11.850082604431918
1202,1402.000,-2.0291838992475277
1203,1403.000,0.8782856787793207
1204,1404.000,2.285685354821908
1205,1405.000,0.6046561212754114
1206,1406.000,1.1235869465679116
1207,1407.000,3.8720267751129995
1208,1408.000,-6.376845472733521
1209,1409.000,9.148069099273926
1210,1410.000,-4.26046563677437
1211,1411.000,17.78593616700914
1212,1412.000,6.768558334260433
1213,1413.000,-0.269564335678524
1214,1414.000,-5.042987067816739
1215,1415.000,-1.3742051115518734
1216,1416.000,8.642174259275862
1217,1417.000,-3.8221632536613015
1218,1418.000,4.8109600267760015
1219,1419.000,2.392668753142516
1220,1420.000,12.643608553362128
1221,1421.000,4.582595030682796
1222,1422.000,19.865115763625226
1223,1423.000,6.472513305942357
1224,1424.000,19.291702186561224
1225,1425.000,16.14439990954611
1226,1426.000,9.129399954043492
1227,1427.000,2.3823107742380216
1228,1428.000,25.903904799307156
1229,1429.000,23.172705433368492
1230,1430.000,14.942002055434386
1231,1431.000,29.437091019369063
1232,1432.000,19.95845265383241
1233,1433.000,11.75846826223983
1234,1434.000,24.842959122711818
1235,1435.000,30.18647348802574
1236,1436.000,51.676998585573756
1237,1437.000,49.14804961730397
1238,1438.000,46.0544877596883
1239,1439.000,56.339613163660715
1240,1440.000,72.13494095457668
1241,1441.000,74.25057623217049
1242,1442.000,99.39608907049364
1243,1443.000,94.8681375178844
1244,1444.000,125.7570925969062
1245,1445.000,134.8123563043082
1246,1446.000,172.08662461097674
1247,1447.000,178.2680734618832
1248,1448.000,204.24561477604357
1249,1449.000,211.43282944646603
1250,1450.000,213.30367934010542
1251,1451.000,216.54331029781565
1252,1452.000,189.89836213429908
1253,1453.000,192.78449263806692
1254,1454.000,166.50614857138225
1255,1455.000,142.1007836702197
1256,1456.000,125.09154664421521
1257,1457.000,110.56935017661613
1258,1458.000,83.7328779242414
1259,1459.000,76.80469151742386
1260,1460.000,66.37680755997008
1261,1461.000,57.40434462911276
1262,1462.000,36.98745727545793
1263,1463.000,41.23031802294349
1264,1464.000,50.63176336878814
1265,1465.000,27.87030078344401
1266,1466.000,37.731459710553736
1267,1467.000,30.21910856689442
1268,1468.000,23.849296742339448
1269,1469.000,21.696320599803812
1270,1470.000,22.05819947520081
1271,1471.000,14.443996677395944
1272,1472.000,17.67357248814983
1273,1473.000,5.498647162085945
1274,1474.000,1.9316179266304516
1275,1475.000,17.429345981970528
1276,1476.000,6.07441750100611
1277,1477.000,9.577290629299796
1278,1478.000,13.670730485034483
1279,1479.000,8.322580158962637
1280,1480.000,1.3767847143562904
1281,1481.000,0.6109061869690322
1282,1482.000,20.777673584972717
1283,1483.000,9.041644888928886
1284,1484.000,9.03900005172568
1285,1485.000,7.406648998538003
1286,1486.000,8.811588626780804
1287,1487.000,1.6804858060552306
1288,1488.000,-2.4029416218907045
1289,1489.000,2.565324156784527
1290,1490.000,6.043739927969227
1291,1491.000,0.022438449556148043
1292,1492.000,2.599978451388324
1293,1493.000,-3.0960073647861464
1294,1494.000,1.0033006746402862
1295,1495.000,2.5171892150844997
1296,1496.000,4.465091873729762
1297,1497.000,4.732328239472736
1298,1498.000,5.550766872878057
1299,1499.000,5.04375930613287
1300,1500.000,5.622814042995515
1301,1501.000,1.9435895587530467
1302,1502.000,-5.878078699830212
1303,1503.000,-3.4074403145600627
1304,1504.000,2.806003104143656
1305,1505.000,9.609973917194338
1306,1506.000,1.2530124567988423
1307,1507.000,-8.044924973599791
1308,1508.000,9.327038900636808
1309,1509.000,4.532149325295677
1310,1510.000,7.918768517258513
1311,1511.000,11.926902664464023
1312,1512.000,-6.649116074150243
1313,1513.000,1.408262431310959
1314,1514.000,-18.093356718344467
1315,1515.000,3.702013548546347
1316,1516.000,-2.2873417255314052
1317,1517.000,0.8428184726672043
1318,1518.000,0.2581051271083652
1319,1519.000,-0.11606980756619123
1320,1520.000,-3.206658406097631
1321,1521.000,-1.061919772641886
1322,1522.000,-3.0283960408323765
1323,1523.000,-4.537191373818359
1324,1524.000,-8.80643196431106
1325,1525.000,-2.125931034640871
1326,1526.000,-1.1262368367943054
1327,1527.000,-2.9532796524658806
1328,1528.000,11.361474206891671
1329,1529.000,3.9653534000278796
1330,1530.000,-6.132256444165932
1331,1531.000,7.3516542733132155
1332,1532.000,3.5400521215174194
1333,1533.000,5.8374066395058435
1334,1534.000,7.411172336303707
1335,1535.000,-10.342902309162127
1336,1536.000,9.300110151912577
1337,1537.000,-5.66271886186064
1338,1538.000,-6.073114962093314
1339,1539.000,1.3912132093237233
1340,1540.000,4.746388980172242
1341,1541.000,-12.87669635213524
1342,1542.000,0.8182864793943736
1343,1543.000,8.261164711283982
1344,1544.000,2.1474805495470264
1345,1545.000,5.06522716962786
1346,1546.000,8.75512871636738
1347,1547.000,4.182260303947714
1348,1548.000,0.4824770158438696
1349,1549.000,8.623656904785548
1350,1550.000,14.203950992694217
1351,1551.000,-9.893754729348757
1352,1552.000,6.849627698842141
1353,1553.000,2.1690052065082455
1354,1554.000,10.744941691907798
1355,1555.000,9.052238022253277
1356,1556.000,5.62125603368213
1357,1557.000,0.1705035311949814
1358,1558.000,10.912733288613481
1359,1559.000,11.656894048537879
1360,1560.000,12.468036522285956
1361,1561.000,21.24611038986336
1362,1562.000,12.412012299900653
1363,1563.000,22.612751869613476
1364,1564.000,26.484123684758288
1365,1565.000,28.05563029957125
1366,1566.000,12.011277236738351
1367,1567.000,13.64771998733545
1368,1568.000,19.543696010785197
1369,1569.000,23.535987734812124
1370,1570.000,21.89045055538668
1371,1571.000,31.441089836690253
1372,1572.000,32.90664691105462
1373,1573.000,46.68562907892351
1374,1574.000,48.303661608804305
1375,1575.000,61.83865073721495
1376,1576.000,81.54994966864365
1377,1577.000,90.08804757549524
1378,1578.000,109.3930755980457
1379,1579.000,130.0550618444022
1380,1580.000,158.37789639043876
1381,1581.000,192.9679312797682
1382,1582.000,198.64234352367862
1383,1583.000,225.8061931010957
1384,1584.000,221.29952195853525
1385,1585.000,210.7911670100466
1386,1586.000,177.8101631371735
1387,1587.000,155.2038231889112
1388,1588.000,143.66138198163958
1389,1589.000,127.2451212991009
1390,1590.000,130.76838789233148
1391,1591.000,121.32934847962474
1392,1592.000,134.66238274648617
1393,1593.000,138.59245434557351
1394,1594.000,154.47731389666365
1395,1595.000,174.53416798659532
1396,1596.000,203.29022516922555
1397,1597.000,248.41643996538505
1398,1598.000,315.90266486281826
1399,1599.000,410.26242231615583
1400,1600.000,510.3462837468501
1401,1601.000,594.8398425431333
1402,1602.000,616.808946059977
1403,1603.000,588.7276236190273
1404,1604.000,498.3784445085814
1405,1605.000,394.1939899835163
1406,1606.000,317.1665832652559
1407,1607.000,244.4848775417247
1408,1608.000,195.52927996728658
1409,1609.000,149.15018166271307
1410,1610.000,123.01837771512601
1411,1611.000,104.42187417795208
1412,1612.000,86.65734407088325
1413,1613.000,86.53937737981028
1414,1614.000,61.72627505679998
1415,1615.000,63.60241702002713
1416,1616.000,62.727217153737
1417,1617.000,47.0074823082
1418,1618.000,40.842585299652
1419,1619.000,33.93817391026346
1420,1620.000,18.110097888079963
1421,1621.000,23.500644946976536
1422,1622.000,29.543817766618304
1423,1623.000,25.46686099239787
1424,1624.000,15.124282235403598
1425,1625.000,16.816792072363796
1426,1626.000,22.06380104559844
1427,1627.000,8.70440366298044
1428,1628.000,10.847184397870933
1429,1629.000,17.372976689095367
1430,1630.000,7.306368940873199
1431,1631.000,13.376211522785297
1432,1632.000,15.068734769724642
1433,1633.000,3.8614999818369142
1434,1634.000,13.055769424493292
1435,1635.000,9.395739328224181
1436,1636.000,3.24841688868014
1437,1637.000,12.059173266590733
1438,1638.000,-5.412197412302248
1439,1639.000,-0.8106030572662348
1440,1640.000,4.383423387350831
1441,1641.000,-0.316333057913198
1442,1642.000,-9.212830407681622
1443,1643.000,-5.210397711801079
1444,1644.000,4.860872944634366
1445,1645.000,12.926571441213355
1446,1646.000,3.0233656221728324
1447,1647.000,-8.365084703650155
1448,1648.000,7.968084237128323
1449,1649.000,-0.2898088176045803
1450,1650.000,8.108159834492653
1451,1651.000,-2.9541481398314318
1452,1652.000,8.633318890536657
1453,1653.000,-0.36695647898045536
1454,1654.000,6.121626311303771
1455,1655.000,-2.57227921470394
1456,1656.000,6.6898354310712875
1457,1657.000,7.754778700831594
1458,1658.000,2.0675120108508054
1459,1659.000,-4.758780258568095
1460,1660.000,4.876497236858086
1461,1661.000,1.940236805343602
1462,1662.000,14.315357718995301
1463,1663.000,-8.270193786249592
1464,1664.000,-11.704775510659829
1465,1665.000,2.0584097092414595
1466,1666.000,-3.298972999380794
1467,1667.000,-0.9778085457030556
1468,1668.000,-2.2948198753069846
1469,1669.000,2.850056029778216
1470,1670.000,8.189362151036676
1471,1671.000,0.5191524333984034
1472,1672.000,1.0971087852187793
1473,1673.000,6.20933107820656
1474,1674.000,-0.5616548526111274
1475,1675.000,11.59249379106791
1476,1676.000,-9.34227022924324
1477,1677.000,0.2280508111502968
1478,1678.000,1.9866856000674034
1479,1679.000,-5.826443211596597
1480,1680.000,-4.850145009908374
1481,1681.000,12.866109782038848
1482,1682.000,-4.892348295900092
1483,1683.000,-4.753436740989173
1484,1684.000,5.154380912350007
1485,1685.000,8.788240092497745
1486,1686.000,0.631034190567334
1487,1687.000,-3.1667744396154376
1488,1688.000,12.019981518420764
1489,1689.000,-4.906220656248934
1490,1690.000,-5.014195721989836
1491,1691.000,6.046060525339271
1492,1692.000,-4.3372917476560815
1493,1693.000,-5.187962411955596
1494,1694.000,-4.901831376175778
1495,1695.000,-4.918441586605468
1496,1696.000,-7.0632310272717405
1497,1697.000,-4.988074719969745
1498,1698.000,0.5135122756812507
1499,1699.000,0.8151978621890521
1500,1700.000,-8.260532095849157
1501,1701.000,-14.147904771813273
1502,1702.000,8.498825622917593
1503,1703.000,-7.805676161106021
1504,1704.000,-3.553782411437396
1505,1705.000,3.127148546220951
1506,1706.000,5.305110347951086
1507,1707.000,3.968337591599038
1508,1708.000,2.7291668367045077
1509,1709.000,4.981945604463817
1510,1710.000,-0.3746566223123864
1511,1711.000,-0.7442873992645218
1512,1712.000,-11.447911320508638
1513,1713.000,-0.34034401870303554
1514,1714.000,9.028692834912817
1515,1715.000,0.258890530477629
1516,1716.000,2.397223319439945
1517,1717.000,-0.6614475854653392
1518,1718.000,-6.6825340102791415
1519,1719.000,0.5236571801369792
1520,1720.000,3.5889150820612485
1521,1721.000,-6.632136247153539
1522,1722.000,-14.545772789106422
1523,1723.000,3.332553435591535
1524,1724.000,5.490637367267709
1525,1725.000,-6.6318010928457625
1526,1726.000,2.4099339173260432
1527,1727.000,-4.706759779339336
1528,1728.000,11.615846600787336
1529,1729.000,-11.802930197958176
1530,1730.000,11.236967529423055
1531,1731.000,1.8567704485367358
1532,1732.000,0.2419891855536207
1533,1733.000,4.222137327159089
1534,1734.000,18.497098420507655
1535,1735.000,2.5000629731812296
1536,1736.000,-7.766371546873188
1537,1737.000,-8.804346711376184
1538,1738.000,-6.907461131772834
1539,1739.000,2.533693540724016
1540,1740.000,3.1768176150899308
1541,1741.000,3.008035360432359
1542,1742.000,-9.040482994050308
1543,1743.000,-8.015510259119537
1544,1744.000,9.034532714457782
1545,1745.000,8.914741035866882
1546,1746.000,-2.538841225814622
1547,1747.000,0.22155895834362127
1548,1748.000,13.346854577084287
1549,1749.000,-0.5928024211066258
1550,1750.000,1.663023871980613
1551,1751.000,6.254911324208479
1552,1752.000,8.877957763055974
1553,1753.000,4.794764975575617
1554,1754.000,-2.2250142916734603
1555,1755.000,2.3488546673540895
1556,1756.000,3.2853225181206653
1557,1757.000,10.179635885465814
1558,1758.000,-1.3550376464334022
1559,1759.000,-2.485670534129895
1560,1760.000,5.580496725068997
1561,1761.000,-6.575078406960984
1562,1762.000,3.082598490794453
1563,1763.000,-2.9189012015490334
1564,1764.000,2.227152855155282
1565,1765.000,-5.9460080409371585
1566,1766.000,-1.3441636327233937
1567,1767.000,-4.642064704200948
1568,1768.000,-4.99017908050314
1569,1769.000,9.582272372029593
1570,1770.000,-2.5713332541649834
1571,1771.000,-6.580669907952142
1572,1772.000,-3.977042579522731
1573,1773.000,1.3327986995541323
1574,1774.000,2.5564858562675
1575,1775.000,1.457485776141084
1576,1776.000,5.072962303167515
1577,1777.000,-2.93431676023215
1578,1778.000,4.161085346755954
1579,1779.000,1.7953613432571274
1580,1780.000,1.6722689067014471
1581,1781.000,7.598837672751415
1582,1782.000,-2.523343764745505
1583,1783.000,8.761489146214444
1584,1784.000,-6.4884930842861195
1585,1785.000,-3.3955869880962837
1586,1786.000,0.49066686092055534
1587,1787.000,6.336986846861009
1588,1788.000,-4.126280688270754
1589,1789.000,6.5308905553838486
1590,1790.000,0.44857683549685134
1591,1791.000,5.992382367504888
1592,1792.000,2.2675463245598166
1593,1793.000,0.5108758374908575
1594,1794.000,1.800616994726397
1595,1795.000,2.4583098422958756
1596,1796.000,3.2258623837378764
1597,1797.000,10.686757580075664
1598,1798.000,9.3231673497653
1599,1799.000,0.9674265686419403
1600,1800.000,-3.972575930112498
1601,1801.000,14.548274643959985
1602,1802.000,8.12121303856884
1603,1803.000,1.7595029586200326
1604,1804.000,4.181444066153972
1605,1805.000,5.683038980324
1606,1806.000,-0.42352772267327055
1607,1807.000,-3.177415509633647
1608,1808.000,-6.396461890394676
1609,1809.000,4.267249582116392
1610,1810.000,3.7094393118331936
1611,1811.000,-1.7335663405010564
1612,1812.000,0.9024079426342269
1613,1813.000,3.5176374354714426
1614,1814.000,16.541069368918897
1615,1815.000,7.488302930511281
1616,1816.000,6.58951326435681
1617,1817.000,-4.16239052890478
1618,1818.000,6.731822607852564
1619,1819.000,2.433375688183105
1620,1820.000,3.9484126820334495
1621,1821.000,-0.05737348430830025
1622,1822.000,12.12901807173148
1623,1823.000,4.5078361889814005
1624,1824.000,-3.2585363375364977
1625,1825.000,8.021480243345195
1626,1826.000,-6.070199361091227
1627,1827.000,11.274542512474682
1628,1828.000,2.938880483391813
1629,1829.000,-4.85762987304588
1630,1830.000,4.983746974374299
1631,1831.000,2.6596835127324994
1632,1832.000,7.530332184920098
1633,1833.000,-1.5496196103911188
1634,1834.000,5.373963481189321
1635,1835.000,-1.7584192302776955
1636,1836.000,3.926732520909809
1637,1837.000,-1.3029150439801924
1638,1838.000,1.6730092518632773
1639,1839.000,6.293271540740761
1640,1840.000,14.13618291037551
1641,1841.000,2.216639403904537
1642,1842.000,-1.7631179802165207
1643,1843.000,1.7894657117840325
1644,1844.000,7.68883538891987
1645,1845.000,1.9998309153995706
1646,1846.000,2.8023971106003955
1647,1847.000,9.06354474898535
1648,1848.000,-4.238521439900978
1649,1849.000,4.190956228481355
1650,1850.000,0.7457863936410831
1651,1851.000,7.350059650006415
1652,1852.000,-2.489352453132824
1653,1853.000,2.1485595883468704
1654,1854.000,4.827799233328733
1655,1855.000,8.283309895432467
1656,1856.000,1.758664942962696
1657,1857.000,4.0916006988315985
1658,1858.000,7.141024440565388
1659,1859.000,-2.9839955997922516
1660,1860.000,-0.8856392357015466
1661,1861.000,-5.060197326178695
1662,1862.000,8.013509224145992
1663,1863.000,7.938921465003887
1664,1864.000,4.082377400408404
1665,1865.000,-5.7197020113621875
1666,1866.000,-1.4984578578239507
1667,1867.000,7.769687727651672
1668,1868.000,-1.6701394341837386
1669,1869.000,3.6437874314758574
1670,1870.000,-6.430615946545913
1671,1871.000,3.623180114544766
1672,1872.000,21.00010125145309
1673,1873.000,17.408877054770755
1674,1874.000,4.88999106889878
1675,1875.000,4.809184792025462
1676,1876.000,6.493507676075751
1677,1877.000,6.829243126631809
1678,1878.000,9.463406502942007
1679,1879.000,5.302613117823057
1680,1880.000,20.20856323763769
1681,1881.000,0.2250220822409119
1682,1882.000,0.07237582493894479
1683,1883.000,3.124704592422404
1684,1884.000,11.959370464746371
1685,1885.000,10.719296475257352
1686,1886.000,-4.869329389431186
1687,1887.000,3.0066508104944205
1688,1888.000,3.8765819680136246
1689,1889.000,0.31145692921336376
1690,1890.000,8.868567493250112
1691,1891.000,-3.149828587699176
1692,1892.000,8.497279391507163
1693,1893.000,4.5618270889381165
1694,1894.000,7.1776411155406095
1695,1895.000,0.25194103508238186
1696,1896.000,5.857404364122431
1697,1897.000,-1.4254634280507616
1698,1898.000,-0.29371791946687154
1699,1899.000,-6.862456735512978
1700,1900.000,-5.310849548989154
1701,1901.000,8.427286919861444
1702,1902.000,14.30058290327679
1703,1903.000,-1.51351441405086
1704,1904.000,13.250282104976122
1705,1905.000,9.511626549802031
1706,1906.000,-8.003589037818301
1707,1907.000,-0.7279566638712822
1708,1908.000,-5.170295382131599
1709,1909.000,13.09085970579872
1710,1910.000,-1.7592635495925606
1711,1911.000,-11.736646345714917
1712,1912.000,10.382224072022609
1713,1913.000,0.5075644101884791
1714,1914.000,-0.9997046727080487
1715,1915.000,0.8784074336963386
1716,1916.000,3.131221291622751
1717,1917.000,0.3462854150559451
1718,1918.000,5.096098269730646
1719,1919.000,12.088600273072416
1720,1920.000,3.181233794135551
1721,1921.000,12.03684315358305
1722,1922.000,-7.555286376383265
1723,1923.000,-11.654537572062509
1724,1924.000,7.261172741714745
1725,1925.000,18.189537691493797
1726,1926.000,6.690822355203409
1727,1927.000,5.973203762071989
1728,1928.000,2.0258028925845792
1729,1929.000,5.847949678457098
1730,1930.000,6.184327002553346
1731,1931.000,7.340688698874601
1732,1932.000,0.21224855248328822
1733,1933.000,7.391157299468205
1734,1934.000,9.99025962691212
1735,1935.000,-1.5824488272014605
1736,1936.000,4.723293526019916
1737,1937.000,-0.6913607737060374
1738,1938.000,-0.44565523587971256
1739,1939.000,5.26579258075526
1740,1940.000,6.083615068128438
1741,1941.000,6.978178568831481
1742,1942.000,8.005020376044058
1743,1943.000,8.520247733496944
1744,1944.000,2.657235835439451
1745,1945.000,6.757053826548827
1746,1946.000,7.389409801937973
1747,1947.000,-4.3695291929400355
1748,1948.000,1.0757558376926681
1749,1949.000,4.4529738398869085
1750,1950.000,-3.3970892901172647
1751,1951.000,4.476728294126815
1752,1952.000,-7.445328610833258
1753,1953.000,-4.986020258367489
1754,1954.000,2.121730048186464
1755,1955.000,-5.652473044534872
1756,1956.000,-0.03114093995782241
1757,1957.000,3.255462908381105
1758,1958.000,-1.5144740032264963
1759,1959.000,9.590944771319755
1760,1960.000,-6.4161823721563
1761,1961.000,1.7863079118797032
1762,1962.000,-3.893835081387124
1763,1963.000,2.9994778928119104
1764,1964.000,-1.6983709711755637
1765,1965.000,-2.038552529513936
1766,1966.000,16.943499311096957
1767,1967.000,9.997172593373307
1768,1968.000,3.312817309385764
1769,1969.000,3.9168544005337935
1770,1970.000,-0.22536224251894055
1771,1971.000,1.0613222201084227
1772,1972.000,-0.5291924225246021
1773,1973.000,-1.8564844322309
1774,1974.000,-4.528512121742779
1775,1975.000,2.360412145234932
1776,1976.000,1.3545619539852396
1777,1977.000,-1.996250161269927
1778,1978.000,2.7368412825730957
1779,1979.000,-3.217878282528318
1780,1980.000,-7.230269475827072
1781,1981.000,2.2781990321634566
1782,1982.000,5.497405519646918
1783,1983.000,-0.2607557865410399
1784,1984.000,-9.372844710945401
1785,1985.000,-2.6417771295546117
1786,1986.000,-12.87306996985376
1787,1987.000,3.566178789145397
1788,1988.000,-9.737712883174936
1789,1989.000,-1.9102890690398908
1790,1990.000,-11.236388902365661
1791,1991.000,-2.538169568801777
1792,1992.000,5.3246036942434785
1793,1993.000,-4.180956402482025
1794,1994.000,0.3138987999248002
1795,1995.000,-2.753187091568634
1796,1996.000,-1.9061015219535875
1797,1997.000,2.872459011773799
1798,1998.000,1.7603699605379006
1799,1999.000,-9.096437276820552
1800,2000.000,-7.555702353624838
