raman_shift_cm-1,intensity
200.000000,0.010451325
201.000000,0.009027942605
202.000000,0.009247534827
203.000000,0.005190950755
204.000000,0.01367352508
205.000000,0.01236266805
206.000000,0.00942371784
207.000000,0.01162240511
208.000000,0.01063744292
209.000000,0.008967606799
210.000000,0.01203061951
211.000000,0.009454604908
212.000000,0.009418304856
213.000000,0.008491895094
214.000000,0.01098634198
215.000000,0.009878268261
216.000000,0.01116748163
217.000000,0.008862773966
218.000000,0.01033104355
219.000000,0.008293083609
220.000000,0.01176080683
221.000000,0.01045419362
222.000000,0.01073951339
223.000000,0.01089962853
224.000000,0.008057356422
225.000000,0.01164548555
226.000000,0.01419278275
227.000000,0.006802747105
228.000000,0.006621065621
229.000000,0.007070483631
230.000000,0.01176332362
231.000000,0.01033809801
232.000000,0.01223761394
233.000000,0.01152605468
234.000000,0.01050260196
235.000000,0.01064980156
236.000000,0.009742472763
237.000000,0.01181918423
238.000000,0.00782310352
239.000000,0.009239091015
240.000000,0.0105689612
241.000000,0.01368620167
242.000000,0.008554709806
243.000000,0.007925796856
244.000000,0.008957624779
245.000000,0.01202302666
246.000000,0.009614756019
247.000000,0.01273374756
248.000000,0.006340282694
249.000000,0.01234267796
250.000000,0.01215565587
251.000000,0.007248885491
252.000000,0.01039367591
253.000000,0.01251832449
254.000000,0.0102629462
255.000000,0.0120868117
256.000000,0.01483748527
257.000000,0.01063588042
258.000000,0.009527557642
259.000000,0.008546526216
260.000000,0.01138506993
261.000000,0.009695792733
262.000000,0.009732074224
263.000000,0.00987936349
264.000000,0.01138994043
265.000000,0.007957842007
266.000000,0.007031090391
267.000000,0.005223414177
268.000000,0.01248883565
269.000000,0.01023940894
270.000000,0.01311239155
271.000000,0.01007457276
272.000000,0.008608509241
273.000000,0.01104901573
274.000000,0.009940319482
275.000000,0.007585464388
276.000000,0.008324048201
277.000000,0.01362808592
278.000000,0.01080357669
279.000000,0.01092799909
280.000000,0.009542475453
281.000000,0.008716494989
282.000000,0.01187960336
283.000000,0.009887398846
284.000000,0.008578797984
285.000000,0.009829122084
286.000000,0.008286534489
287.000000,0.01047820811
288.000000,0.01235694414
289.000000,0.008426693551
290.000000,0.01295632949
291.000000,0.008764381793
292.000000,0.01040682887
293.000000,0.008427617019
294.000000,0.009656307961
295.000000,0.01019597807
296.000000,0.009232193061
297.000000,0.008696183656
298.000000,0.008746586376
299.000000,0.008460441014
300.000000,0.006963005959
301.000000,0.009577634662
302.000000,0.01090630118
303.000000,0.01192120246
304.000000,0.01139902092
305.000000,0.0150199084
306.000000,0.01074302159
307.000000,0.009193416597
308.000000,0.01384978286
309.000000,0.008012509779
310.000000,0.01204433677
311.000000,0.008197530845
312.000000,0.01081648581
313.000000,0.006171914425
314.000000,0.01190770413
315.000000,0.009793113671
316.000000,0.008174701575
317.000000,0.01346736169
318.000000,0.01164169558
319.000000,0.01020306804
320.000000,0.008621035341
321.000000,0.01002567033
322.000000,0.009785015049
323.000000,0.01156290635
324.000000,0.01170998829
325.000000,0.008778813532
326.000000,0.009016077396
327.000000,0.00905118399
328.000000,0.007417180231
329.000000,0.008933169032
330.000000,0.009932010788
331.000000,0.01149924302
332.000000,0.01275861447
333.000000,0.008501684292
334.000000,0.01122085391
335.000000,0.009230516296
336.000000,0.01427033895
337.000000,0.01002305417
338.000000,0.01112529752
339.000000,0.00824926611
340.000000,0.008500762899
341.000000,0.01052608847
342.000000,0.009355149706
343.000000,0.01083040128
344.000000,0.007000746151
345.000000,0.0114489795
346.000000,0.008326588952
347.000000,0.01357098157
348.000000,0.009549790464
349.000000,0.01232185033
350.000000,0.007337954111
351.000000,0.01098641902
352.000000,0.008353078337
353.000000,0.009155976019
354.000000,0.01017956892
355.000000,0.009496853776
356.000000,0.01066014814
357.000000,0.01162758664
358.000000,0.01143848473
359.000000,0.009958608022
360.000000,0.007407366445
361.000000,0.008525597754
362.000000,0.00974404616
363.000000,0.005892581435
364.000000,0.01164107564
365.000000,0.009658325529
366.000000,0.009635657224
367.000000,0.0120357487
368.000000,0.01147552439
369.000000,0.01058241915
370.000000,0.008138470711
371.000000,0.01076270864
372.000000,0.0108349552
373.000000,0.008373795231
374.000000,0.0122307146
375.000000,0.01116062163
376.000000,0.00620636235
377.000000,0.01039028136
378.000000,0.007617765532
379.000000,0.01242057867
380.000000,0.01176279905
381.000000,0.007942364425
382.000000,0.008380611472
383.000000,0.01035488266
384.000000,0.009674382084
385.000000,0.01320324604
386.000000,0.01163563234
387.000000,0.00958968384
388.000000,0.01131019277
389.000000,0.006091713935
390.000000,0.01077688279
391.000000,0.01189085778
392.000000,0.009801038394
393.000000,0.008739424464
394.000000,0.01129243901
395.000000,0.01407893081
396.000000,0.01057237862
397.000000,0.007922235138
398.000000,0.01305616024
399.000000,0.006408426566
400.000000,0.01117291294
401.000000,0.009003586645
402.000000,0.01202969673
403.000000,0.008470566444
404.000000,0.01281823769
405.000000,0.01077212695
406.000000,0.006718950182
407.000000,0.006226068257
408.000000,0.009542578564
409.000000,0.01276428074
410.000000,0.0104310183
411.000000,0.01031231345
412.000000,0.009707391489
413.000000,0.01165614015
414.000000,0.01093614784
415.000000,0.01074335446
416.000000,0.008214399588
417.000000,0.01256074939
418.000000,0.01291241571
419.000000,0.007584775042
420.000000,0.01479171491
421.000000,0.01163499604
422.000000,0.009215245033
423.000000,0.006383835623
424.000000,0.01150754723
425.000000,0.01131020098
426.000000,0.009005255615
427.000000,0.006616771286
428.000000,0.01244820776
429.000000,0.009024010976
430.000000,0.009258571945
431.000000,0.0158947844
432.000000,0.01446089012
433.000000,0.01211389036
434.000000,0.009297066127
435.000000,0.01150834251
436.000000,0.005648013115
437.000000,0.01042557214
438.000000,0.00869444603
439.000000,0.007644470412
440.000000,0.007051692588
441.000000,0.01126922872
442.000000,0.01039921395
443.000000,0.0105417524
444.000000,0.01190877375
445.000000,0.008533595903
446.000000,0.00775636211
447.000000,0.006676594169
448.000000,0.009560752631
449.000000,0.01175330655
450.000000,0.009936023568
451.000000,0.01151903224
452.000000,0.007876603079
453.000000,0.009302432562
454.000000,0.008710797343
455.000000,0.007747942032
456.000000,0.01396570387
457.000000,0.01195313043
458.000000,0.008727373588
459.000000,0.008721100601
460.000000,0.01014093697
461.000000,0.007373454719
462.000000,0.01113148576
463.000000,0.007673660735
464.000000,0.009523618079
465.000000,0.008217224368
466.000000,0.009309599455
467.000000,0.007609449943
468.000000,0.007128631425
469.000000,0.008344548891
470.000000,0.008919411214
471.000000,0.009692298629
472.000000,0.01042273879
473.000000,0.01334130649
474.000000,0.01191481068
475.000000,0.009787352677
476.000000,0.0117478845
477.000000,0.008921204166
478.000000,0.0131989879
479.000000,0.01140402258
480.000000,0.007596512173
481.000000,0.01182214437
482.000000,0.01194680248
483.000000,0.004946735363
484.000000,0.008825109735
485.000000,0.009377095711
486.000000,0.006471226704
487.000000,0.008197478048
488.000000,0.008438771941
489.000000,0.01135341084
490.000000,0.01094395439
491.000000,0.01559926472
492.000000,0.009562369948
493.000000,0.01266140762
494.000000,0.01051678326
495.000000,0.01090517709
496.000000,0.008048394501
497.000000,0.006550279513
498.000000,0.008842306954
499.000000,0.01190556749
500.000000,0.01355157444
501.000000,0.0115987876
502.000000,0.01139232262
503.000000,0.008723299175
504.000000,0.01347461338
505.000000,0.01309895596
506.000000,0.009355125064
507.000000,0.01032962899
508.000000,0.008435984996
509.000000,0.01336836423
510.000000,0.01125266862
511.000000,0.01025599428
512.000000,0.01126624605
513.000000,0.01134017798
514.000000,0.009642598368
515.000000,0.007989297198
516.000000,0.007911956742
517.000000,0.0070099255
518.000000,0.01141657411
519.000000,0.01493876752
520.000000,0.007111375363
521.000000,0.01079414184
522.000000,0.01134781959
523.000000,0.008565126339
524.000000,0.01095200641
525.000000,0.008358319651
526.000000,0.01296230884
527.000000,0.009382601695
528.000000,0.01078211203
529.000000,0.01195967498
530.000000,0.009742076274
531.000000,0.007030113543
532.000000,0.009561276154
533.000000,0.01216135839
534.000000,0.01047826796
535.000000,0.01111928
536.000000,0.0085116883
537.000000,0.01097217006
538.000000,0.01215575394
539.000000,0.01078649776
540.000000,0.01454432278
541.000000,0.01032793402
542.000000,0.008676611211
543.000000,0.007540375613
544.000000,0.01309671109
545.000000,0.01069232377
546.000000,0.01285195567
547.000000,0.01176313025
548.000000,0.01411780993
549.000000,0.01342051661
550.000000,0.01015471094
551.000000,0.01148001507
552.000000,0.01312637446
553.000000,0.00850788233
554.000000,0.01390730488
555.000000,0.01345612402
556.000000,0.01302582863
557.000000,0.01068724397
558.000000,0.01172389643
559.000000,0.008917106204
560.000000,0.01130102468
561.000000,0.01004555549
562.000000,0.01143042148
563.000000,0.01030692509
564.000000,0.01190470905
565.000000,0.01373887865
566.000000,0.008806469187
567.000000,0.01332444376
568.000000,0.007540741606
569.000000,0.007255934939
570.000000,0.01139606228
571.000000,0.01170847603
572.000000,0.01264453932
573.000000,0.008532103065
574.000000,0.01177929464
575.000000,0.01222926683
576.000000,0.01456884827
577.000000,0.01193863281
578.000000,0.01329835566
579.000000,0.01038636574
580.000000,0.01207440857
581.000000,0.01167496134
582.000000,0.01409822298
583.000000,0.0108495947
584.000000,0.0113053452
585.000000,0.01428511661
586.000000,0.0168849936
587.000000,0.01425998641
588.000000,0.01430754084
589.000000,0.01323355772
590.000000,0.01635025467
591.000000,0.01552592517
592.000000,0.01821379125
593.000000,0.01574289917
594.000000,0.01355584053
595.000000,0.01472850725
596.000000,0.01435924339
597.000000,0.01435697054
598.000000,0.01997974477
599.000000,0.01974234585
600.000000,0.01642285141
601.000000,0.02335154548
602.000000,0.0213071408
603.000000,0.02010413532
604.000000,0.02419992718
605.000000,0.02495850412
606.000000,0.02554630352
607.000000,0.0256121259
608.000000,0.03250463335
609.000000,0.03663039159
610.000000,0.035396485
611.000000,0.04735432565
612.000000,0.05474561683
613.000000,0.06194381051
614.000000,0.0752740598
615.000000,0.09024279868
616.000000,0.1091309875
617.000000,0.134150608
618.000000,0.1632697097
619.000000,0.1788873178
620.000000,0.1907354679
621.000000,0.182160701
622.000000,0.1591590697
623.000000,0.1340017847
624.000000,0.1080200314
625.000000,0.08911978101
626.000000,0.07510323828
627.000000,0.06356429181
628.000000,0.0517450002
629.000000,0.05239255394
630.000000,0.03945327344
631.000000,0.0363443589
632.000000,0.03201732124
633.000000,0.02874972549
634.000000,0.02974905925
635.000000,0.02419861233
636.000000,0.02615965502
637.000000,0.02436901638
638.000000,0.01879824404
639.000000,0.02193555799
640.000000,0.01767918543
641.000000,0.0236845495
642.000000,0.01676879316
643.000000,0.01506911458
644.000000,0.01260849359
645.000000,0.01338316211
646.000000,0.01439705837
647.000000,0.0131949146
648.000000,0.01240389244
649.000000,0.01317367429
650.000000,0.0138830106
651.000000,0.01695171745
652.000000,0.01042552963
653.000000,0.01252755823
654.000000,0.011539199
655.000000,0.01024836203
656.000000,0.01059193339
657.000000,0.01117072915
658.000000,0.01428546737
659.000000,0.01234285158
660.000000,0.01154307869
661.000000,0.01373829963
662.000000,0.01298143912
663.000000,0.01188427338
664.000000,0.01301678508
665.000000,0.01051451391
666.000000,0.01335422629
667.000000,0.01296638089
668.000000,0.01114542736
669.000000,0.009472682135
670.000000,0.01489714533
671.000000,0.0119943043
672.000000,0.01786056801
673.000000,0.01040637601
674.000000,0.01337684814
675.000000,0.01076331396
676.000000,0.01210212818
677.000000,0.01322690651
678.000000,0.009928989087
679.000000,0.01129692177
680.000000,0.0117903812
681.000000,0.01166864099
682.000000,0.01260945239
683.000000,0.01344414073
684.000000,0.01303824497
685.000000,0.01187641949
686.000000,0.01063641548
687.000000,0.009053856692
688.000000,0.009825524867
689.000000,0.01022390251
690.000000,0.01263203638
691.000000,0.01052607969
692.000000,0.008756355597
693.000000,0.01248246315
694.000000,0.009612970543
695.000000,0.009678453149
696.000000,0.01074911222
697.000000,0.01214043546
698.000000,0.006360993962
699.000000,0.008938569617
700.000000,0.01152758931
701.000000,0.01044382291
702.000000,0.009439576113
703.000000,0.01008305396
704.000000,0.01393452676
705.000000,0.01025137768
706.000000,0.01258773017
707.000000,0.01274645091
708.000000,0.01026332757
709.000000,0.01205244872
710.000000,0.01026764212
711.000000,0.009950578432
712.000000,0.008923475647
713.000000,0.01293019003
714.000000,0.01038954366
715.000000,0.01008794545
716.000000,0.008944504998
717.000000,0.01482506172
718.000000,0.01269979036
719.000000,0.01096022824
720.000000,0.009846900061
721.000000,0.008188199426
722.000000,0.01184378457
723.000000,0.01185031697
724.000000,0.008470980656
725.000000,0.01362622154
726.000000,0.01287144359
727.000000,0.009412909557
728.000000,0.01024435537
729.000000,0.01052101729
730.000000,0.01171820354
731.000000,0.01112823428
732.000000,0.008165432057
733.000000,0.01441692717
734.000000,0.01212834192
735.000000,0.01404591293
736.000000,0.01406440963
737.000000,0.01117122196
738.000000,0.01230518238
739.000000,0.01313092443
740.000000,0.01323540028
741.000000,0.0114093069
742.000000,0.01054430344
743.000000,0.01189751882
744.000000,0.01027307314
745.000000,0.01081666585
746.000000,0.007923955291
747.000000,0.01221105263
748.000000,0.01005340745
749.000000,0.01106323138
750.000000,0.01214189272
751.000000,0.01295241322
752.000000,0.01618605424
753.000000,0.01290549272
754.000000,0.009765744794
755.000000,0.0129565599
756.000000,0.0116143358
757.000000,0.01372400879
758.000000,0.01168326837
759.000000,0.01177725932
760.000000,0.01232312509
761.000000,0.01225527004
762.000000,0.01004026381
763.000000,0.01254915131
764.000000,0.01407199788
765.000000,0.01673611392
766.000000,0.01400739936
767.000000,0.01413555508
768.000000,0.01635437158
769.000000,0.01662388585
770.000000,0.01913440508
771.000000,0.01754186769
772.000000,0.01682237307
773.000000,0.02008969702
774.000000,0.02109653441
775.000000,0.01779703149
776.000000,0.01987577194
777.000000,0.01713084267
778.000000,0.02084150061
779.000000,0.02105487153
780.000000,0.02385940721
781.000000,0.02504932797
782.000000,0.02772520411
783.000000,0.03029129705
784.000000,0.03441534169
785.000000,0.03743210239
786.000000,0.04014649225
787.000000,0.04392384181
788.000000,0.05532617509
789.000000,0.06333956249
790.000000,0.06861395318
791.000000,0.08086160447
792.000000,0.08745741862
793.000000,0.09738688541
794.000000,0.1072705957
795.000000,0.1134582484
796.000000,0.1057209625
797.000000,0.09885046864
798.000000,0.09373592201
799.000000,0.07596668769
800.000000,0.07083380088
801.000000,0.06150280671
802.000000,0.05246986213
803.000000,0.04690906423
804.000000,0.04654694878
805.000000,0.03475362616
806.000000,0.03284133958
807.000000,0.03006566652
808.000000,0.02672622741
809.000000,0.02338086188
810.000000,0.02752993487
811.000000,0.02332210586
812.000000,0.01811707895
813.000000,0.01915359789
814.000000,0.02044115961
815.000000,0.01962928731
816.000000,0.01523537742
817.000000,0.0173124589
818.000000,0.0174691338
819.000000,0.01724671915
820.000000,0.01681833029
821.000000,0.01199668667
822.000000,0.01899016487
823.000000,0.01540669464
824.000000,0.01831501901
825.000000,0.02017452895
826.000000,0.01389602458
827.000000,0.01153922801
828.000000,0.0155431002
829.000000,0.01327771188
830.000000,0.01257580296
831.000000,0.01126447287
832.000000,0.01657088556
833.000000,0.01218491845
834.000000,0.01015570224
835.000000,0.01195308134
836.000000,0.01043500562
837.000000,0.01297386719
838.000000,0.01173446984
839.000000,0.01037953199
840.000000,0.01362463217
841.000000,0.01106603863
842.000000,0.01373691808
843.000000,0.01475217039
844.000000,0.01145109622
845.000000,0.0108304659
846.000000,0.01247400625
847.000000,0.01381341656
848.000000,0.01198299833
849.000000,0.01222932652
850.000000,0.01185904474
851.000000,0.0125010821
852.000000,0.01310422881
853.000000,0.01040483171
854.000000,0.01082410275
855.000000,0.01185044316
856.000000,0.01040767154
857.000000,0.01198893523
858.000000,0.01276811946
859.000000,0.01163302047
860.000000,0.01045143815
861.000000,0.0100875669
862.000000,0.01512915318
863.000000,0.01336968251
864.000000,0.009359979911
865.000000,0.009906055078
866.000000,0.0153251715
867.000000,0.01459049649
868.000000,0.01181567947
869.000000,0.01386742153
870.000000,0.00857109654
871.000000,0.01154192706
872.000000,0.01301604682
873.000000,0.007810475445
874.000000,0.009961237127
875.000000,0.01309056396
876.000000,0.01378653743
877.000000,0.01033586424
878.000000,0.01210206293
879.000000,0.01472458427
880.000000,0.01076074688
881.000000,0.008860067763
882.000000,0.01140688401
883.000000,0.0107470009
884.000000,0.01413973779
885.000000,0.01186290133
886.000000,0.009944211093
887.000000,0.01635591902
888.000000,0.01056172477
889.000000,0.01251467953
890.000000,0.01293078266
891.000000,0.01315620135
892.000000,0.0119433372
893.000000,0.01278151786
894.000000,0.01148375439
895.000000,0.008793315265
896.000000,0.01120492029
897.000000,0.01126133239
898.000000,0.01131709589
899.000000,0.01195987824
900.000000,0.01045424079
901.000000,0.01436692308
902.000000,0.01487142701
903.000000,0.007355709924
904.000000,0.01179438886
905.000000,0.01037474159
906.000000,0.006604551104
907.000000,0.01265935911
908.000000,0.01062450464
909.000000,0.01113464901
910.000000,0.01060800622
911.000000,0.01411128053
912.000000,0.01444307282
913.000000,0.01254641279
914.000000,0.0134085646
915.000000,0.01182823832
916.000000,0.01236543144
917.000000,0.01063492547
918.000000,0.01222224678
919.000000,0.01076195981
920.000000,0.01297298222
921.000000,0.01392077451
922.000000,0.01292900176
923.000000,0.01471767324
924.000000,0.01777417679
925.000000,0.008226690489
926.000000,0.01251525157
927.000000,0.01140063189
928.000000,0.01167685148
929.000000,0.009928390078
930.000000,0.01280667298
931.000000,0.01224440797
932.000000,0.01155738487
933.000000,0.01237901885
934.000000,0.01176983309
935.000000,0.008340217135
936.000000,0.01525488096
937.000000,0.01257057294
938.000000,0.01135935858
939.000000,0.01395645521
940.000000,0.01210787588
941.000000,0.009178263882
942.000000,0.0153982372
943.000000,0.01037416162
944.000000,0.01339922018
945.000000,0.01419047063
946.000000,0.01676968262
947.000000,0.01657715007
948.000000,0.01466217306
949.000000,0.01294502262
950.000000,0.01378918581
951.000000,0.01695422382
952.000000,0.018518908
953.000000,0.01621087669
954.000000,0.01402183306
955.000000,0.0175703419
956.000000,0.01497406702
957.000000,0.01513580699
958.000000,0.01563580096
959.000000,0.01763295643
960.000000,0.01728039919
961.000000,0.01901269229
962.000000,0.01993916795
963.000000,0.01871647904
964.000000,0.01339594604
965.000000,0.01506755718
966.000000,0.01921132812
967.000000,0.01923506428
968.000000,0.02419450555
969.000000,0.02037367812
970.000000,0.02073909446
971.000000,0.02360133296
972.000000,0.02457867903
973.000000,0.02279164356
974.000000,0.02510901171
975.000000,0.02289634724
976.000000,0.02439445492
977.000000,0.0299997388
978.000000,0.02613076658
979.000000,0.03238796299
980.000000,0.03371909646
981.000000,0.03598782768
982.000000,0.03867843747
983.000000,0.04077354764
984.000000,0.0386333346
985.000000,0.04477079962
986.000000,0.05018541684
987.000000,0.05877522776
988.000000,0.06147410788
989.000000,0.07071532928
990.000000,0.08195016393
991.000000,0.0988008488
992.000000,0.1108830567
993.000000,0.1345240223
994.000000,0.1705644627
995.000000,0.2100962547
996.000000,0.2799446265
997.000000,0.3739141715
998.000000,0.5119382109
999.000000,0.7068543003
1000.000000,0.9137063167
1001.000000,1.016401761
1002.000000,0.9171859972
1003.000000,0.7121778651
1004.000000,0.5173484305
1005.000000,0.378111992
1006.000000,0.28206287
1007.000000,0.2191393886
1008.000000,0.1772203654
1009.000000,0.1402496406
1010.000000,0.123117997
1011.000000,0.1044299548
1012.000000,0.09361698779
1013.000000,0.08523182671
1014.000000,0.07980197973
1015.000000,0.07402241712
1016.000000,0.06982903749
1017.000000,0.06976138858
1018.000000,0.06908455733
1019.000000,0.07002278889
1020.000000,0.07382660655
1021.000000,0.08007128339
1022.000000,0.08593875629
1023.000000,0.09653364239
1024.000000,0.1086493088
1025.000000,0.1322625166
1026.000000,0.1591043554
1027.000000,0.2072109155
1028.000000,0.2629470021
1029.000000,0.3410727375
1030.000000,0.4153989421
1031.000000,0.4396329227
1032.000000,0.4107711403
1033.000000,0.3366717545
1034.000000,0.2597422527
1035.000000,0.1987137643
1036.000000,0.1570906684
1037.000000,0.1268765435
1038.000000,0.1018025882
1039.000000,0.08121557068
1040.000000,0.06954803464
1041.000000,0.06155494142
1042.000000,0.05723996837
1043.000000,0.04916610246
1044.000000,0.04448652874
1045.000000,0.04236295496
1046.000000,0.03631751696
1047.000000,0.03386020211
1048.000000,0.03140361789
1049.000000,0.02627479095
1050.000000,0.02909863416
1051.000000,0.02754375569
1052.000000,0.0274136385
1053.000000,0.02197910871
1054.000000,0.02174851975
1055.000000,0.02438204531
1056.000000,0.02238561574
1057.000000,0.02379631176
1058.000000,0.01869646753
1059.000000,0.02026084796
1060.000000,0.01799679111
1061.000000,0.019504253
1062.000000,0.01749158656
1063.000000,0.0191468617
1064.000000,0.01988324205
1065.000000,0.01874554431
1066.000000,0.0134788761
1067.000000,0.01869999679
1068.000000,0.01745913736
1069.000000,0.01424200029
1070.000000,0.01433789197
1071.000000,0.01592328913
1072.000000,0.01686550729
1073.000000,0.01464214746
1074.000000,0.0121358948
1075.000000,0.01579277026
1076.000000,0.01542840768
1077.000000,0.01983996789
1078.000000,0.01225855738
1079.000000,0.01976961211
1080.000000,0.01810587309
1081.000000,0.0151245113
1082.000000,0.01774503853
1083.000000,0.01453561565
1084.000000,0.01621986716
1085.000000,0.01272432273
1086.000000,0.01428459995
1087.000000,0.01203480649
1088.000000,0.0108570756
1089.000000,0.01341375487
1090.000000,0.01259322031
1091.000000,0.01501529726
1092.000000,0.01637455901
1093.000000,0.01346244022
1094.000000,0.01389084529
1095.000000,0.01412543705
1096.000000,0.01037462494
1097.000000,0.01425401478
1098.000000,0.01372817529
1099.000000,0.01360680233
1100.000000,0.01149706696
1101.000000,0.009736883732
1102.000000,0.0132074938
1103.000000,0.01435235101
1104.000000,0.01641867227
1105.000000,0.01602095217
1106.000000,0.01669612303
1107.000000,0.01455762975
1108.000000,0.01616790781
1109.000000,0.01348729207
1110.000000,0.01520614906
1111.000000,0.01586948479
1112.000000,0.01944811298
1113.000000,0.01462585335
1114.000000,0.011674657
1115.000000,0.01706316784
1116.000000,0.01282242381
1117.000000,0.01439121162
1118.000000,0.0140428268
1119.000000,0.01294663082
1120.000000,0.01757597609
1121.000000,0.01625761644
1122.000000,0.01401686523
1123.000000,0.01557319766
1124.000000,0.01478194475
1125.000000,0.01711544294
1126.000000,0.01539016677
1127.000000,0.01490611653
1128.000000,0.01547385104
1129.000000,0.01625028139
1130.000000,0.01810725696
1131.000000,0.0161449
1132.000000,0.01831554154
1133.000000,0.01996014004
1134.000000,0.02440493309
1135.000000,0.02219325817
1136.000000,0.01537423055
1137.000000,0.02131316086
1138.000000,0.02269513116
1139.000000,0.02547843745
1140.000000,0.02956473456
1141.000000,0.02979551876
1142.000000,0.02596285867
1143.000000,0.03390994546
1144.000000,0.03683895658
1145.000000,0.04154685273
1146.000000,0.0485351577
1147.000000,0.05002807987
1148.000000,0.06248131928
1149.000000,0.06715064654
1150.000000,0.08329700628
1151.000000,0.09944829831
1152.000000,0.1209706914
1153.000000,0.132899653
1154.000000,0.1450133754
1155.000000,0.1553506334
1156.000000,0.1474818918
1157.000000,0.1382441818
1158.000000,0.1162190448
1159.000000,0.09860625392
1160.000000,0.08782436474
1161.000000,0.07326999538
1162.000000,0.06546230021
1163.000000,0.05313512187
1164.000000,0.05357474048
1165.000000,0.04475361362
1166.000000,0.04433466774
1167.000000,0.03835506038
1168.000000,0.03569983086
1169.000000,0.03740555188
1170.000000,0.03802773676
1171.000000,0.04123570265
1172.000000,0.03987637777
1173.000000,0.04248786197
1174.000000,0.04519965341
1175.000000,0.05410712752
1176.000000,0.05176796912
1177.000000,0.06338443767
1178.000000,0.07051349274
1179.000000,0.08416722592
1180.000000,0.09815062251
1181.000000,0.1183016211
1182.000000,0.1272581743
1183.000000,0.1324502385
1184.000000,0.1287428662
1185.000000,0.112433563
1186.000000,0.09878863257
1187.000000,0.08296614368
1188.000000,0.06608487152
1189.000000,0.05847476656
1190.000000,0.04730590813
1191.000000,0.04213986796
1192.000000,0.03725683311
1193.000000,0.03707249166
1194.000000,0.03019236833
1195.000000,0.02584698794
1196.000000,0.02377605956
1197.000000,0.0263097679
1198.000000,0.01915133839
1199.000000,0.02035130103
1200.000000,0.01951247106
1201.000000,0.01449775599
1202.000000,0.01770459601
1203.000000,0.01998955797
1204.000000,0.01786944389
1205.000000,0.0150991593
1206.000000,0.01783088449
1207.000000,0.01708227515
1208.000000,0.01973914815
1209.000000,0.01388273892
1210.000000,0.0142986987
1211.000000,0.01489442975
1212.000000,0.01429501195
1213.000000,0.01452635352
1214.000000,0.01393856882
1215.000000,0.01258004357
1216.000000,0.01059206668
1217.000000,0.01252319795
1218.000000,0.01071596125
1219.000000,0.01126365436
1220.000000,0.01214743689
1221.000000,0.01413416968
1222.000000,0.01471675676
1223.000000,0.01083214967
1224.000000,0.01342208549
1225.000000,0.01432342194
1226.000000,0.01254182532
1227.000000,0.009269423583
1228.000000,0.008164057701
1229.000000,0.0139923004
1230.000000,0.01416909604
1231.000000,0.01282783355
1232.000000,0.01010698248
1233.000000,0.01506394567
1234.000000,0.01453295658
1235.000000,0.01196303115
1236.000000,0.01156107322
1237.000000,0.008046578667
1238.000000,0.01342207877
1239.000000,0.00865102801
1240.000000,0.01320162159
1241.000000,0.01326262126
1242.000000,0.01195706717
1243.000000,0.01489604373
1244.000000,0.01106105043
1245.000000,0.01285595722
1246.000000,0.01324236442
1247.000000,0.01211922281
1248.000000,0.0107589167
1249.000000,0.01403249701
1250.000000,0.0123939927
1251.000000,0.01114086087
1252.000000,0.01117290322
1253.000000,0.01174485999
1254.000000,0.01602675073
1255.000000,0.01165864561
1256.000000,0.01094991746
1257.000000,0.009281548872
1258.000000,0.008955231582
1259.000000,0.007583561642
1260.000000,0.01183253823
1261.000000,0.01140567171
1262.000000,0.00927743734
1263.000000,0.008346895751
1264.000000,0.01065452289
1265.000000,0.01024592036
1266.000000,0.008610048468
1267.000000,0.01187420398
1268.000000,0.01154509001
1269.000000,0.01114794097
1270.000000,0.01278264191
1271.000000,0.009924411538
1272.000000,0.01394070015
1273.000000,0.00918290774
1274.000000,0.01223313777
1275.000000,0.01246725278
1276.000000,0.0106684673
1277.000000,0.01188511718
1278.000000,0.008607366668
1279.000000,0.008162865529
1280.000000,0.01076115417
1281.000000,0.009698350997
1282.000000,0.01233713585
1283.000000,0.01120966234
1284.000000,0.01237930338
1285.000000,0.01177954694
1286.000000,0.01154602459
1287.000000,0.01132139264
1288.000000,0.01038662313
1289.000000,0.01020025508
1290.000000,0.01519782801
1291.000000,0.007603102982
1292.000000,0.01075003413
1293.000000,0.01312975465
1294.000000,0.01195946049
1295.000000,0.01393770926
1296.000000,0.01221769851
1297.000000,0.008592024467
1298.000000,0.01045866745
1299.000000,0.008308231922
1300.000000,0.01308806699
1301.000000,0.01400454873
1302.000000,0.01023488094
1303.000000,0.01220384281
1304.000000,0.01029609271
1305.000000,0.008240762216
1306.000000,0.01022526211
1307.000000,0.007954561904
1308.000000,0.009984253345
1309.000000,0.01154654902
1310.000000,0.0125788314
1311.000000,0.01372010023
1312.000000,0.01046544207
1313.000000,0.01160654446
1314.000000,0.01198124909
1315.000000,0.01225421561
1316.000000,0.005444466679
1317.000000,0.009594522826
1318.000000,0.01274794858
1319.000000,0.008920851114
1320.000000,0.01166024287
1321.000000,0.0128383997
1322.000000,0.00738302638
1323.000000,0.01080102126
1324.000000,0.01166315865
1325.000000,0.01121726363
1326.000000,0.008142136505
1327.000000,0.01190332778
1328.000000,0.01009514215
1329.000000,0.01287042462
1330.000000,0.01209379578
1331.000000,0.01014127073
1332.000000,0.01160125033
1333.000000,0.009876903801
1334.000000,0.009866259792
1335.000000,0.008116014314
1336.000000,0.01080799108
1337.000000,0.01290372444
1338.000000,0.01153059676
1339.000000,0.01126584052
1340.000000,0.01005710836
1341.000000,0.01027590705
1342.000000,0.01282400661
1343.000000,0.008359650837
1344.000000,0.01548716104
1345.000000,0.01124720346
1346.000000,0.01573469784
1347.000000,0.01375394397
1348.000000,0.01058346238
1349.000000,0.01290425622
1350.000000,0.01196478801
1351.000000,0.01239307285
1352.000000,0.01307412643
1353.000000,0.01040982733
1354.000000,0.01028708621
1355.000000,0.01070739741
1356.000000,0.008831775134
1357.000000,0.0110635368
1358.000000,0.01207109118
1359.000000,0.01213725135
1360.000000,0.01204846433
1361.000000,0.01089767862
1362.000000,0.01329149278
1363.000000,0.007640593481
1364.000000,0.01097805184
1365.000000,0.01114449433
1366.000000,0.01362597387
1367.000000,0.01319459539
1368.000000,0.0135009063
1369.000000,0.01196318075
1370.000000,0.01386917791
1371.000000,0.01000164778
1372.000000,0.01219040242
1373.000000,0.007863925243
1374.000000,0.01555965216
1375.000000,0.0153633426
1376.000000,0.0110319535
1377.000000,0.0105837467
1378.000000,0.008138858351
1379.000000,0.009328819543
1380.000000,0.01269668758
1381.000000,0.01220203986
1382.000000,0.009632417762
1383.000000,0.01165407414
1384.000000,0.01139716349
1385.000000,0.01374320022
1386.000000,0.01430522977
1387.000000,0.01253152659
1388.000000,0.01328974832
1389.000000,0.01314189248
1390.000000,0.009071321175
1391.000000,0.01371090467
1392.000000,0.01333020166
1393.000000,0.01507306035
1394.000000,0.01001881402
1395.000000,0.01534554191
1396.000000,0.01267088995
1397.000000,0.01462174334
1398.000000,0.01665763948
1399.000000,0.01143849739
1400.000000,0.01193133137
1401.000000,0.01671849911
1402.000000,0.01263217019
1403.000000,0.01319123766
1404.000000,0.01652342845
1405.000000,0.0151339457
1406.000000,0.0173341648
1407.000000,0.01663038034
1408.000000,0.01624910818
1409.000000,0.01856005815
1410.000000,0.02127796928
1411.000000,0.01703449588
1412.000000,0.02055214347
1413.000000,0.02024579012
1414.000000,0.01861553642
1415.000000,0.01976059002
1416.000000,0.01745962001
1417.000000,0.01863283007
1418.000000,0.02099945654
1419.000000,0.02098137221
1420.000000,0.0243692551
1421.000000,0.01992444395
1422.000000,0.02277136289
1423.000000,0.02300223138
1424.000000,0.02499196171
1425.000000,0.028755353
1426.000000,0.02527257394
1427.000000,0.03079531603
1428.000000,0.0294949133
1429.000000,0.03180775224
1430.000000,0.03646930326
1431.000000,0.0361951822
1432.000000,0.04071199401
1433.000000,0.04260487117
1434.000000,0.0454881639
1435.000000,0.04911934639
1436.000000,0.05104089062
1437.000000,0.05846849008
1438.000000,0.06670934388
1439.000000,0.07434583495
1440.000000,0.07990332106
1441.000000,0.09547591839
1442.000000,0.1071015173
1443.000000,0.1179605467
1444.000000,0.1353110524
1445.000000,0.1572746816
1446.000000,0.1729190344
1447.000000,0.1949792115
1448.000000,0.2139028693
1449.000000,0.2259702759
1450.000000,0.2305210602
1451.000000,0.227028566
1452.000000,0.2124562473
1453.000000,0.1955563465
1454.000000,0.1806355129
1455.000000,0.1535614059
1456.000000,0.1366282913
1457.000000,0.120938281
1458.000000,0.1048326841
1459.000000,0.09610995335
1460.000000,0.08324933173
1461.000000,0.07569676356
1462.000000,0.06140265209
1463.000000,0.0626223306
1464.000000,0.05710865291
1465.000000,0.04865334024
1466.000000,0.04879747555
1467.000000,0.04327924775
1468.000000,0.04162820539
1469.000000,0.04080706588
1470.000000,0.03511433702
1471.000000,0.03089369122
1472.000000,0.03114145661
1473.000000,0.02705311192
1474.000000,0.02661732611
1475.000000,0.02545809829
1476.000000,0.02445766421
1477.000000,0.02722244067
1478.000000,0.0256676039
1479.000000,0.0213908442
1480.000000,0.02471919759
1481.000000,0.01842905767
1482.000000,0.01987257784
1483.000000,0.0203581257
1484.000000,0.02251399704
1485.000000,0.02113098336
1486.000000,0.02016497504
1487.000000,0.0214764509
1488.000000,0.01994792228
1489.000000,0.02092200725
1490.000000,0.01631223381
1491.000000,0.01422595531
1492.000000,0.0165174119
1493.000000,0.01877910495
1494.000000,0.01741924616
1495.000000,0.01847698669
1496.000000,0.01793271327
1497.000000,0.01737073439
1498.000000,0.01781760215
1499.000000,0.01459967856
1500.000000,0.01808534117
1501.000000,0.01375903102
1502.000000,0.01542945422
1503.000000,0.01272070105
1504.000000,0.01646967526
1505.000000,0.01226320063
1506.000000,0.01810497504
1507.000000,0.01252783888
1508.000000,0.01567446693
1509.000000,0.01481856465
1510.000000,0.01329281554
1511.000000,0.01750651933
1512.000000,0.01411033885
1513.000000,0.01787320372
1514.000000,0.01285900856
1515.000000,0.01328825809
1516.000000,0.01087800638
1517.000000,0.01598236271
1518.000000,0.01671001815
1519.000000,0.01532912701
1520.000000,0.01456607716
1521.000000,0.01306223682
1522.000000,0.019634726
1523.000000,0.01644454673
1524.000000,0.01129847292
1525.000000,0.01441037591
1526.000000,0.009853643014
1527.000000,0.01829321152
1528.000000,0.01915105575
1529.000000,0.01818619631
1530.000000,0.0152243632
1531.000000,0.01422712856
1532.000000,0.01269080408
1533.000000,0.01666550892
1534.000000,0.01421134263
1535.000000,0.01506636468
1536.000000,0.01466254471
1537.000000,0.01545986644
1538.000000,0.01802299057
1539.000000,0.01976642737
1540.000000,0.01685396949
1541.000000,0.01677372292
1542.000000,0.01470038602
1543.000000,0.01468036474
1544.000000,0.01524226598
1545.000000,0.01939678646
1546.000000,0.01838728124
1547.000000,0.02012311498
1548.000000,0.01934535296
1549.000000,0.01802873242
1550.000000,0.01671028137
1551.000000,0.01886610473
1552.000000,0.01717465088
1553.000000,0.0245363275
1554.000000,0.0215807954
1555.000000,0.02087324074
1556.000000,0.02624313201
1557.000000,0.02215840577
1558.000000,0.02481269441
1559.000000,0.02421260015
1560.000000,0.02620405654
1561.000000,0.02579983453
1562.000000,0.02871625335
1563.000000,0.03192893736
1564.000000,0.02803476558
1565.000000,0.02782952423
1566.000000,0.03700397086
1567.000000,0.03691042763
1568.000000,0.04099623647
1569.000000,0.04177798724
1570.000000,0.04917100211
1571.000000,0.0541466132
1572.000000,0.05343932394
1573.000000,0.06364035844
1574.000000,0.0690350874
1575.000000,0.07692704763
1576.000000,0.09196153102
1577.000000,0.1092439289
1578.000000,0.1246327274
1579.000000,0.1481830349
1580.000000,0.1800001136
1581.000000,0.2047824406
1582.000000,0.2275496323
1583.000000,0.2345744822
1584.000000,0.2307184532
1585.000000,0.2157245968
1586.000000,0.1944344395
1587.000000,0.173917886
1588.000000,0.1605034909
1589.000000,0.1464058217
1590.000000,0.1369390607
1591.000000,0.1372733968
1592.000000,0.143007412
1593.000000,0.1552728132
1594.000000,0.1672675431
1595.000000,0.1918066372
1596.000000,0.226871763
1597.000000,0.2735169048
1598.000000,0.3386912438
1599.000000,0.4244619209
1600.000000,0.5242646479
1601.000000,0.6091550134
1602.000000,0.642683338
1603.000000,0.6064093132
1604.000000,0.5144276892
1605.000000,0.4189241136
1606.000000,0.3307974829
1607.000000,0.2611417015
1608.000000,0.2054246208
1609.000000,0.1741128625
1610.000000,0.1349648228
1611.000000,0.1166706197
1612.000000,0.09966582958
1613.000000,0.0894487054
1614.000000,0.07426431651
1615.000000,0.06908222912
1616.000000,0.06118488285
1617.000000,0.05501462125
1618.000000,0.05240375957
1619.000000,0.04938819266
1620.000000,0.04376117802
1621.000000,0.03935184722
1622.000000,0.03265824204
1623.000000,0.03794151189
1624.000000,0.0323427093
1625.000000,0.02742656537
1626.000000,0.02992154072
1627.000000,0.03112751879
1628.000000,0.02665727175
1629.000000,0.02345252488
1630.000000,0.02936584559
1631.000000,0.02512859421
1632.000000,0.02375306343
1633.000000,0.02435402979
1634.000000,0.0172140988
1635.000000,0.02082971684
1636.000000,0.02005514397
1637.000000,0.02444047596
1638.000000,0.01821752304
1639.000000,0.01778317764
1640.000000,0.01566296274
1641.000000,0.01641995026
1642.000000,0.01730221108
1643.000000,0.01790898833
1644.000000,0.01665656293
1645.000000,0.02082142034
1646.000000,0.01747830918
1647.000000,0.01751249476
1648.000000,0.01874419012
1649.000000,0.01702525291
1650.000000,0.01446600943
1651.000000,0.01218585327
1652.000000,0.01584957462
1653.000000,0.01325770086
1654.000000,0.01743575578
1655.000000,0.01304503459
1656.000000,0.009928539179
1657.000000,0.01437999558
1658.000000,0.01632910775
1659.000000,0.01359993245
1660.000000,0.01426199121
1661.000000,0.01408289756
1662.000000,0.01714686129
1663.000000,0.01415340131
1664.000000,0.01335163213
1665.000000,0.0120830161
1666.000000,0.009903240229
1667.000000,0.01599861348
1668.000000,0.01538309306
1669.000000,0.011031232
1670.000000,0.01412002995
1671.000000,0.01346825502
1672.000000,0.01195600539
1673.000000,0.01202064428
1674.000000,0.01411654861
1675.000000,0.01007168388
1676.000000,0.01139648718
1677.000000,0.01223512138
1678.000000,0.01231729958
1679.000000,0.01184699749
1680.000000,0.01266151645
1681.000000,0.01324336282
1682.000000,0.01029942849
1683.000000,0.01223657983
1684.000000,0.01094434475
1685.000000,0.01503101747
1686.000000,0.009069641354
1687.000000,0.01140459769
1688.000000,0.01325895342
1689.000000,0.01122114898
1690.000000,0.01108477822
1691.000000,0.01063053602
1692.000000,0.01232431614
1693.000000,0.009291896503
1694.000000,0.01145621433
1695.000000,0.01138409477
1696.000000,0.008588809264
1697.000000,0.01208607442
1698.000000,0.0105579586
1699.000000,0.01210354377
1700.000000,0.01319713774
1701.000000,0.01212322379
1702.000000,0.009005209339
1703.000000,0.01203143021
1704.000000,0.008110298029
1705.000000,0.009779434391
1706.000000,0.01469874069
1707.000000,0.01130130466
1708.000000,0.0144297505
1709.000000,0.01088355011
1710.000000,0.0112506818
1711.000000,0.008949736751
1712.000000,0.01310496348
1713.000000,0.01077337716
1714.000000,0.01242755502
1715.000000,0.01202791165
1716.000000,0.01221379355
1717.000000,0.0117784898
1718.000000,0.01102615678
1719.000000,0.01108869598
1720.000000,0.009674762891
1721.000000,0.006757320065
1722.000000,0.01204379743
1723.000000,0.01525986679
1724.000000,0.01322119145
1725.000000,0.01575639832
1726.000000,0.0119994111
1727.000000,0.009061018804
1728.000000,0.009003235228
1729.000000,0.01250286355
1730.000000,0.01167652282
1731.000000,0.01064110552
1732.000000,0.01246922661
1733.000000,0.009185506707
1734.000000,0.01200796645
1735.000000,0.01037039796
1736.000000,0.01124982818
1737.000000,0.01332598049
1738.000000,0.01063319049
1739.000000,0.01369127877
1740.000000,0.01358697465
1741.000000,0.009352731364
1742.000000,0.01558702291
1743.000000,0.008365095916
1744.000000,0.01066399
1745.000000,0.01235032538
1746.000000,0.006231790672
1747.000000,0.01293414544
1748.000000,0.01313985925
1749.000000,0.01059937893
1750.000000,0.01137107082
1751.000000,0.01124814667
1752.000000,0.01038065505
1753.000000,0.01296705861
1754.000000,0.01003279308
1755.000000,0.01069044128
1756.000000,0.01151226594
1757.000000,0.01248641561
1758.000000,0.01299032384
1759.000000,0.007750944518
1760.000000,0.006619994515
1761.000000,0.01045247614
1762.000000,0.01061356221
1763.000000,0.008521410415
1764.000000,0.01132707239
1765.000000,0.0119763731
1766.000000,0.01146785403
1767.000000,0.01403112694
1768.000000,0.008577957211
1769.000000,0.01071798521
1770.000000,0.01457670229
1771.000000,0.01203481227
1772.000000,0.008384122962
1773.000000,0.01105350463
1774.000000,0.01302917239
1775.000000,0.01485542547
1776.000000,0.01196816414
1777.000000,0.01298545556
1778.000000,0.008357128939
1779.000000,0.01009930284
1780.000000,0.01302065961
1781.000000,0.008643254687
1782.000000,0.01045841584
1783.000000,0.006787704581
1784.000000,0.01357331641
1785.000000,0.01029844725
1786.000000,0.01170760071
1787.000000,0.007502869531
1788.000000,0.007882716075
1789.000000,0.01422543818
1790.000000,0.009841384061
1791.000000,0.009427302525
1792.000000,0.01156427815
1793.000000,0.01164636354
1794.000000,0.006536153408
1795.000000,0.008532800887
1796.000000,0.01061078561
1797.000000,0.01051417327
1798.000000,0.01121221745
1799.000000,0.009623680325
1800.000000,0.009922172253
1801.000000,0.01092287778
1802.000000,0.009084384691
1803.000000,0.00878411593
1804.000000,0.009360923465
1805.000000,0.01048177674
1806.000000,0.01016072998
1807.000000,0.009489709164
1808.000000,0.009946175342
1809.000000,0.01035025796
1810.000000,0.0110954162
1811.000000,0.01117582519
1812.000000,0.007828295177
1813.000000,0.0124049715
1814.000000,0.007185273544
1815.000000,0.01153005122
1816.000000,0.008988062148
1817.000000,0.01158781308
1818.000000,0.01255500563
1819.000000,0.006597305805
1820.000000,0.01161739902
1821.000000,0.01094833177
1822.000000,0.009451965671
1823.000000,0.01116339675
1824.000000,0.009381390611
1825.000000,0.01061806256
1826.000000,0.008251225415
1827.000000,0.01195508441
1828.000000,0.01155768083
1829.000000,0.01186359251
1830.000000,0.009038228708
1831.000000,0.01406926025
1832.000000,0.01434288024
1833.000000,0.0101745351
1834.000000,0.009506688426
1835.000000,0.009521756327
1836.000000,0.011728373
1837.000000,0.0124141703
1838.000000,0.008830437265
1839.000000,0.006243765129
1840.000000,0.01124798591
1841.000000,0.01024553027
1842.000000,0.01067122776
1843.000000,0.01136478993
1844.000000,0.008076435719
1845.000000,0.01044458994
1846.000000,0.009709500851
1847.000000,0.01106474248
1848.000000,0.01276222072
1849.000000,0.01029960001
1850.000000,0.008563363827
1851.000000,0.01279911398
1852.000000,0.01171173391
1853.000000,0.009866545485
1854.000000,0.00663597105
1855.000000,0.008499676593
1856.000000,0.01054952605
1857.000000,0.0113591451
1858.000000,0.00918580815
1859.000000,0.01112366199
1860.000000,0.008961498667
1861.000000,0.009383546889
1862.000000,0.01130416171
1863.000000,0.009682049614
1864.000000,0.01050525417
1865.000000,0.01198253553
1866.000000,0.01249107705
1867.000000,0.009026051264
1868.000000,0.009699876304
1869.000000,0.007538437857
1870.000000,0.007575251939
1871.000000,0.01079718586
1872.000000,0.009145841031
1873.000000,0.006460753317
1874.000000,0.01125124425
1875.000000,0.008495345039
1876.000000,0.009551561527
1877.000000,0.01101615512
1878.000000,0.01097428818
1879.000000,0.01005787752
1880.000000,0.006168177858
1881.000000,0.01130480977
1882.000000,0.008972138494
1883.000000,0.007319786409
1884.000000,0.005730081797
1885.000000,0.01281272823
1886.000000,0.01044541357
1887.000000,0.01038415607
1888.000000,0.01138136601
1889.000000,0.010000148
1890.000000,0.007190950635
1891.000000,0.01151909659
1892.000000,0.01216361691
1893.000000,0.01119132135
1894.000000,0.0132380364
1895.000000,0.01397557556
1896.000000,0.008553364327
1897.000000,0.009262189857
1898.000000,0.01192971665
1899.000000,0.01050540155
1900.000000,0.01057404856
1901.000000,0.01202394179
1902.000000,0.01163393863
1903.000000,0.009264112205
1904.000000,0.01039902237
1905.000000,0.008722235305
1906.000000,0.009756825864
1907.000000,0.007920632115
1908.000000,0.006211607249
1909.000000,0.009150952348
1910.000000,0.008961830199
1911.000000,0.01193641886
1912.000000,0.01329799719
1913.000000,0.010197979
1914.000000,0.01109247554
1915.000000,0.008875475391
1916.000000,0.008293880546
1917.000000,0.009578575957
1918.000000,0.009577662514
1919.000000,0.01074188268
1920.000000,0.01037656463
1921.000000,0.01346905959
1922.000000,0.009718497795
1923.000000,0.006849820233
1924.000000,0.01039357313
1925.000000,0.008832608678
1926.000000,0.01056116583
1927.000000,0.01240281715
1928.000000,0.008867556374
1929.000000,0.01000066059
1930.000000,0.0111864672
1931.000000,0.008260430199
1932.000000,0.0105840007
1933.000000,0.01124295016
1934.000000,0.01177783177
1935.000000,0.01234731606
1936.000000,0.01126259086
1937.000000,0.01093685754
1938.000000,0.007372836475
1939.000000,0.004797511527
1940.000000,0.008226224982
1941.000000,0.01299938008
1942.000000,0.0103895376
1943.000000,0.005650968145
1944.000000,0.009313773127
1945.000000,0.01087906222
1946.000000,0.006457156954
1947.000000,0.01130277133
1948.000000,0.007865972351
1949.000000,0.01223982558
1950.000000,0.01021929105
1951.000000,0.01634756917
1952.000000,0.007499394727
1953.000000,0.01072635692
1954.000000,0.00721417043
1955.000000,0.012459296
1956.000000,0.01041389243
1957.000000,0.01200627015
1958.000000,0.01037139622
1959.000000,0.007826144203
1960.000000,0.008865115187
1961.000000,0.007695737172
1962.000000,0.008077517189
1963.000000,0.01045622551
1964.000000,0.01230491366
1965.000000,0.01188083961
1966.000000,0.01119269284
1967.000000,0.009039044126
1968.000000,0.01118378875
1969.000000,0.008457315984
1970.000000,0.01057530226
1971.000000,0.01183571959
1972.000000,0.009790085813
1973.000000,0.009224792932
1974.000000,0.009298236197
1975.000000,0.01138508556
1976.000000,0.009541578322
1977.000000,0.00732268797
1978.000000,0.009332076434
1979.000000,0.008034726214
1980.000000,0.01314930282
1981.000000,0.01018084413
1982.000000,0.007219445298
1983.000000,0.01068450076
1984.000000,0.01158874631
1985.000000,0.01090994154
1986.000000,0.009434812682
1987.000000,0.01044945314
1988.000000,0.01070786688
1989.000000,0.01215114664
1990.000000,0.01087601866
1991.000000,0.01467039221
1992.000000,0.009721652022
1993.000000,0.01319635103
1994.000000,0.01018509573
1995.000000,0.006751270129
1996.000000,0.007809966702
1997.000000,0.006524078895
1998.000000,0.006722968607
1999.000000,0.01254197249
2000.000000,0.008834865368
