raman_shift_cm-1,intensity
200.000000,0.01415505648
201.000000,0.004962109426
202.000000,0.01090985961
203.000000,0.008938346308
204.000000,0.009168811732
205.000000,0.009643141984
206.000000,0.006034591255
207.000000,0.00961092718
208.000000,0.008344595432
209.000000,0.01672125151
210.000000,0.01052705783
211.000000,0.009370456413
212.000000,0.009513377828
213.000000,0.008740095912
214.000000,0.007966124732
215.000000,0.00929506241
216.000000,0.01104079498
217.000000,0.009600038153
218.000000,0.01199290527
219.000000,0.009678027438
220.000000,0.01012639602
221.000000,0.01316976515
222.000000,0.01116858242
223.000000,0.009068163229
224.000000,0.009713193473
225.000000,0.01116017382
226.000000,0.01394955318
227.000000,0.009540391457
228.000000,0.009592771197
229.000000,0.01208477366
230.000000,0.00830748595
231.000000,0.009497226235
232.000000,0.011846007
233.000000,0.01124189297
234.000000,0.01026449174
235.000000,0.01142193398
236.000000,0.004425669145
237.000000,0.01212487745
238.000000,0.008163245924
239.000000,0.006745568982
240.000000,0.01063597502
241.000000,0.01148444972
242.000000,0.009194103126
243.000000,0.007931106094
244.000000,0.01013644884
245.000000,0.009978987641
246.000000,0.01289596336
247.000000,0.01157986949
248.000000,0.01047297302
249.000000,0.01230889809
250.000000,0.009674877289
251.000000,0.008234417723
252.000000,0.01125462876
253.000000,0.01125188605
254.000000,0.009657450293
255.000000,0.008521791696
256.000000,0.01054601926
257.000000,0.005100227355
258.000000,0.01146857181
259.000000,0.01107136706
260.000000,0.00681122644
261.000000,0.01021195989
262.000000,0.008161367638
263.000000,0.01160432514
264.000000,0.006021866583
265.000000,0.008261532155
266.000000,0.01151000335
267.000000,0.01240396967
268.000000,0.005775483089
269.000000,0.009095742536
270.000000,0.01074819291
271.000000,0.00887405308
272.000000,0.01327410061
273.000000,0.007710703764
274.000000,0.0108025602
275.000000,0.007997026675
276.000000,0.01290610725
277.000000,0.01005122483
278.000000,0.009350374369
279.000000,0.006658856125
280.000000,0.01345922998
281.000000,0.0116014913
282.000000,0.0116034194
283.000000,0.01237241427
284.000000,0.01079546736
285.000000,0.008818885902
286.000000,0.008497264068
287.000000,0.008497716473
288.000000,0.01283863356
289.000000,0.007178101481
290.000000,0.008906502456
291.000000,0.009457133852
292.000000,0.0105492426
293.000000,0.01125108885
294.000000,0.007602584276
295.000000,0.006641142343
296.000000,0.01009273449
297.000000,0.0125290871
298.000000,0.01161647488
299.000000,0.01053406248
300.000000,0.009468854656
301.000000,0.01069004128
302.000000,0.009617314592
303.000000,0.01173881177
304.000000,0.00851592079
305.000000,0.01037371525
306.000000,0.009884098047
307.000000,0.01119280316
308.000000,0.01055579064
309.000000,0.01520701524
310.000000,0.01310469107
311.000000,0.01310129472
312.000000,0.006029254822
313.000000,0.00942807468
314.000000,0.008891935486
315.000000,0.0111750521
316.000000,0.00555201154
317.000000,0.01245952097
318.000000,0.01224495283
319.000000,0.007507310651
320.000000,0.008154825061
321.000000,0.008510051486
322.000000,0.01019946438
323.000000,0.0113952955
324.000000,0.01420961003
325.000000,0.009719435432
326.000000,0.01164982364
327.000000,0.01042615027
328.000000,0.01363566729
329.000000,0.01160063452
330.000000,0.01285392782
331.000000,0.007961988754
332.000000,0.009733374069
333.000000,0.008490831203
334.000000,0.01312879566
335.000000,0.01143470976
336.000000,0.009509674548
337.000000,0.009215565484
338.000000,0.01109037334
339.000000,0.008718599356
340.000000,0.008260964076
341.000000,0.01108524686
342.000000,0.01504952267
343.000000,0.009631556984
344.000000,0.009012662828
345.000000,0.007782655892
346.000000,0.007455527752
347.000000,0.01117610124
348.000000,0.01182833101
349.000000,0.01014566969
350.000000,0.01079307273
351.000000,0.01036035968
352.000000,0.01040644733
353.000000,0.007077436051
354.000000,0.00921413961
355.000000,0.01035396232
356.000000,0.008565303331
357.000000,0.009179416294
358.000000,0.008494680093
359.000000,0.009466577639
360.000000,0.01184044401
361.000000,0.009321729265
362.000000,0.009827817216
363.000000,0.0117636701
364.000000,0.01142645489
365.000000,0.01352801703
366.000000,0.005957325665
367.000000,0.01185271417
368.000000,0.009175135205
369.000000,0.01040980085
370.000000,0.01181657666
371.000000,0.0123083718
372.000000,0.01222130151
373.000000,0.01045355528
374.000000,0.01336341628
375.000000,0.009578898815
376.000000,0.009863647257
377.000000,0.01174508484
378.000000,0.009044416704
379.000000,0.01446976089
380.000000,0.01218715626
381.000000,0.01450069657
382.000000,0.0100971785
383.000000,0.009384998993
384.000000,0.01048609972
385.000000,0.01162199289
386.000000,0.008978829333
387.000000,0.01091394183
388.000000,0.01012179234
389.000000,0.01338763607
390.000000,0.008831749793
391.000000,0.0122503672
392.000000,0.008871216345
393.000000,0.008238584461
394.000000,0.008740173251
395.000000,0.00778132963
396.000000,0.01045534147
397.000000,0.01222611206
398.000000,0.01049318042
399.000000,0.01141417175
400.000000,0.01343085162
401.000000,0.01070754884
402.000000,0.01055882459
403.000000,0.009619392244
404.000000,0.006954057512
405.000000,0.01169105863
406.000000,0.006659710549
407.000000,0.01147904719
408.000000,0.01014612892
409.000000,0.01242942039
410.000000,0.01004141771
411.000000,0.008531671725
412.000000,0.01089501969
413.000000,0.00905986754
414.000000,0.009819580599
415.000000,0.01026640429
416.000000,0.009914746047
417.000000,0.009807438221
418.000000,0.008521364907
419.000000,0.009809214514
420.000000,0.005912043432
421.000000,0.009875318673
422.000000,0.007795145054
423.000000,0.01243307482
424.000000,0.01273370789
425.000000,0.006293126673
426.000000,0.01048635284
427.000000,0.009945149975
428.000000,0.008105822983
429.000000,0.01126395517
430.000000,0.009278683006
431.000000,0.006668296058
432.000000,0.009671592418
433.000000,0.009909910661
434.000000,0.01042077021
435.000000,0.007746953962
436.000000,0.01144231452
437.000000,0.01168342091
438.000000,0.00792242804
439.000000,0.008897969562
440.000000,0.01005662689
441.000000,0.009087094869
442.000000,0.01370812243
443.000000,0.01063904931
444.000000,0.008202857568
445.000000,0.008649545585
446.000000,0.0101125905
447.000000,0.01482088256
448.000000,0.009874617136
449.000000,0.01048794697
450.000000,0.01126296137
451.000000,0.01015652399
452.000000,0.01480003225
453.000000,0.009177625332
454.000000,0.01173107696
455.000000,0.01056557359
456.000000,0.01148914954
457.000000,0.007895562967
458.000000,0.01378720008
459.000000,0.01001008
460.000000,0.0103236572
461.000000,0.008387610001
462.000000,0.00880044089
463.000000,0.01139061715
464.000000,0.0122374838
465.000000,0.011773379
466.000000,0.01268723653
467.000000,0.01170074213
468.000000,0.01033119915
469.000000,0.01194988262
470.000000,0.01146663741
471.000000,0.01008092696
472.000000,0.01173691696
473.000000,0.01285890906
474.000000,0.01075944966
475.000000,0.009580740885
476.000000,0.01173347058
477.000000,0.01410044217
478.000000,0.009880881043
479.000000,0.01012044941
480.000000,0.01003539578
481.000000,0.01275740814
482.000000,0.006640221257
483.000000,0.01104961668
484.000000,0.01270582747
485.000000,0.008697974409
486.000000,0.01330620602
487.000000,0.01140245105
488.000000,0.009237416482
489.000000,0.01074749887
490.000000,0.007274043794
491.000000,0.009215774994
492.000000,0.01400469639
493.000000,0.008567337532
494.000000,0.01404823378
495.000000,0.01020017836
496.000000,0.0123569799
497.000000,0.01045987311
498.000000,0.005893640318
499.000000,0.009235927724
500.000000,0.01076567041
501.000000,0.00808890608
502.000000,0.00770093933
503.000000,0.01113320459
504.000000,0.00910719569
505.000000,0.007019688873
506.000000,0.009048559691
507.000000,0.01214384547
508.000000,0.009480596703
509.000000,0.01230349561
510.000000,0.0134945058
511.000000,0.01051115442
512.000000,0.008193079358
513.000000,0.007855803206
514.000000,0.01041308407
515.000000,0.01223453892
516.000000,0.01101747814
517.000000,0.01158117291
518.000000,0.009607384512
519.000000,0.01110252937
520.000000,0.009566896427
521.000000,0.009866347119
522.000000,0.007941358754
523.000000,0.007389951699
524.000000,0.00957924142
525.000000,0.008336994768
526.000000,0.008644013157
527.000000,0.01191319473
528.000000,0.01036682942
529.000000,0.01641944359
530.000000,0.01245439916
531.000000,0.009346199959
532.000000,0.01217980216
533.000000,0.01134897563
534.000000,0.009275971112
535.000000,0.01286489156
536.000000,0.009121834698
537.000000,0.004568961738
538.000000,0.01228754948
539.000000,0.009479083487
540.000000,0.01370036859
541.000000,0.009444176767
542.000000,0.00839660319
543.000000,0.01387261743
544.000000,0.00864170266
545.000000,0.01121714764
546.000000,0.0137281665
547.000000,0.0110767871
548.000000,0.01070647152
549.000000,0.01109314876
550.000000,0.01258792737
551.000000,0.009318620946
552.000000,0.01217691247
553.000000,0.01213418345
554.000000,0.01567093698
555.000000,0.01035908628
556.000000,0.009230317182
557.000000,0.01256048234
558.000000,0.01032529985
559.000000,0.01172981702
560.000000,0.01145026938
561.000000,0.01355710246
562.000000,0.009943618575
563.000000,0.01111161856
564.000000,0.006232876727
565.000000,0.00959998651
566.000000,0.01449835318
567.000000,0.01011065018
568.000000,0.01012141311
569.000000,0.009142187276
570.000000,0.01279446821
571.000000,0.0120509976
572.000000,0.009385203892
573.000000,0.01316177435
574.000000,0.01241938369
575.000000,0.0134842842
576.000000,0.01077547929
577.000000,0.0156223295
578.000000,0.01306010737
579.000000,0.0121074378
580.000000,0.01141184928
581.000000,0.01207637724
582.000000,0.01440919821
583.000000,0.01228929987
584.000000,0.01513027786
585.000000,0.01429449262
586.000000,0.01599911062
587.000000,0.01512278821
588.000000,0.01357454172
589.000000,0.01010716262
590.000000,0.01477054538
591.000000,0.01602424332
592.000000,0.01507319037
593.000000,0.01619433958
594.000000,0.01450995417
595.000000,0.01510743508
596.000000,0.01444927441
597.000000,0.01958241314
598.000000,0.01776909844
599.000000,0.01714269987
600.000000,0.01623643515
601.000000,0.01948228956
602.000000,0.02370328173
603.000000,0.02294176259
604.000000,0.02197844015
605.000000,0.02795588255
606.000000,0.02994863333
607.000000,0.03145954682
608.000000,0.03400882728
609.000000,0.03835770346
610.000000,0.04164115785
611.000000,0.04779451263
612.000000,0.05195029953
613.000000,0.06588251734
614.000000,0.07551217407
615.000000,0.09485253862
616.000000,0.1067206967
617.000000,0.1362815357
618.000000,0.1625294251
619.000000,0.1811026867
620.000000,0.191165972
621.000000,0.1832891183
622.000000,0.1617290933
623.000000,0.1338031446
624.000000,0.1105369825
625.000000,0.09286178432
626.000000,0.07762797479
627.000000,0.06310881369
628.000000,0.05369581876
629.000000,0.04668086175
630.000000,0.04266929296
631.000000,0.03398162195
632.000000,0.02982034973
633.000000,0.02979791499
634.000000,0.02493386386
635.000000,0.02398201615
636.000000,0.02366346886
637.000000,0.02305039368
638.000000,0.01874539069
639.000000,0.02146778189
640.000000,0.01543251235
641.000000,0.01930246415
642.000000,0.01438499039
643.000000,0.01440112026
644.000000,0.01771508999
645.000000,0.01515652798
646.000000,0.0139672396
647.000000,0.01430141669
648.000000,0.01579133142
649.000000,0.01445626016
650.000000,0.01423734053
651.000000,0.0161625755
652.000000,0.01239933822
653.000000,0.01268697287
654.000000,0.01240212625
655.000000,0.01561650194
656.000000,0.01510701802
657.000000,0.01555635194
658.000000,0.01278387928
659.000000,0.01241704763
660.000000,0.0143245949
661.000000,0.01172689288
662.000000,0.01408123285
663.000000,0.01377951657
664.000000,0.01085157736
665.000000,0.01200482654
666.000000,0.01186096162
667.000000,0.01549921176
668.000000,0.01714568259
669.000000,0.01171177997
670.000000,0.01188514597
671.000000,0.007242733367
672.000000,0.01218110263
673.000000,0.01169912821
674.000000,0.009525474522
675.000000,0.01320294075
676.000000,0.008463284447
677.000000,0.01113041818
678.000000,0.01180531823
679.000000,0.008999102811
680.000000,0.0131819795
681.000000,0.01355280428
682.000000,0.008643708631
683.000000,0.00857733719
684.000000,0.01257550726
685.000000,0.01128940037
686.000000,0.008908355096
687.000000,0.01072277039
688.000000,0.01108148842
689.000000,0.01099492222
690.000000,0.01292158556
691.000000,0.01202169655
692.000000,0.01477996074
693.000000,0.01397848983
694.000000,0.01257641948
695.000000,0.01336426911
696.000000,0.01384929439
697.000000,0.01260606945
698.000000,0.008735876408
699.000000,0.01290031191
700.000000,0.01132095619
701.000000,0.01440976691
702.000000,0.01135561352
703.000000,0.01221794463
704.000000,0.01182329855
705.000000,0.01452528523
706.000000,0.01151676488
707.000000,0.01062363294
708.000000,0.0117819532
709.000000,0.01028655405
710.000000,0.01149219582
711.000000,0.01115646939
712.000000,0.0117187095
713.000000,0.0150268456
714.000000,0.0103744812
715.000000,0.01126617668
716.000000,0.01080041134
717.000000,0.01255259488
718.000000,0.008853029865
719.000000,0.009840378221
720.000000,0.0111573896
721.000000,0.01234009512
722.000000,0.0111675948
723.000000,0.0102729008
724.000000,0.009554127221
725.000000,0.01232662609
726.000000,0.01420392804
727.000000,0.01198280803
728.000000,0.0117320185
729.000000,0.01226340456
730.000000,0.009511539782
731.000000,0.01079602336
732.000000,0.0109074574
733.000000,0.01205921313
734.000000,0.0114316697
735.000000,0.009091566083
736.000000,0.01380522305
737.000000,0.01497184048
738.000000,0.01109486388
739.000000,0.01245527699
740.000000,0.01223049659
741.000000,0.01330647165
742.000000,0.008821108189
743.000000,0.01505296513
744.000000,0.01094045401
745.000000,0.01445698609
746.000000,0.01214565626
747.000000,0.01126465602
748.000000,0.01182628473
749.000000,0.01396925665
750.000000,0.01052074114
751.000000,0.01157438715
752.000000,0.01144335017
753.000000,0.009065803204
754.000000,0.01519312534
755.000000,0.01385284457
756.000000,0.01276315744
757.000000,0.01525256324
758.000000,0.01114146423
759.000000,0.01304717326
760.000000,0.0167964583
761.000000,0.01546972822
762.000000,0.009238924982
763.000000,0.007221532109
764.000000,0.01202421234
765.000000,0.01645770303
766.000000,0.01364886382
767.000000,0.01444355166
768.000000,0.01641123764
769.000000,0.01377467621
770.000000,0.01636111032
771.000000,0.01795584104
772.000000,0.01779530008
773.000000,0.01820492997
774.000000,0.01683347833
775.000000,0.0197763626
776.000000,0.01870423204
777.000000,0.02310201778
778.000000,0.02670994103
779.000000,0.02134256289
780.000000,0.019938548
781.000000,0.02516171727
782.000000,0.02881099405
783.000000,0.03259762877
784.000000,0.03558643649
785.000000,0.0354023227
786.000000,0.03968363021
787.000000,0.0490367697
788.000000,0.05067169615
789.000000,0.06268542035
790.000000,0.06906906729
791.000000,0.08127158301
792.000000,0.09192195786
793.000000,0.1020646203
794.000000,0.1094512181
795.000000,0.108536103
796.000000,0.1084091077
797.000000,0.1005466821
798.000000,0.09113754856
799.000000,0.0822200803
800.000000,0.06899913991
801.000000,0.05910323803
802.000000,0.05142617273
803.000000,0.04591017753
804.000000,0.04280868659
805.000000,0.0353776813
806.000000,0.03578773576
807.000000,0.03112281627
808.000000,0.02765336776
809.000000,0.02340132569
810.000000,0.02483320071
811.000000,0.02426485436
812.000000,0.01810153165
813.000000,0.02294312552
814.000000,0.02292585224
815.000000,0.01949945165
816.000000,0.01909959346
817.000000,0.02232270263
818.000000,0.01941115169
819.000000,0.01466606105
820.000000,0.01599584072
821.000000,0.01532885298
822.000000,0.01499444566
823.000000,0.01025589179
824.000000,0.01621704925
825.000000,0.01317485874
826.000000,0.01454444225
827.000000,0.01373447472
828.000000,0.01555702988
829.000000,0.01304776161
830.000000,0.01188776645
831.000000,0.01439589061
832.000000,0.01600508779
833.000000,0.01243064601
834.000000,0.01569476786
835.000000,0.01337259042
836.000000,0.01168406433
837.000000,0.01570837446
838.000000,0.01093594632
839.000000,0.01452247682
840.000000,0.01142472792
841.000000,0.01325334375
842.000000,0.009821099001
843.000000,0.01055501814
844.000000,0.01430510637
845.000000,0.01249972835
846.000000,0.01215200015
847.000000,0.01115090099
848.000000,0.0128815458
849.000000,0.009154876264
850.000000,0.009672955842
851.000000,0.01156307213
852.000000,0.01017818072
853.000000,0.01041577002
854.000000,0.0116461639
855.000000,0.01148822264
856.000000,0.01129412241
857.000000,0.01504723556
858.000000,0.01371797283
859.000000,0.01413593322
860.000000,0.01160221349
861.000000,0.01063260297
862.000000,0.008718903948
863.000000,0.01091639602
864.000000,0.00742791187
865.000000,0.01042062599
866.000000,0.01310595995
867.000000,0.01481096157
868.000000,0.01349054067
869.000000,0.009828522848
870.000000,0.01253029618
871.000000,0.009960975098
872.000000,0.01318037603
873.000000,0.01130768778
874.000000,0.01324362582
875.000000,0.0166706454
876.000000,0.01336832627
877.000000,0.01618737909
878.000000,0.01187732868
879.000000,0.01086372372
880.000000,0.01419202183
881.000000,0.01497550898
882.000000,0.01041967003
883.000000,0.01168658012
884.000000,0.008668582177
885.000000,0.01114257846
886.000000,0.01332506473
887.000000,0.01138206021
888.000000,0.01042351846
889.000000,0.008755308127
890.000000,0.01231482858
891.000000,0.0131826385
892.000000,0.01279050677
893.000000,0.01211880158
894.000000,0.009071427953
895.000000,0.0151552965
896.000000,0.01153146879
897.000000,0.01136856361
898.000000,0.0131383935
899.000000,0.007361322303
900.000000,0.01157471209
901.000000,0.0114468289
902.000000,0.01248256347
903.000000,0.01445075285
904.000000,0.01272013707
905.000000,0.008131733847
906.000000,0.01113888533
907.000000,0.01225015071
908.000000,0.01215643834
909.000000,0.0093235924
910.000000,0.008583645042
911.000000,0.01303529129
912.000000,0.01265154683
913.000000,0.01195021989
914.000000,0.008571502878
915.000000,0.01560119566
916.000000,0.006284645475
917.000000,0.01139025615
918.000000,0.01633546404
919.000000,0.01187444906
920.000000,0.01269107017
921.000000,0.009907819226
922.000000,0.01502419629
923.000000,0.009764169213
924.000000,0.01290252459
925.000000,0.01270962416
926.000000,0.01038643443
927.000000,0.01431195178
928.000000,0.009758326415
929.000000,0.01127777121
930.000000,0.01264419809
931.000000,0.011935958
932.000000,0.0137585396
933.000000,0.01473577378
934.000000,0.01236777309
935.000000,0.01194312906
936.000000,0.01206610657
937.000000,0.01244633038
938.000000,0.01487793106
939.000000,0.01290846104
940.000000,0.01424803171
941.000000,0.01334395336
942.000000,0.01193550211
943.000000,0.01545501939
944.000000,0.01175995184
945.000000,0.01396255373
946.000000,0.01704439374
947.000000,0.01201081464
948.000000,0.01422029987
949.000000,0.01130224357
950.000000,0.01360214759
951.000000,0.01178962111
952.000000,0.01422283495
953.000000,0.01404670448
954.000000,0.01557546532
955.000000,0.01868019952
956.000000,0.0162905162
957.000000,0.01726785456
958.000000,0.0160923344
959.000000,0.01596361123
960.000000,0.0150618858
961.000000,0.01342537581
962.000000,0.01748362211
963.000000,0.0209482349
964.000000,0.0190130728
965.000000,0.01739277432
966.000000,0.02219296377
967.000000,0.01849923227
968.000000,0.01863843393
969.000000,0.01800871754
970.000000,0.01912021246
971.000000,0.02122083103
972.000000,0.02644785352
973.000000,0.02285011143
974.000000,0.02209957491
975.000000,0.02395260333
976.000000,0.02583503495
977.000000,0.02411008866
978.000000,0.02919829468
979.000000,0.03194467471
980.000000,0.03300494418
981.000000,0.03564978251
982.000000,0.03427368037
983.000000,0.0362486378
984.000000,0.04548740144
985.000000,0.04896822132
986.000000,0.04830751121
987.000000,0.05735835011
988.000000,0.06378077417
989.000000,0.07321489196
990.000000,0.08309296044
991.000000,0.09516372149
992.000000,0.1141556756
993.000000,0.1375459752
994.000000,0.169212885
995.000000,0.2106424732
996.000000,0.2732902686
997.000000,0.3732418758
998.000000,0.5118225707
999.000000,0.7081999671
1000.000000,0.917142784
1001.000000,1.016592423
1002.000000,0.9157192972
1003.000000,0.7093409036
1004.000000,0.519708683
1005.000000,0.3764532689
1006.000000,0.2850620811
1007.000000,0.2206018915
1008.000000,0.175644529
1009.000000,0.1470049324
1010.000000,0.1203641021
1011.000000,0.1073853207
1012.000000,0.09161130416
1013.000000,0.08304767392
1014.000000,0.07598136921
1015.000000,0.07443727383
1016.000000,0.06873453774
1017.000000,0.06924231968
1018.000000,0.06678738722
1019.000000,0.07256430376
1020.000000,0.07708865821
1021.000000,0.0787762757
1022.000000,0.08894882303
1023.000000,0.09734403116
1024.000000,0.1155629496
1025.000000,0.1327159676
1026.000000,0.1596795433
1027.000000,0.2087520623
1028.000000,0.2645727752
1029.000000,0.3364102843
1030.000000,0.4080995361
1031.000000,0.4371750577
1032.000000,0.4077764763
1033.000000,0.333722029
1034.000000,0.2638245884
1035.000000,0.2017253709
1036.000000,0.152645973
1037.000000,0.1210681552
1038.000000,0.09996122568
1039.000000,0.08038928481
1040.000000,0.07141294214
1041.000000,0.06192399372
1042.000000,0.05298002315
1043.000000,0.04750628306
1044.000000,0.04482971051
1045.000000,0.0427853167
1046.000000,0.03971805431
1047.000000,0.03410705179
1048.000000,0.03347904831
1049.000000,0.02835400133
1050.000000,0.02898918407
1051.000000,0.02480273412
1052.000000,0.02692190042
1053.000000,0.0218801127
1054.000000,0.02145008007
1055.000000,0.022496417
1056.000000,0.02285347086
1057.000000,0.01816991129
1058.000000,0.01934925483
1059.000000,0.02012954405
1060.000000,0.01980687855
1061.000000,0.01720714791
1062.000000,0.01865544127
1063.000000,0.01754045341
1064.000000,0.02052817286
1065.000000,0.01850879986
1066.000000,0.01444723158
1067.000000,0.01241607528
1068.000000,0.01676381664
1069.000000,0.01869221078
1070.000000,0.01645690437
1071.000000,0.01767080775
1072.000000,0.0147491017
1073.000000,0.01281570814
1074.000000,0.01687810561
1075.000000,0.01542749666
1076.000000,0.01645615626
1077.000000,0.01219457033
1078.000000,0.01519878299
1079.000000,0.01347110902
1080.000000,0.01622964608
1081.000000,0.01335689102
1082.000000,0.0132122805
1083.000000,0.01317105411
1084.000000,0.01679162683
1085.000000,0.01424958278
1086.000000,0.01260520974
1087.000000,0.01201882874
1088.000000,0.01191977263
1089.000000,0.01688233107
1090.000000,0.01028145898
1091.000000,0.01216895759
1092.000000,0.01510873187
1093.000000,0.01615773761
1094.000000,0.01347642599
1095.000000,0.01532063033
1096.000000,0.01524979593
1097.000000,0.01568822681
1098.000000,0.01379830433
1099.000000,0.01700938443
1100.000000,0.01413006764
1101.000000,0.01679704399
1102.000000,0.01154243764
1103.000000,0.01564126362
1104.000000,0.01126677236
1105.000000,0.01080743345
1106.000000,0.01483648576
1107.000000,0.01221823855
1108.000000,0.01480956032
1109.000000,0.01182079969
1110.000000,0.01723003326
1111.000000,0.0140966817
1112.000000,0.01188091585
1113.000000,0.01457191079
1114.000000,0.01606795617
1115.000000,0.01285392978
1116.000000,0.01552852122
1117.000000,0.01869926143
1118.000000,0.01646222779
1119.000000,0.01484063989
1120.000000,0.01386737977
1121.000000,0.01632377033
1122.000000,0.01231210471
1123.000000,0.009461564213
1124.000000,0.01442162196
1125.000000,0.01382811929
1126.000000,0.01974696037
1127.000000,0.01683021652
1128.000000,0.01490565985
1129.000000,0.01491357317
1130.000000,0.01864480546
1131.000000,0.01644022819
1132.000000,0.01744967891
1133.000000,0.01901223849
1134.000000,0.02003110865
1135.000000,0.02080185828
1136.000000,0.02170060481
1137.000000,0.02507097599
1138.000000,0.02702633953
1139.000000,0.02166783801
1140.000000,0.03171852904
1141.000000,0.02870962899
1142.000000,0.03319839915
1143.000000,0.03195955713
1144.000000,0.0374174552
1145.000000,0.04129590191
1146.000000,0.04618968132
1147.000000,0.05406121137
1148.000000,0.06168664975
1149.000000,0.06859554393
1150.000000,0.08310851698
1151.000000,0.1002940293
1152.000000,0.1179254587
1153.000000,0.1337823765
1154.000000,0.1479900252
1155.000000,0.1538189606
1156.000000,0.1467461748
1157.000000,0.1326920705
1158.000000,0.1209244026
1159.000000,0.09972113689
1160.000000,0.0856767354
1161.000000,0.07175369805
1162.000000,0.0662062893
1163.000000,0.05965082032
1164.000000,0.04998339264
1165.000000,0.04711091395
1166.000000,0.04133647255
1167.000000,0.04404563493
1168.000000,0.04080349299
1169.000000,0.03638996181
1170.000000,0.04032515913
1171.000000,0.03895291594
1172.000000,0.04015369404
1173.000000,0.0419213241
1174.000000,0.04269327367
1175.000000,0.04695875217
1176.000000,0.05479667355
1177.000000,0.0609211304
1178.000000,0.06906038233
1179.000000,0.08785236422
1180.000000,0.0989678971
1181.000000,0.1149999893
1182.000000,0.1285135339
1183.000000,0.1366156714
1184.000000,0.131247852
1185.000000,0.1153804334
1186.000000,0.09925892705
1187.000000,0.07826206128
1188.000000,0.06698459366
1189.000000,0.0561023498
1190.000000,0.04877535053
1191.000000,0.04333897365
1192.000000,0.03329641681
1193.000000,0.03970212742
1194.000000,0.02858791195
1195.000000,0.02848808697
1196.000000,0.02739248607
1197.000000,0.02573625853
1198.000000,0.02309242266
1199.000000,0.01558971085
1200.000000,0.01821406085
1201.000000,0.02102887157
1202.000000,0.0169086115
1203.000000,0.01597844033
1204.000000,0.01279888849
1205.000000,0.01943382691
1206.000000,0.01756340538
1207.000000,0.01435123752
1208.000000,0.01550827482
1209.000000,0.01524535511
1210.000000,0.01291780387
1211.000000,0.0143340795
1212.000000,0.01514688116
1213.000000,0.01552112193
1214.000000,0.01674477502
1215.000000,0.01408391011
1216.000000,0.01292938652
1217.000000,0.01450099375
1218.000000,0.01229018121
1219.000000,0.0109108821
1220.000000,0.01557546479
1221.000000,0.0124092951
1222.000000,0.01330503149
1223.000000,0.0142612325
1224.000000,0.01065229487
1225.000000,0.0140616632
1226.000000,0.01359720927
1227.000000,0.01242247768
1228.000000,0.01333480258
1229.000000,0.01096351565
1230.000000,0.008000851209
1231.000000,0.01178433236
1232.000000,0.01047037308
1233.000000,0.01397517314
1234.000000,0.0127152952
1235.000000,0.01107755389
1236.000000,0.01218565463
1237.000000,0.01475268126
1238.000000,0.01427489674
1239.000000,0.01270289027
1240.000000,0.01278840128
1241.000000,0.01133461864
1242.000000,0.01159550991
1243.000000,0.01300199262
1244.000000,0.01155322579
1245.000000,0.01236024446
1246.000000,0.009501867302
1247.000000,0.008368095167
1248.000000,0.008281604815
1249.000000,0.01077985775
1250.000000,0.01428747031
1251.000000,0.01397562352
1252.000000,0.00959210788
1253.000000,0.008452833688
1254.000000,0.01313262452
1255.000000,0.01245404145
1256.000000,0.008771596403
1257.000000,0.0136081046
1258.000000,0.01182506997
1259.000000,0.01410779852
1260.000000,0.01212984758
1261.000000,0.01321145016
1262.000000,0.01205956617
1263.000000,0.009497500532
1264.000000,0.01092451808
1265.000000,0.01002233288
1266.000000,0.01302749314
1267.000000,0.009362604474
1268.000000,0.008276922158
1269.000000,0.01269955534
1270.000000,0.01361841937
1271.000000,0.01420745902
1272.000000,0.0134927708
1273.000000,0.008282146623
1274.000000,0.009895999565
1275.000000,0.01018530877
1276.000000,0.01122946794
1277.000000,0.00695915352
1278.000000,0.01124199114
1279.000000,0.01180898985
1280.000000,0.009348007101
1281.000000,0.01148038666
1282.000000,0.01362259762
1283.000000,0.01132732087
1284.000000,0.01334507728
1285.000000,0.01325555286
1286.000000,0.01204468149
1287.000000,0.01198826849
1288.000000,0.01047478137
1289.000000,0.01369825585
1290.000000,0.01027180927
1291.000000,0.009817426957
1292.000000,0.01262269574
1293.000000,0.009757353993
1294.000000,0.01206069182
1295.000000,0.01332260295
1296.000000,0.01136973417
1297.000000,0.0114200057
1298.000000,0.01304664633
1299.000000,0.0127182858
1300.000000,0.008131613487
1301.000000,0.008592253837
1302.000000,0.01387876872
1303.000000,0.01199876313
1304.000000,0.007057996753
1305.000000,0.008526230872
1306.000000,0.01127720455
1307.000000,0.009270500825
1308.000000,0.01217318306
1309.000000,0.0113963819
1310.000000,0.0122253391
1311.000000,0.008912141956
1312.000000,0.01249623098
1313.000000,0.01517864214
1314.000000,0.009674969973
1315.000000,0.01389935308
1316.000000,0.01324124836
1317.000000,0.01257260193
1318.000000,0.01115937736
1319.000000,0.008973617592
1320.000000,0.009548957458
1321.000000,0.01284041018
1322.000000,0.01327855257
1323.000000,0.0137741646
1324.000000,0.01325773594
1325.000000,0.01315190357
1326.000000,0.010484912
1327.000000,0.008947514299
1328.000000,0.01178111371
1329.000000,0.01238335603
1330.000000,0.01156464474
1331.000000,0.008362823997
1332.000000,0.01037395286
1333.000000,0.008471571711
1334.000000,0.01172924749
1335.000000,0.009349628006
1336.000000,0.01112887512
1337.000000,0.01212130309
1338.000000,0.01176439925
1339.000000,0.01424130001
1340.000000,0.009309016557
1341.000000,0.007167231929
1342.000000,0.01344055527
1343.000000,0.01437176699
1344.000000,0.01444879529
1345.000000,0.01217200365
1346.000000,0.01269955673
1347.000000,0.0118855662
1348.000000,0.009069850318
1349.000000,0.01053802544
1350.000000,0.01269444442
1351.000000,0.01056839032
1352.000000,0.01556009437
1353.000000,0.008686080585
1354.000000,0.01092367834
1355.000000,0.0140363365
1356.000000,0.0106255902
1357.000000,0.009601934549
1358.000000,0.009175173882
1359.000000,0.01046777027
1360.000000,0.0149706511
1361.000000,0.01279845045
1362.000000,0.01304469639
1363.000000,0.01100538787
1364.000000,0.01376596793
1365.000000,0.01232571227
1366.000000,0.01030578954
1367.000000,0.01128043692
1368.000000,0.01262866015
1369.000000,0.01460508399
1370.000000,0.01218875525
1371.000000,0.01334822839
1372.000000,0.016432276
1373.000000,0.01084208943
1374.000000,0.0100065367
1375.000000,0.0145048401
1376.000000,0.01346726634
1377.000000,0.01244883284
1378.000000,0.013230148
1379.000000,0.01210216479
1380.000000,0.01385493722
1381.000000,0.01221575247
1382.000000,0.01455446827
1383.000000,0.01068355591
1384.000000,0.01146483912
1385.000000,0.0134076559
1386.000000,0.01231552483
1387.000000,0.01473053624
1388.000000,0.01334316886
1389.000000,0.01243543376
1390.000000,0.0140366841
1391.000000,0.01266325372
1392.000000,0.01071112422
1393.000000,0.01166696707
1394.000000,0.01245469011
1395.000000,0.01324306418
1396.000000,0.01451060682
1397.000000,0.01627676638
1398.000000,0.01570568955
1399.000000,0.0183188663
1400.000000,0.0174735032
1401.000000,0.01472165981
1402.000000,0.01858603368
1403.000000,0.01784275114
1404.000000,0.01478277839
1405.000000,0.01653452617
1406.000000,0.01833745326
1407.000000,0.01688495578
1408.000000,0.01870404482
1409.000000,0.01775163648
1410.000000,0.01867771591
1411.000000,0.01696709543
1412.000000,0.0187196571
1413.000000,0.01761996077
1414.000000,0.02011622634
1415.000000,0.01583737856
1416.000000,0.0203734122
1417.000000,0.0227353166
1418.000000,0.02197351907
1419.000000,0.02139279695
1420.000000,0.02321221066
1421.000000,0.02120049417
1422.000000,0.02206214808
1423.000000,0.02392692542
1424.000000,0.02536669131
1425.000000,0.02872437298
1426.000000,0.02626295401
1427.000000,0.03146016827
1428.000000,0.02789283365
1429.000000,0.03124467049
1430.000000,0.03475937378
1431.000000,0.03943773125
1432.000000,0.03850875474
1433.000000,0.03844744713
1434.000000,0.04703127516
1435.000000,0.05013809367
1436.000000,0.05269507726
1437.000000,0.05822768061
1438.000000,0.06533605015
1439.000000,0.07448737088
1440.000000,0.08456195184
1441.000000,0.09085938266
1442.000000,0.1108761095
1443.000000,0.1208317709
1444.000000,0.1369926782
1445.000000,0.1579439002
1446.000000,0.176994181
1447.000000,0.2014728966
1448.000000,0.2165349285
1449.000000,0.2258178132
1450.000000,0.2301822653
1451.000000,0.2255761942
1452.000000,0.2136941252
1453.000000,0.1981980701
1454.000000,0.1755541436
1455.000000,0.1599112525
1456.000000,0.1376789966
1457.000000,0.1207383135
1458.000000,0.1083361303
1459.000000,0.09001524543
1460.000000,0.08153885624
1461.000000,0.07568245408
1462.000000,0.06696234169
1463.000000,0.06052177511
1464.000000,0.0559024431
1465.000000,0.04926206143
1466.000000,0.04613650671
1467.000000,0.04031836209
1468.000000,0.03631079063
1469.000000,0.03999649598
1470.000000,0.0333315168
1471.000000,0.03177053714
1472.000000,0.03423570561
1473.000000,0.03200255906
1474.000000,0.02744372598
1475.000000,0.02619687801
1476.000000,0.02598636735
1477.000000,0.02324439093
1478.000000,0.02535365391
1479.000000,0.02373648979
1480.000000,0.0229712311
1481.000000,0.02355204808
1482.000000,0.02287591036
1483.000000,0.0245692265
1484.000000,0.02341310505
1485.000000,0.01649684245
1486.000000,0.02128838703
1487.000000,0.01686598193
1488.000000,0.01588881936
1489.000000,0.01983778066
1490.000000,0.01670732873
1491.000000,0.01720001252
1492.000000,0.01971363846
1493.000000,0.01600833858
1494.000000,0.01532434137
1495.000000,0.0175650395
1496.000000,0.01916993947
1497.000000,0.01760762963
1498.000000,0.01328264083
1499.000000,0.01494011225
1500.000000,0.0158019485
1501.000000,0.01984155872
1502.000000,0.01765271927
1503.000000,0.01746359659
1504.000000,0.01807027576
1505.000000,0.01495864896
1506.000000,0.0164567481
1507.000000,0.01640635209
1508.000000,0.01340764051
1509.000000,0.01527083928
1510.000000,0.01638247356
1511.000000,0.01305112294
1512.000000,0.01678979782
1513.000000,0.01666005936
1514.000000,0.01718530429
1515.000000,0.01354939856
1516.000000,0.01530069757
1517.000000,0.01798558032
1518.000000,0.01666303153
1519.000000,0.01350550549
1520.000000,0.0155424454
1521.000000,0.01794896592
1522.000000,0.01497710491
1523.000000,0.01591902467
1524.000000,0.02032774455
1525.000000,0.01515610803
1526.000000,0.01505972898
1527.000000,0.01331580468
1528.000000,0.01406811159
1529.000000,0.01842151269
1530.000000,0.01524422972
1531.000000,0.01322890562
1532.000000,0.01382618806
1533.000000,0.01579627055
1534.000000,0.01741880329
1535.000000,0.01451275939
1536.000000,0.01754992609
1537.000000,0.01527852791
1538.000000,0.01710957614
1539.000000,0.0175906008
1540.000000,0.01793273566
1541.000000,0.01603389452
1542.000000,0.0167529226
1543.000000,0.01831276794
1544.000000,0.01493839107
1545.000000,0.01811424524
1546.000000,0.01906077196
1547.000000,0.02040659719
1548.000000,0.01855412387
1549.000000,0.01859598808
1550.000000,0.01961307455
1551.000000,0.01826176389
1552.000000,0.01974287237
1553.000000,0.0214517934
1554.000000,0.02171479409
1555.000000,0.0196316602
1556.000000,0.02169162663
1557.000000,0.01880415765
1558.000000,0.02539470837
1559.000000,0.02357353961
1560.000000,0.02605617774
1561.000000,0.02443140502
1562.000000,0.02764126498
1563.000000,0.03003395977
1564.000000,0.03261626088
1565.000000,0.02965566292
1566.000000,0.03604158883
1567.000000,0.03631346615
1568.000000,0.03775367871
1569.000000,0.04337946372
1570.000000,0.04553324912
1571.000000,0.04994286867
1572.000000,0.05445164173
1573.000000,0.06279040348
1574.000000,0.0703989918
1575.000000,0.07989096912
1576.000000,0.09072340936
1577.000000,0.1071388752
1578.000000,0.1282690397
1579.000000,0.1534062928
1580.000000,0.1775312049
1581.000000,0.2076224209
1582.000000,0.22679783
1583.000000,0.2347888566
1584.000000,0.2333925526
1585.000000,0.2136448695
1586.000000,0.1949613092
1587.000000,0.1758719022
1588.000000,0.1567874375
1589.000000,0.146014788
1590.000000,0.1450937537
1591.000000,0.1396532275
1592.000000,0.1437940619
1593.000000,0.1544003159
1594.000000,0.1686145051
1595.000000,0.1925818573
1596.000000,0.2278541041
1597.000000,0.2703394284
1598.000000,0.3433647164
1599.000000,0.4229909881
1600.000000,0.5202927507
1601.000000,0.6094498726
1602.000000,0.643517956
1603.000000,0.6033016642
1604.000000,0.5176513568
1605.000000,0.4148381733
1606.000000,0.3281207604
1607.000000,0.2577493054
1608.000000,0.2072850006
1609.000000,0.1710109378
1610.000000,0.1413408636
1611.000000,0.1195244695
1612.000000,0.1035848038
1613.000000,0.08817605954
1614.000000,0.07619520431
1615.000000,0.06826643325
1616.000000,0.06500333573
1617.000000,0.05588937946
1618.000000,0.05153026113
1619.000000,0.04653469967
1620.000000,0.04366525924
1621.000000,0.04098557969
1622.000000,0.03746535897
1623.000000,0.03487307386
1624.000000,0.03160482686
1625.000000,0.02969772868
1626.000000,0.03062283829
1627.000000,0.02990079686
1628.000000,0.02899407736
1629.000000,0.02613161999
1630.000000,0.02336081342
1631.000000,0.02534500174
1632.000000,0.02448093789
1633.000000,0.01949216874
1634.000000,0.02339861897
1635.000000,0.02232238968
1636.000000,0.02390076449
1637.000000,0.01778810537
1638.000000,0.01698629148
1639.000000,0.02065071341
1640.000000,0.0150731467
1641.000000,0.01680329641
1642.000000,0.01571545806
1643.000000,0.01553063448
1644.000000,0.01342809925
1645.000000,0.01645826613
1646.000000,0.01859784882
1647.000000,0.01727096565
1648.000000,0.01703235945
1649.000000,0.01519908974
1650.000000,0.01857846412
1651.000000,0.01654062337
1652.000000,0.01738987818
1653.000000,0.01201995369
1654.000000,0.01562536866
1655.000000,0.0124939545
1656.000000,0.01531384016
1657.000000,0.01486608589
1658.000000,0.01208383774
1659.000000,0.01454946047
1660.000000,0.01638493306
1661.000000,0.01495030955
1662.000000,0.01501465626
1663.000000,0.0120069555
1664.000000,0.01226803239
1665.000000,0.0113048827
1666.000000,0.01368901631
1667.000000,0.01570405165
1668.000000,0.01411350329
1669.000000,0.01315781535
1670.000000,0.01084985063
1671.000000,0.0138881133
1672.000000,0.01245390797
1673.000000,0.009061832135
1674.000000,0.009344049073
1675.000000,0.01204527004
1676.000000,0.01087505802
1677.000000,0.01588659648
1678.000000,0.01260670242
1679.000000,0.01041231084
1680.000000,0.01145300142
1681.000000,0.01554451032
1682.000000,0.01043292284
1683.000000,0.01380605431
1684.000000,0.01309650958
1685.000000,0.01510275053
1686.000000,0.01319098862
1687.000000,0.01128924235
1688.000000,0.01309873654
1689.000000,0.01214140041
1690.000000,0.01390987184
1691.000000,0.01180940229
1692.000000,0.01583616943
1693.000000,0.01166018658
1694.000000,0.01270452352
1695.000000,0.01048921721
1696.000000,0.01201597046
1697.000000,0.01178912038
1698.000000,0.01204404646
1699.000000,0.01346976049
1700.000000,0.01057845598
1701.000000,0.009935007382
1702.000000,0.01380063406
1703.000000,0.0109986401
1704.000000,0.01021060738
1705.000000,0.01381513645
1706.000000,0.01304236373
1707.000000,0.006206877572
1708.000000,0.01069610354
1709.000000,0.01298959514
1710.000000,0.01306659249
1711.000000,0.01036395617
1712.000000,0.01447754893
1713.000000,0.009768881161
1714.000000,0.01086713013
1715.000000,0.01156405815
1716.000000,0.01128068609
1717.000000,0.01287851483
1718.000000,0.013287979
1719.000000,0.01115146699
1720.000000,0.01400616909
1721.000000,0.009844681187
1722.000000,0.01076783088
1723.000000,0.01460037372
1724.000000,0.01135723632
1725.000000,0.01327327099
1726.000000,0.01027827287
1727.000000,0.01059447673
1728.000000,0.01089832768
1729.000000,0.01143751175
1730.000000,0.01041054183
1731.000000,0.01110469984
1732.000000,0.01239167365
1733.000000,0.01344598244
1734.000000,0.01125245685
1735.000000,0.01231513031
1736.000000,0.01282749125
1737.000000,0.008859514134
1738.000000,0.00786063635
1739.000000,0.01419573109
1740.000000,0.01359399019
1741.000000,0.01107256745
1742.000000,0.01164652243
1743.000000,0.00906295344
1744.000000,0.008174634406
1745.000000,0.01154501739
1746.000000,0.007949113056
1747.000000,0.01271342437
1748.000000,0.009532729515
1749.000000,0.01145433334
1750.000000,0.01471615294
1751.000000,0.01461308624
1752.000000,0.01030624949
1753.000000,0.01296237498
1754.000000,0.008777225573
1755.000000,0.009654264836
1756.000000,0.01154795583
1757.000000,0.01356256277
1758.000000,0.009650534221
1759.000000,0.01186303255
1760.000000,0.0109787701
1761.000000,0.008253174022
1762.000000,0.01049273065
1763.000000,0.01373724472
1764.000000,0.01056024985
1765.000000,0.01173626083
1766.000000,0.01237954077
1767.000000,0.009254904338
1768.000000,0.01316656168
1769.000000,0.01370176441
1770.000000,0.01388249418
1771.000000,0.01330944772
1772.000000,0.009760236963
1773.000000,0.009512015674
1774.000000,0.00910724982
1775.000000,0.008857603632
1776.000000,0.009073467002
1777.000000,0.01262851199
1778.000000,0.01356004026
1779.000000,0.009361665303
1780.000000,0.01224816061
1781.000000,0.008103067869
1782.000000,0.009968462758
1783.000000,0.00862656557
1784.000000,0.007358695099
1785.000000,0.01070640421
1786.000000,0.01074810776
1787.000000,0.009773065526
1788.000000,0.009535663707
1789.000000,0.008606576862
1790.000000,0.01030210518
1791.000000,0.009362383154
1792.000000,0.01103454669
1793.000000,0.008142795559
1794.000000,0.01099609917
1795.000000,0.01155762523
1796.000000,0.01301264996
1797.000000,0.01262411069
1798.000000,0.01090210172
1799.000000,0.009153149142
1800.000000,0.006857102038
1801.000000,0.01049205925
1802.000000,0.01332412649
1803.000000,0.01380872079
1804.000000,0.00541601968
1805.000000,0.008976177153
1806.000000,0.009782806901
1807.000000,0.00839926886
1808.000000,0.01084691466
1809.000000,0.01054762121
1810.000000,0.009433520658
1811.000000,0.0103909574
1812.000000,0.007277629068
1813.000000,0.008513777477
1814.000000,0.008661236556
1815.000000,0.01224015217
1816.000000,0.007192685478
1817.000000,0.01001476745
1818.000000,0.01199166419
1819.000000,0.01032524992
1820.000000,0.01205155717
1821.000000,0.009122427488
1822.000000,0.01129405585
1823.000000,0.01222784988
1824.000000,0.01488065934
1825.000000,0.01187004908
1826.000000,0.01326797138
1827.000000,0.01043540173
1828.000000,0.01060774406
1829.000000,0.01354545638
1830.000000,0.01157366758
1831.000000,0.01324220095
1832.000000,0.01182372781
1833.000000,0.01464507239
1834.000000,0.01516635205
1835.000000,0.008730272101
1836.000000,0.01411780884
1837.000000,0.0112689604
1838.000000,0.01135354036
1839.000000,0.01016850277
1840.000000,0.01183561246
1841.000000,0.008175193555
1842.000000,0.00894357942
1843.000000,0.008867804049
1844.000000,0.0109749451
1845.000000,0.01223777501
1846.000000,0.01186844208
1847.000000,0.01113139309
1848.000000,0.009208517156
1849.000000,0.00687292741
1850.000000,0.01119909085
1851.000000,0.01068222307
1852.000000,0.01110387682
1853.000000,0.01324259061
1854.000000,0.01002186297
1855.000000,0.009980536244
1856.000000,0.005750662483
1857.000000,0.01149917142
1858.000000,0.01028125406
1859.000000,0.008898854315
1860.000000,0.01114644423
1861.000000,0.008284549322
1862.000000,0.009287069379
1863.000000,0.01429373726
1864.000000,0.01187005293
1865.000000,0.01221560283
1866.000000,0.01185930628
1867.000000,0.01164398181
1868.000000,0.01074345943
1869.000000,0.01492431578
1870.000000,0.01020317032
1871.000000,0.01181865172
1872.000000,0.009907639817
1873.000000,0.009639381767
1874.000000,0.0054630265
1875.000000,0.006488755941
1876.000000,0.0134294584
1877.000000,0.01330803366
1878.000000,0.009453463975
1879.000000,0.0102594011
1880.000000,0.01154669278
1881.000000,0.008329284711
1882.000000,0.01385421052
1883.000000,0.008232116795
1884.000000,0.00886868874
1885.000000,0.004779793453
1886.000000,0.0133335288
1887.000000,0.01041750468
1888.000000,0.0135450919
1889.000000,0.008292630237
1890.000000,0.01097089069
1891.000000,0.01044185443
1892.000000,0.01068860188
1893.000000,0.01443834954
1894.000000,0.01481887344
1895.000000,0.01304272591
1896.000000,0.00948002576
1897.000000,0.0120669233
1898.000000,0.01296911718
1899.000000,0.0113928396
1900.000000,0.01141346485
1901.000000,0.01123663673
1902.000000,0.008468101764
1903.000000,0.01075928021
1904.000000,0.01347437409
1905.000000,0.00827359489
1906.000000,0.01042688229
1907.000000,0.01193159902
1908.000000,0.007530322508
1909.000000,0.009982272076
1910.000000,0.006861631003
1911.000000,0.00904123773
1912.000000,0.007437015231
1913.000000,0.008456446802
1914.000000,0.009266205569
1915.000000,0.009689709997
1916.000000,0.009831372613
1917.000000,0.005424717071
1918.000000,0.01341198146
1919.000000,0.009681796031
1920.000000,0.008036800273
1921.000000,0.008968907227
1922.000000,0.01084419837
1923.000000,0.008217757259
1924.000000,0.009391870695
1925.000000,0.009278129687
1926.000000,0.01129620308
1927.000000,0.008718444957
1928.000000,0.01112151344
1929.000000,0.01091159384
1930.000000,0.009915514561
1931.000000,0.01269352625
1932.000000,0.01025114329
1933.000000,0.007853968794
1934.000000,0.01080381507
1935.000000,0.01045352837
1936.000000,0.01012512323
1937.000000,0.0106697684
1938.000000,0.01490321665
1939.000000,0.01067015099
1940.000000,0.01111771296
1941.000000,0.009708232088
1942.000000,0.01282094074
1943.000000,0.01008607998
1944.000000,0.008594025519
1945.000000,0.007752004882
1946.000000,0.01125053023
1947.000000,0.0116838813
1948.000000,0.007017376165
1949.000000,0.008746128999
1950.000000,0.01147541535
1951.000000,0.01224596517
1952.000000,0.007548379224
1953.000000,0.00937251275
1954.000000,0.01185258607
1955.000000,0.009118378328
1956.000000,0.009283821262
1957.000000,0.009102828787
1958.000000,0.007569129619
1959.000000,0.01027552589
1960.000000,0.01078970753
1961.000000,0.007375841927
1962.000000,0.01037914912
1963.000000,0.01239346377
1964.000000,0.01059186614
1965.000000,0.01207047287
1966.000000,0.009076262798
1967.000000,0.01291249827
1968.000000,0.008601012383
1969.000000,0.01394325712
1970.000000,0.009273493576
1971.000000,0.008733360931
1972.000000,0.008384177942
1973.000000,0.009343277964
1974.000000,0.009181446556
1975.000000,0.008788294593
1976.000000,0.009507513768
1977.000000,0.01149441141
1978.000000,0.01192903317
1979.000000,0.009488789556
1980.000000,0.01263240607
1981.000000,0.00816603518
1982.000000,0.008104099716
1983.000000,0.007898328133
1984.000000,0.01136248006
1985.000000,0.00705683216
1986.000000,0.007364140473
1987.000000,0.01271329694
1988.000000,0.01358018925
1989.000000,0.01283994985
1990.000000,0.007168289129
1991.000000,0.01017343613
1992.000000,0.01181200063
1993.000000,0.01034046218
1994.000000,0.006909888012
1995.000000,0.009460235785
1996.000000,0.00674674233
1997.000000,0.007677484763
1998.000000,0.01444602159
1999.000000,0.01149894483
2000.000000,0.007204292684
