raman_shift_cm-1,intensity
200.000000,0.00876350043
201.000000,0.009717838152
202.000000,0.01339491165
203.000000,0.01138595104
204.000000,0.006785053774
205.000000,0.01005763561
206.000000,0.008821309389
207.000000,0.01036569562
208.000000,0.00685225368
209.000000,0.01055237066
210.000000,0.01053978739
211.000000,0.01322047726
212.000000,0.01070271588
213.000000,0.01109072083
214.000000,0.007083596818
215.000000,0.01457549214
216.000000,0.00623894752
217.000000,0.01227404813
218.000000,0.009410843108
219.000000,0.008309566114
220.000000,0.008758498088
221.000000,0.008727248784
222.000000,0.01083186745
223.000000,0.009851584084
224.000000,0.01303705711
225.000000,0.006412921157
226.000000,0.01006618281
227.000000,0.008288449826
228.000000,0.01162452289
229.000000,0.005836878056
230.000000,0.009385829533
231.000000,0.01049378534
232.000000,0.007105124746
233.000000,0.01204431669
234.000000,0.01043153717
235.000000,0.01208804985
236.000000,0.01199293323
237.000000,0.008115082802
238.000000,0.008479430069
239.000000,0.009668587501
240.000000,0.01157140406
241.000000,0.01177765258
242.000000,0.008656582922
243.000000,0.008861794234
244.000000,0.008480780004
245.000000,0.008908187906
246.000000,0.009601057449
247.000000,0.009813515271
248.000000,0.0141936168
249.000000,0.009064824376
250.000000,0.009500428153
251.000000,0.0109952789
252.000000,0.008172223246
253.000000,0.009341366402
254.000000,0.01010550838
255.000000,0.01162741545
256.000000,0.007447347399
257.000000,0.01282257103
258.000000,0.009374973823
259.000000,0.0104189793
260.000000,0.01177458244
261.000000,0.01140225254
262.000000,0.01219939283
263.000000,0.01042758857
264.000000,0.01004223163
265.000000,0.01071468235
266.000000,0.008090562978
267.000000,0.01251063855
268.000000,0.008531762946
269.000000,0.007562320908
270.000000,0.01419590106
271.000000,0.009810470072
272.000000,0.007725388293
273.000000,0.01378845721
274.000000,0.009424773927
275.000000,0.01220863383
276.000000,0.008425789586
277.000000,0.009587493476
278.000000,0.006708283022
279.000000,0.006267752963
280.000000,0.008133054213
281.000000,0.009930138833
282.000000,0.01168248356
283.000000,0.01493925022
284.000000,0.008023382125
285.000000,0.01210548945
286.000000,0.008879029529
287.000000,0.0097829573
288.000000,0.007125939033
289.000000,0.007130659062
290.000000,0.008532019523
291.000000,0.007703031621
292.000000,0.01008245818
293.000000,0.00868485412
294.000000,0.01259159528
295.000000,0.01039656065
296.000000,0.01042131975
297.000000,0.01236603797
298.000000,0.01112771839
299.000000,0.01001715626
300.000000,0.009910705998
301.000000,0.009850588081
302.000000,0.01224626406
303.000000,0.01165932836
304.000000,0.01082533222
305.000000,0.01169149637
306.000000,0.009005114766
307.000000,0.01111657289
308.000000,0.007270208171
309.000000,0.01278976713
310.000000,0.01027567541
311.000000,0.01046272012
312.000000,0.01129505942
313.000000,0.0100772326
314.000000,0.009588798438
315.000000,0.01247694837
316.000000,0.01032924786
317.000000,0.008266373086
318.000000,0.01097760671
319.000000,0.006688622999
320.000000,0.01341032635
321.000000,0.009757359466
322.000000,0.01019177225
323.000000,0.01461593099
324.000000,0.01440426045
325.000000,0.01033278261
326.000000,0.01135129565
327.000000,0.01228231918
328.000000,0.01346640077
329.000000,0.009840575114
330.000000,0.01037368637
331.000000,0.01255284233
332.000000,0.01064308537
333.000000,0.01161339833
334.000000,0.01132453452
335.000000,0.007835411462
336.000000,0.008387776296
337.000000,0.004823406697
338.000000,0.00958627218
339.000000,0.01278462082
340.000000,0.007888968065
341.000000,0.01257542753
342.000000,0.01210735484
343.000000,0.009999023556
344.000000,0.01009393343
345.000000,0.01027527518
346.000000,0.008387890691
347.000000,0.009545862799
348.000000,0.0100178576
349.000000,0.01133532826
350.000000,0.01169554781
351.000000,0.008626919404
352.000000,0.01176429886
353.000000,0.008557612285
354.000000,0.009776004857
355.000000,0.010853337
356.000000,0.01006951172
357.000000,0.009861392985
358.000000,0.01065469724
359.000000,0.009010720701
360.000000,0.00881149463
361.000000,0.009709110918
362.000000,0.01204039792
363.000000,0.009915039886
364.000000,0.01392794351
365.000000,0.01054793649
366.000000,0.004171166164
367.000000,0.009241393865
368.000000,0.01345111179
369.000000,0.01013428209
370.000000,0.009246474475
371.000000,0.008375378394
372.000000,0.01277085426
373.000000,0.01212947315
374.000000,0.01146846409
375.000000,0.01098117344
376.000000,0.01300736217
377.000000,0.01176853818
378.000000,0.007667124142
379.000000,0.01166420733
380.000000,0.01046717343
381.000000,0.009907886942
382.000000,0.01165591389
383.000000,0.01018652717
384.000000,0.004263266448
385.000000,0.01324577995
386.000000,0.0122070769
387.000000,0.00988709734
388.000000,0.009388127195
389.000000,0.01058686784
390.000000,0.007565439811
391.000000,0.01074770129
392.000000,0.009675164455
393.000000,0.009430331695
394.000000,0.008290677351
395.000000,0.008780329512
396.000000,0.01235088869
397.000000,0.01280903834
398.000000,0.01114537952
399.000000,0.01004934398
400.000000,0.00838533112
401.000000,0.01157737285
402.000000,0.01336447252
403.000000,0.00691433399
404.000000,0.01249260951
405.000000,0.005813507962
406.000000,0.00946559293
407.000000,0.01091563169
408.000000,0.00741718733
409.000000,0.007113966919
410.000000,0.01052009067
411.000000,0.01190297599
412.000000,0.009199450772
413.000000,0.01283896012
414.000000,0.008592159587
415.000000,0.01366154269
416.000000,0.01039449472
417.000000,0.01062514495
418.000000,0.01138527231
419.000000,0.01079832626
420.000000,0.01384871403
421.000000,0.01457100978
422.000000,0.01125117901
423.000000,0.009828443297
424.000000,0.007808570708
425.000000,0.0086529519
426.000000,0.01018113713
427.000000,0.009960912751
428.000000,0.01007720347
429.000000,0.01017561843
430.000000,0.01115758267
431.000000,0.007466121532
432.000000,0.008117548609
433.000000,0.01241335692
434.000000,0.01184712716
435.000000,0.009100017752
436.000000,0.01276329941
437.000000,0.008820911784
438.000000,0.009671185421
439.000000,0.006524915357
440.000000,0.01187120276
441.000000,0.01016056986
442.000000,0.01231876539
443.000000,0.01159886913
444.000000,0.01038043639
445.000000,0.01051467662
446.000000,0.01258798481
447.000000,0.009875418694
448.000000,0.009901697312
449.000000,0.01034785713
450.000000,0.01182619725
451.000000,0.01206635213
452.000000,0.01406025146
453.000000,0.01007466356
454.000000,0.01277078527
455.000000,0.008943513386
456.000000,0.01146655424
457.000000,0.01051721227
458.000000,0.01374309212
459.000000,0.01149732594
460.000000,0.009387172528
461.000000,0.01144447292
462.000000,0.01098463939
463.000000,0.009661915855
464.000000,0.00970979576
465.000000,0.008414039121
466.000000,0.01581961655
467.000000,0.01057830942
468.000000,0.01225938902
469.000000,0.007981699526
470.000000,0.008143571236
471.000000,0.0100111971
472.000000,0.01002207027
473.000000,0.01192671111
474.000000,0.008316568696
475.000000,0.01140593631
476.000000,0.01335863792
477.000000,0.008502033192
478.000000,0.01215207003
479.000000,0.008413190165
480.000000,0.01102879559
481.000000,0.01106514755
482.000000,0.01381528634
483.000000,0.008961019664
484.000000,0.01068112387
485.000000,0.01243372949
486.000000,0.008004302941
487.000000,0.01033220915
488.000000,0.008612154761
489.000000,0.008950300635
490.000000,0.01172020932
491.000000,0.01175950535
492.000000,0.01551604367
493.000000,0.01311704914
494.000000,0.01294327534
495.000000,0.01003334201
496.000000,0.009767460262
497.000000,0.01064382276
498.000000,0.005820762399
499.000000,0.0136863662
500.000000,0.009030189476
501.000000,0.008251767212
502.000000,0.009455328234
503.000000,0.0121212811
504.000000,0.01285719402
505.000000,0.00961648831
506.000000,0.01124210819
507.000000,0.01025575844
508.000000,0.00837769243
509.000000,0.01071041389
510.000000,0.01042645947
511.000000,0.007297065583
512.000000,0.01257420161
513.000000,0.007231609378
514.000000,0.01084384574
515.000000,0.008277711935
516.000000,0.008751458189
517.000000,0.008977002855
518.000000,0.01179395516
519.000000,0.007877881052
520.000000,0.01000762871
521.000000,0.01349534026
522.000000,0.009001743122
523.000000,0.01033256604
524.000000,0.01172745257
525.000000,0.009235926736
526.000000,0.01135508857
527.000000,0.009086025833
528.000000,0.01181109132
529.000000,0.01054007724
530.000000,0.008546864881
531.000000,0.01324208037
532.000000,0.01023860202
533.000000,0.009873388873
534.000000,0.008588325753
535.000000,0.009502929352
536.000000,0.01025524307
537.000000,0.01079697379
538.000000,0.01265485784
539.000000,0.007827478339
540.000000,0.009770172553
541.000000,0.01286705343
542.000000,0.01084405024
543.000000,0.01130293141
544.000000,0.0136789089
545.000000,0.01117437168
546.000000,0.01143870392
547.000000,0.01043122067
548.000000,0.01405538326
549.000000,0.01262724604
550.000000,0.009091734373
551.000000,0.01163843706
552.000000,0.008252606713
553.000000,0.01273101808
554.000000,0.01190729015
555.000000,0.01025185637
556.000000,0.00977568251
557.000000,0.006997454132
558.000000,0.01212296454
559.000000,0.0103702534
560.000000,0.009990365337
561.000000,0.01206954629
562.000000,0.009303293264
563.000000,0.009469195856
564.000000,0.009264372052
565.000000,0.007957316647
566.000000,0.01549395754
567.000000,0.01029752852
568.000000,0.00999838806
569.000000,0.01251289798
570.000000,0.004426367981
571.000000,0.01067697514
572.000000,0.01077773821
573.000000,0.008822996561
574.000000,0.01169901704
575.000000,0.006740198513
576.000000,0.01081059426
577.000000,0.01256973007
578.000000,0.006357797563
579.000000,0.007905201839
580.000000,0.01048471533
581.000000,0.0107592577
582.000000,0.009497604505
583.000000,0.0115147117
584.000000,0.01128135385
585.000000,0.00810513712
586.000000,0.01061132406
587.000000,0.008271430813
588.000000,0.006684251857
589.000000,0.00603055394
590.000000,0.01293154932
591.000000,0.01064370198
592.000000,0.01484370043
593.000000,0.008034328314
594.000000,0.01028644301
595.000000,0.01171362204
596.000000,0.01079378382
597.000000,0.01213161381
598.000000,0.01147477109
599.000000,0.01001049154
600.000000,0.00663954306
601.000000,0.009465447574
602.000000,0.01487792655
603.000000,0.01304347074
604.000000,0.01434594843
605.000000,0.01050336914
606.000000,0.01138218533
607.000000,0.01010679505
608.000000,0.01274516012
609.000000,0.01219419261
610.000000,0.01309033049
611.000000,0.01583092484
612.000000,0.01076299562
613.000000,0.01405029891
614.000000,0.009917876905
615.000000,0.015093126
616.000000,0.01217610572
617.000000,0.01310511213
618.000000,0.01372932826
619.000000,0.01697585926
620.000000,0.01386715878
621.000000,0.01320719529
622.000000,0.01213512214
623.000000,0.01539026573
624.000000,0.01349977335
625.000000,0.01461813163
626.000000,0.01603960212
627.000000,0.01795893725
628.000000,0.01577831121
629.000000,0.01922538009
630.000000,0.0221986652
631.000000,0.01656563687
632.000000,0.02330066611
633.000000,0.02608385965
634.000000,0.02200346847
635.000000,0.02608435131
636.000000,0.02410277064
637.000000,0.02993822537
638.000000,0.0315398933
639.000000,0.03641657437
640.000000,0.03847696432
641.000000,0.04435534475
642.000000,0.05236693306
643.000000,0.06120626563
644.000000,0.07355290338
645.000000,0.09013457656
646.000000,0.1083133276
647.000000,0.1343032303
648.000000,0.161250187
649.000000,0.1768769942
650.000000,0.1903686051
651.000000,0.1800078392
652.000000,0.1580358388
653.000000,0.1318874766
654.000000,0.1088078431
655.000000,0.08901417408
656.000000,0.07544001939
657.000000,0.06005730134
658.000000,0.05529811917
659.000000,0.04431376301
660.000000,0.04163601524
661.000000,0.03794488347
662.000000,0.02971763989
663.000000,0.03138750831
664.000000,0.03123481162
665.000000,0.0240126464
666.000000,0.02442374494
667.000000,0.02161633748
668.000000,0.02086251575
669.000000,0.01931467114
670.000000,0.01781931372
671.000000,0.0195221496
672.000000,0.0191814152
673.000000,0.01683972149
674.000000,0.01936074702
675.000000,0.01806015139
676.000000,0.01688733095
677.000000,0.01368478473
678.000000,0.01860401341
679.000000,0.01715299854
680.000000,0.009947664682
681.000000,0.01179065031
682.000000,0.01283547169
683.000000,0.0154715684
684.000000,0.01590392961
685.000000,0.01267274211
686.000000,0.01359195622
687.000000,0.01435577213
688.000000,0.01028410029
689.000000,0.01389870383
690.000000,0.01199470559
691.000000,0.01287637065
692.000000,0.01231603907
693.000000,0.009963483683
694.000000,0.01025374538
695.000000,0.01225178279
696.000000,0.0123568064
697.000000,0.0115042486
698.000000,0.0140948521
699.000000,0.01119406087
700.000000,0.009422009361
701.000000,0.01111451165
702.000000,0.01140734871
703.000000,0.01145091188
704.000000,0.0139982259
705.000000,0.01265335852
706.000000,0.01370435366
707.000000,0.01280900915
708.000000,0.01119982017
709.000000,0.01357512155
710.000000,0.01095112054
711.000000,0.01194348301
712.000000,0.00941954949
713.000000,0.01160248203
714.000000,0.01073000957
715.000000,0.01210367817
716.000000,0.01497504206
717.000000,0.01606811825
718.000000,0.01334783154
719.000000,0.01123699558
720.000000,0.01293318996
721.000000,0.01172846012
722.000000,0.0100422308
723.000000,0.01112093697
724.000000,0.01073652987
725.000000,0.01001918987
726.000000,0.0139807519
727.000000,0.01013153573
728.000000,0.01021160411
729.000000,0.01260717601
730.000000,0.009806308997
731.000000,0.008891487744
732.000000,0.009485705082
733.000000,0.01214987455
734.000000,0.01193731006
735.000000,0.01178202205
736.000000,0.01025532682
737.000000,0.009358387204
738.000000,0.01300074872
739.000000,0.008297241592
740.000000,0.01076786562
741.000000,0.008545800612
742.000000,0.01038955823
743.000000,0.01090221761
744.000000,0.01367018945
745.000000,0.005486395809
746.000000,0.01396369997
747.000000,0.009471170669
748.000000,0.0118417597
749.000000,0.01287462166
750.000000,0.009746373764
751.000000,0.01111304021
752.000000,0.01228909041
753.000000,0.01107057357
754.000000,0.009861168975
755.000000,0.01172867359
756.000000,0.01158901365
757.000000,0.008391272919
758.000000,0.01412737964
759.000000,0.01188393185
760.000000,0.006610605375
761.000000,0.009818467036
762.000000,0.01494522798
763.000000,0.01470810566
764.000000,0.0121019051
765.000000,0.008221244772
766.000000,0.01114730378
767.000000,0.01377529401
768.000000,0.01247973229
769.000000,0.01106376006
770.000000,0.01029689217
771.000000,0.01346347181
772.000000,0.01143259169
773.000000,0.01255219
774.000000,0.01293971053
775.000000,0.01528889943
776.000000,0.01243292661
777.000000,0.01264390861
778.000000,0.008614169391
779.000000,0.01448229515
780.000000,0.01410855891
781.000000,0.01237942846
782.000000,0.007945165739
783.000000,0.01145219915
784.000000,0.01282639936
785.000000,0.01697497965
786.000000,0.01406982151
787.000000,0.01459569965
788.000000,0.01477780647
789.000000,0.01594775564
790.000000,0.01115432826
791.000000,0.01188488351
792.000000,0.01140293593
793.000000,0.01339136106
794.000000,0.0134648569
795.000000,0.0146123624
796.000000,0.01261127115
797.000000,0.0151336827
798.000000,0.0135526553
799.000000,0.01984688458
800.000000,0.0149410264
801.000000,0.02154150565
802.000000,0.02019865202
803.000000,0.01507841778
804.000000,0.02001828015
805.000000,0.02002670853
806.000000,0.01654693787
807.000000,0.02177212509
808.000000,0.02144888631
809.000000,0.0235802814
810.000000,0.02263846154
811.000000,0.02594769186
812.000000,0.02894227486
813.000000,0.03019121647
814.000000,0.03226769316
815.000000,0.03670989308
816.000000,0.03936332792
817.000000,0.04724302862
818.000000,0.04778375945
819.000000,0.06357849733
820.000000,0.06970430953
821.000000,0.08074190763
822.000000,0.09227474693
823.000000,0.09807587628
824.000000,0.1124255827
825.000000,0.1083243927
826.000000,0.1088022387
827.000000,0.101222421
828.000000,0.09320243194
829.000000,0.07978494291
830.000000,0.06676469627
831.000000,0.0612248444
832.000000,0.04798718923
833.000000,0.04617381838
834.000000,0.04042451661
835.000000,0.04017460996
836.000000,0.03294752284
837.000000,0.02967742329
838.000000,0.02662464683
839.000000,0.02438430501
840.000000,0.02326676619
841.000000,0.02411285107
842.000000,0.01901991909
843.000000,0.02016697493
844.000000,0.01672300834
845.000000,0.01851107184
846.000000,0.01846432096
847.000000,0.01504225025
848.000000,0.01581612511
849.000000,0.01668493358
850.000000,0.01758557077
851.000000,0.01755893401
852.000000,0.01507972709
853.000000,0.01298613468
854.000000,0.01144895389
855.000000,0.01601305556
856.000000,0.01701505965
857.000000,0.01474067337
858.000000,0.01695284646
859.000000,0.01272907951
860.000000,0.01269170005
861.000000,0.01647847563
862.000000,0.01116974128
863.000000,0.01428151403
864.000000,0.01372754725
865.000000,0.0131540341
866.000000,0.01622231284
867.000000,0.01089215068
868.000000,0.01171158783
869.000000,0.00829656543
870.000000,0.01031465499
871.000000,0.01132001585
872.000000,0.0115080928
873.000000,0.01181953041
874.000000,0.01277306064
875.000000,0.01077988849
876.000000,0.008095936595
877.000000,0.01233416273
878.000000,0.01283236892
879.000000,0.009613667241
880.000000,0.01032922771
881.000000,0.01541465913
882.000000,0.01390828111
883.000000,0.01400208279
884.000000,0.01313294361
885.000000,0.01205556633
886.000000,0.01071116382
887.000000,0.01286454389
888.000000,0.01129436102
889.000000,0.01078865578
890.000000,0.01163349069
891.000000,0.0114775288
892.000000,0.01341216256
893.000000,0.00968073605
894.000000,0.01660943459
895.000000,0.009559023339
896.000000,0.01071576751
897.000000,0.01346305627
898.000000,0.009873403929
899.000000,0.01058010898
900.000000,0.01159915591
901.000000,0.005568568867
902.000000,0.01051169242
903.000000,0.009587135118
904.000000,0.01102846271
905.000000,0.0125276984
906.000000,0.01280942726
907.000000,0.01454548616
908.000000,0.01442664544
909.000000,0.01360457337
910.000000,0.01144656066
911.000000,0.01362915888
912.000000,0.00952801517
913.000000,0.0113418128
914.000000,0.01444007712
915.000000,0.01313980965
916.000000,0.008737597185
917.000000,0.01036687011
918.000000,0.01339210087
919.000000,0.0128201543
920.000000,0.01375982809
921.000000,0.008036643388
922.000000,0.009057389558
923.000000,0.01111776391
924.000000,0.009670680494
925.000000,0.011587831
926.000000,0.01169131035
927.000000,0.01238089484
928.000000,0.0114358965
929.000000,0.01285007008
930.000000,0.01330605607
931.000000,0.01206406779
932.000000,0.009311035891
933.000000,0.01439521066
934.000000,0.01225236116
935.000000,0.01268909298
936.000000,0.01220309215
937.000000,0.008634169735
938.000000,0.01306871076
939.000000,0.01060561987
940.000000,0.009492917433
941.000000,0.01456682007
942.000000,0.01138801864
943.000000,0.01261300826
944.000000,0.01385670054
945.000000,0.01535120064
946.000000,0.008471456248
947.000000,0.01065800773
948.000000,0.01355163672
949.000000,0.01087912486
950.000000,0.00569296555
951.000000,0.01259132882
952.000000,0.01279563807
953.000000,0.01398382018
954.000000,0.01289152962
955.000000,0.01158661005
956.000000,0.01295387468
957.000000,0.01250328544
958.000000,0.01160767238
959.000000,0.01319596246
960.000000,0.01345323785
961.000000,0.01075503181
962.000000,0.01492603014
963.000000,0.01459094953
964.000000,0.01457579186
965.000000,0.007531047246
966.000000,0.01337120013
967.000000,0.01296217925
968.000000,0.01127600387
969.000000,0.01454637419
970.000000,0.01043567461
971.000000,0.01603790149
972.000000,0.01443315497
973.000000,0.01274042143
974.000000,0.01673402163
975.000000,0.01490920629
976.000000,0.01477303614
977.000000,0.01160317986
978.000000,0.01541925849
979.000000,0.01733498779
980.000000,0.01686687383
981.000000,0.01220466286
982.000000,0.01776850875
983.000000,0.01837302029
984.000000,0.01703431923
985.000000,0.01475324585
986.000000,0.01271085928
987.000000,0.0141282872
988.000000,0.0150312775
989.000000,0.01700297261
990.000000,0.01783726911
991.000000,0.01552316328
992.000000,0.01403490603
993.000000,0.01683861731
994.000000,0.01535856427
995.000000,0.02111428454
996.000000,0.01637658406
997.000000,0.02028778116
998.000000,0.02148964273
999.000000,0.01840244913
1000.000000,0.02300700218
1001.000000,0.02136109828
1002.000000,0.02078028664
1003.000000,0.02127756017
1004.000000,0.02430191484
1005.000000,0.02724210641
1006.000000,0.02236325088
1007.000000,0.02867900586
1008.000000,0.0285454474
1009.000000,0.02892124148
1010.000000,0.03205327916
1011.000000,0.03432827631
1012.000000,0.03663619536
1013.000000,0.04118388624
1014.000000,0.04100004311
1015.000000,0.05066376244
1016.000000,0.05309937292
1017.000000,0.05565411028
1018.000000,0.05975500681
1019.000000,0.07199865325
1020.000000,0.08177270095
1021.000000,0.09759113116
1022.000000,0.1151525458
1023.000000,0.1410268716
1024.000000,0.16898789
1025.000000,0.2158874371
1026.000000,0.2783745526
1027.000000,0.3740223228
1028.000000,0.5181423506
1029.000000,0.7073783135
1030.000000,0.9154575309
1031.000000,1.015320226
1032.000000,0.9170880613
1033.000000,0.7103771341
1034.000000,0.5171124957
1035.000000,0.3755838365
1036.000000,0.2838903333
1037.000000,0.2175170714
1038.000000,0.1743948119
1039.000000,0.1445324127
1040.000000,0.1223019905
1041.000000,0.1008180524
1042.000000,0.09690623996
1043.000000,0.08619777865
1044.000000,0.08201278404
1045.000000,0.07863406864
1046.000000,0.06871717898
1047.000000,0.06799413321
1048.000000,0.06954964431
1049.000000,0.07230643054
1050.000000,0.07236269439
1051.000000,0.07766122984
1052.000000,0.0877988777
1053.000000,0.09439796101
1054.000000,0.1116131424
1055.000000,0.1346602174
1056.000000,0.162240408
1057.000000,0.207284218
1058.000000,0.264528456
1059.000000,0.3352086896
1060.000000,0.4082350028
1061.000000,0.4399290924
1062.000000,0.4073347277
1063.000000,0.3358076893
1064.000000,0.2615387673
1065.000000,0.2008533178
1066.000000,0.1561921238
1067.000000,0.1230703926
1068.000000,0.100497813
1069.000000,0.08332291345
1070.000000,0.07027497318
1071.000000,0.06459898755
1072.000000,0.05050895224
1073.000000,0.04887008584
1074.000000,0.04032623749
1075.000000,0.03851260893
1076.000000,0.03810371077
1077.000000,0.0332219175
1078.000000,0.03432900296
1079.000000,0.02765585682
1080.000000,0.02729326864
1081.000000,0.02516007254
1082.000000,0.0251871209
1083.000000,0.02341375548
1084.000000,0.02229348548
1085.000000,0.02235265676
1086.000000,0.02361592427
1087.000000,0.02099041596
1088.000000,0.0201642695
1089.000000,0.01888837207
1090.000000,0.01752722885
1091.000000,0.01556621714
1092.000000,0.01593349862
1093.000000,0.01770684972
1094.000000,0.01343127918
1095.000000,0.01825722523
1096.000000,0.01578742681
1097.000000,0.01446370498
1098.000000,0.01499155851
1099.000000,0.01716981817
1100.000000,0.01636889662
1101.000000,0.0159610469
1102.000000,0.01879778158
1103.000000,0.01981150223
1104.000000,0.01239810992
1105.000000,0.01662121352
1106.000000,0.01319737506
1107.000000,0.01185820993
1108.000000,0.01346961056
1109.000000,0.0164843329
1110.000000,0.01374073669
1111.000000,0.0133341739
1112.000000,0.01705752864
1113.000000,0.01519738862
1114.000000,0.01396278167
1115.000000,0.01772128016
1116.000000,0.01501437852
1117.000000,0.01253335835
1118.000000,0.01176979081
1119.000000,0.01307474695
1120.000000,0.01422968995
1121.000000,0.01575264108
1122.000000,0.01553292541
1123.000000,0.01404027408
1124.000000,0.01142921719
1125.000000,0.01563488834
1126.000000,0.01393074218
1127.000000,0.01152874992
1128.000000,0.01122460219
1129.000000,0.01414085318
1130.000000,0.0143838226
1131.000000,0.01532059648
1132.000000,0.01123115552
1133.000000,0.01755303005
1134.000000,0.01004569981
1135.000000,0.01364182094
1136.000000,0.01644465666
1137.000000,0.01587188153
1138.000000,0.01187977242
1139.000000,0.01507594503
1140.000000,0.01637341906
1141.000000,0.01543308373
1142.000000,0.01202458925
1143.000000,0.01743355214
1144.000000,0.0108650243
1145.000000,0.01431249232
1146.000000,0.01215900851
1147.000000,0.01355303549
1148.000000,0.01386017255
1149.000000,0.01565663503
1150.000000,0.01224313215
1151.000000,0.01538624703
1152.000000,0.01773330362
1153.000000,0.01546990891
1154.000000,0.01661749798
1155.000000,0.0166237042
1156.000000,0.01451386566
1157.000000,0.01555969725
1158.000000,0.01672641466
1159.000000,0.01795207143
1160.000000,0.02149016356
1161.000000,0.0211389343
1162.000000,0.01741788453
1163.000000,0.01806331334
1164.000000,0.0175454287
1165.000000,0.01567388995
1166.000000,0.02384412689
1167.000000,0.02326550497
1168.000000,0.01941706598
1169.000000,0.02472527224
1170.000000,0.03104781603
1171.000000,0.0291643155
1172.000000,0.03146027352
1173.000000,0.03358345271
1174.000000,0.03495203996
1175.000000,0.03823318496
1176.000000,0.04401825755
1177.000000,0.05239196625
1178.000000,0.05967594419
1179.000000,0.07175810165
1180.000000,0.08664858905
1181.000000,0.09979299594
1182.000000,0.11800662
1183.000000,0.1335040826
1184.000000,0.1456965152
1185.000000,0.1582777788
1186.000000,0.1501969802
1187.000000,0.1374387421
1188.000000,0.1168023669
1189.000000,0.09685430035
1190.000000,0.08793958978
1191.000000,0.06866708488
1192.000000,0.06305434297
1193.000000,0.05484230949
1194.000000,0.05065306337
1195.000000,0.04750552658
1196.000000,0.04429131964
1197.000000,0.0360378277
1198.000000,0.04073818457
1199.000000,0.03398733031
1200.000000,0.0389748051
1201.000000,0.03711942025
1202.000000,0.03679869124
1203.000000,0.03990838869
1204.000000,0.0411287504
1205.000000,0.04778990293
1206.000000,0.05524244048
1207.000000,0.06242965327
1208.000000,0.07083192032
1209.000000,0.08581044947
1210.000000,0.100201529
1211.000000,0.1202898624
1212.000000,0.1307551032
1213.000000,0.1338216005
1214.000000,0.1285056696
1215.000000,0.1131434056
1216.000000,0.09672574056
1217.000000,0.08076446145
1218.000000,0.06891984383
1219.000000,0.05842885501
1220.000000,0.04867309332
1221.000000,0.04302699868
1222.000000,0.03568006034
1223.000000,0.03213909485
1224.000000,0.02511904057
1225.000000,0.02602447381
1226.000000,0.02453153862
1227.000000,0.02906584838
1228.000000,0.01966894536
1229.000000,0.02135607599
1230.000000,0.01952759087
1231.000000,0.01611932151
1232.000000,0.01910463199
1233.000000,0.01794044953
1234.000000,0.01436803067
1235.000000,0.01208845539
1236.000000,0.01626246283
1237.000000,0.01306926735
1238.000000,0.01699232791
1239.000000,0.01474010328
1240.000000,0.01609793319
1241.000000,0.01413339816
1242.000000,0.01765635088
1243.000000,0.01571070374
1244.000000,0.0172145819
1245.000000,0.01417228219
1246.000000,0.01168686112
1247.000000,0.01073078807
1248.000000,0.01245305448
1249.000000,0.01393831422
1250.000000,0.01194474997
1251.000000,0.01811267106
1252.000000,0.01288187163
1253.000000,0.0138539282
1254.000000,0.01300022068
1255.000000,0.01018459364
1256.000000,0.01482674698
1257.000000,0.01391852213
1258.000000,0.01429245257
1259.000000,0.01056250049
1260.000000,0.01244426498
1261.000000,0.01226893377
1262.000000,0.01468247862
1263.000000,0.009426214512
1264.000000,0.01357112624
1265.000000,0.01474394873
1266.000000,0.01125732154
1267.000000,0.01041311936
1268.000000,0.01474160254
1269.000000,0.01249956395
1270.000000,0.01427352577
1271.000000,0.01347522904
1272.000000,0.01409122584
1273.000000,0.01150596549
1274.000000,0.007513198529
1275.000000,0.01303885998
1276.000000,0.01039607304
1277.000000,0.01303373183
1278.000000,0.01067035513
1279.000000,0.01505551707
1280.000000,0.01119949248
1281.000000,0.013379627
1282.000000,0.01393434408
1283.000000,0.01148141592
1284.000000,0.01229256358
1285.000000,0.01157253281
1286.000000,0.009692203649
1287.000000,0.01458443502
1288.000000,0.009676646229
1289.000000,0.0083260345
1290.000000,0.01047679481
1291.000000,0.01176052368
1292.000000,0.01161580042
1293.000000,0.01076665495
1294.000000,0.01051846889
1295.000000,0.00704174704
1296.000000,0.01269816597
1297.000000,0.01496039204
1298.000000,0.009895246244
1299.000000,0.007684615811
1300.000000,0.01289835232
1301.000000,0.01100403134
1302.000000,0.003165314749
1303.000000,0.009791284387
1304.000000,0.00833846071
1305.000000,0.008907898346
1306.000000,0.01541462752
1307.000000,0.01334895725
1308.000000,0.01098989006
1309.000000,0.01134837268
1310.000000,0.01455712433
1311.000000,0.009054173316
1312.000000,0.01283992481
1313.000000,0.00999708535
1314.000000,0.01303573933
1315.000000,0.01176921078
1316.000000,0.009771824831
1317.000000,0.01350298698
1318.000000,0.01242990145
1319.000000,0.01510241727
1320.000000,0.01046829337
1321.000000,0.01159095088
1322.000000,0.009879075948
1323.000000,0.01382061524
1324.000000,0.00973567069
1325.000000,0.01126474122
1326.000000,0.01399196976
1327.000000,0.01238967691
1328.000000,0.01189384275
1329.000000,0.01184380792
1330.000000,0.01199460931
1331.000000,0.01263122507
1332.000000,0.01066383029
1333.000000,0.007182167576
1334.000000,0.01405202096
1335.000000,0.00910229484
1336.000000,0.01510154524
1337.000000,0.01188750448
1338.000000,0.01787237908
1339.000000,0.01373972857
1340.000000,0.01218005482
1341.000000,0.01321242187
1342.000000,0.008420008296
1343.000000,0.01167563915
1344.000000,0.01055884539
1345.000000,0.01134921811
1346.000000,0.007069792552
1347.000000,0.006760711957
1348.000000,0.01279990651
1349.000000,0.01140646353
1350.000000,0.0103888712
1351.000000,0.0111147838
1352.000000,0.009958965683
1353.000000,0.01031690337
1354.000000,0.01273523238
1355.000000,0.01083424181
1356.000000,0.01277607361
1357.000000,0.009863413731
1358.000000,0.007580012571
1359.000000,0.009975272807
1360.000000,0.01105095181
1361.000000,0.009029470992
1362.000000,0.01055403309
1363.000000,0.01032085348
1364.000000,0.01330056133
1365.000000,0.01313264419
1366.000000,0.01366971189
1367.000000,0.009816072383
1368.000000,0.01212257622
1369.000000,0.0141057419
1370.000000,0.0118141697
1371.000000,0.01131251656
1372.000000,0.009882139865
1373.000000,0.01322225975
1374.000000,0.0118715855
1375.000000,0.01359966733
1376.000000,0.0112273079
1377.000000,0.01584004297
1378.000000,0.01152403237
1379.000000,0.009048007574
1380.000000,0.01204154938
1381.000000,0.01264061022
1382.000000,0.01432525512
1383.000000,0.01069431222
1384.000000,0.0105795302
1385.000000,0.01116986893
1386.000000,0.01093778744
1387.000000,0.007383405632
1388.000000,0.01329432974
1389.000000,0.01442844739
1390.000000,0.01028171256
1391.000000,0.009846566599
1392.000000,0.01162811857
1393.000000,0.01026460381
1394.000000,0.01363059724
1395.000000,0.01073905225
1396.000000,0.0133358024
1397.000000,0.009532360215
1398.000000,0.009218005036
1399.000000,0.008968279385
1400.000000,0.009287253172
1401.000000,0.01316122337
1402.000000,0.01406973269
1403.000000,0.01266709316
1404.000000,0.01285826504
1405.000000,0.007895760108
1406.000000,0.01482250986
1407.000000,0.01001562305
1408.000000,0.0153261812
1409.000000,0.01769011768
1410.000000,0.01288043875
1411.000000,0.01410430066
1412.000000,0.01416492108
1413.000000,0.01023564874
1414.000000,0.01069082951
1415.000000,0.01167789721
1416.000000,0.01349827236
1417.000000,0.01500474377
1418.000000,0.01359437859
1419.000000,0.0157242374
1420.000000,0.0124935424
1421.000000,0.01072671374
1422.000000,0.01381409429
1423.000000,0.0137515293
1424.000000,0.01105414245
1425.000000,0.01623176495
1426.000000,0.01226974743
1427.000000,0.01288682338
1428.000000,0.01498596799
1429.000000,0.01246353406
1430.000000,0.01612480304
1431.000000,0.01582273874
1432.000000,0.01614482376
1433.000000,0.0153996118
1434.000000,0.01463419924
1435.000000,0.01427030616
1436.000000,0.01670939677
1437.000000,0.01914944528
1438.000000,0.01822563747
1439.000000,0.01766275488
1440.000000,0.0192777029
1441.000000,0.02029179053
1442.000000,0.01532980146
1443.000000,0.01821921615
1444.000000,0.02124041529
1445.000000,0.01784264756
1446.000000,0.0187109626
1447.000000,0.02147415158
1448.000000,0.02033430287
1449.000000,0.02390874705
1450.000000,0.02147585164
1451.000000,0.0241067972
1452.000000,0.02888211373
1453.000000,0.02699977418
1454.000000,0.02286717271
1455.000000,0.02464249821
1456.000000,0.02597091223
1457.000000,0.02934767257
1458.000000,0.02814672068
1459.000000,0.03395404727
1460.000000,0.03836334186
1461.000000,0.0403227291
1462.000000,0.03815657432
1463.000000,0.04214034158
1464.000000,0.04555063349
1465.000000,0.04847176102
1466.000000,0.05831758683
1467.000000,0.05887177735
1468.000000,0.06440267084
1469.000000,0.07499379695
1470.000000,0.08388117935
1471.000000,0.09690656871
1472.000000,0.1094064452
1473.000000,0.1204836282
1474.000000,0.1333882289
1475.000000,0.1579320362
1476.000000,0.1783763096
1477.000000,0.2004243321
1478.000000,0.2110533299
1479.000000,0.2240970047
1480.000000,0.2340823901
1481.000000,0.2298318919
1482.000000,0.2169622552
1483.000000,0.1967242457
1484.000000,0.1794039438
1485.000000,0.1554586694
1486.000000,0.1351959744
1487.000000,0.1208020715
1488.000000,0.1065455499
1489.000000,0.09551676851
1490.000000,0.08553829104
1491.000000,0.07075802078
1492.000000,0.06739786229
1493.000000,0.0614187815
1494.000000,0.05239022883
1495.000000,0.04978909327
1496.000000,0.04645725743
1497.000000,0.04381467457
1498.000000,0.03816031958
1499.000000,0.03609327675
1500.000000,0.03279525033
1501.000000,0.03375210903
1502.000000,0.03061282393
1503.000000,0.02852933817
1504.000000,0.02965556436
1505.000000,0.02675856487
1506.000000,0.02354415149
1507.000000,0.02732269366
1508.000000,0.02609387218
1509.000000,0.02423013301
1510.000000,0.02043660987
1511.000000,0.02415524837
1512.000000,0.02008091466
1513.000000,0.01690722138
1514.000000,0.01996203547
1515.000000,0.02343843522
1516.000000,0.01841803002
1517.000000,0.02014177642
1518.000000,0.02137949745
1519.000000,0.01863415742
1520.000000,0.01731514712
1521.000000,0.01769878547
1522.000000,0.0185982938
1523.000000,0.0161385826
1524.000000,0.01766483393
1525.000000,0.01788451028
1526.000000,0.01580149986
1527.000000,0.0178530069
1528.000000,0.0173717721
1529.000000,0.01542625928
1530.000000,0.01557476376
1531.000000,0.01605202411
1532.000000,0.01540827119
1533.000000,0.01518168986
1534.000000,0.01343862727
1535.000000,0.01563965835
1536.000000,0.01683130047
1537.000000,0.01656654131
1538.000000,0.01354738224
1539.000000,0.01628693019
1540.000000,0.01633576962
1541.000000,0.0132001183
1542.000000,0.01607808313
1543.000000,0.01464506265
1544.000000,0.01422160756
1545.000000,0.01542111604
1546.000000,0.01451786028
1547.000000,0.01044728137
1548.000000,0.0153548553
1549.000000,0.01268544606
1550.000000,0.01475814196
1551.000000,0.01632838307
1552.000000,0.01450900106
1553.000000,0.01410834975
1554.000000,0.01531132679
1555.000000,0.01607042343
1556.000000,0.01344386858
1557.000000,0.01390636435
1558.000000,0.01623164191
1559.000000,0.01850120302
1560.000000,0.0153667044
1561.000000,0.01720493888
1562.000000,0.01405325761
1563.000000,0.01564877285
1564.000000,0.01587842421
1565.000000,0.01327180291
1566.000000,0.01593173154
1567.000000,0.01572583034
1568.000000,0.01113876679
1569.000000,0.01621154024
1570.000000,0.0171395181
1571.000000,0.01720873483
1572.000000,0.01755535238
1573.000000,0.01490185263
1574.000000,0.0158763727
1575.000000,0.01720367601
1576.000000,0.01611908707
1577.000000,0.0172015607
1578.000000,0.02088001335
1579.000000,0.01702307701
1580.000000,0.01846883468
1581.000000,0.02320104586
1582.000000,0.01972542781
1583.000000,0.01847648418
1584.000000,0.02151038567
1585.000000,0.02193284212
1586.000000,0.02248346938
1587.000000,0.0196067089
1588.000000,0.02424079069
1589.000000,0.0252866836
1590.000000,0.02957866694
1591.000000,0.02790799473
1592.000000,0.0268918972
1593.000000,0.02972667977
1594.000000,0.03195568984
1595.000000,0.03207354768
1596.000000,0.03426960671
1597.000000,0.03936359977
1598.000000,0.04029517643
1599.000000,0.04348244097
1600.000000,0.04425666527
1601.000000,0.05144405086
1602.000000,0.05216541496
1603.000000,0.06486454004
1604.000000,0.06950453721
1605.000000,0.08160146632
1606.000000,0.09551467158
1607.000000,0.1061393401
1608.000000,0.1298914756
1609.000000,0.1514410093
1610.000000,0.1800150302
1611.000000,0.2042356419
1612.000000,0.2256154949
1613.000000,0.2396974571
1614.000000,0.2331366134
1615.000000,0.2158515311
1616.000000,0.1920728382
1617.000000,0.1765256637
1618.000000,0.1569269318
1619.000000,0.1459422417
1620.000000,0.1389791267
1621.000000,0.1393801341
1622.000000,0.1446205066
1623.000000,0.1528967963
1624.000000,0.1688131676
1625.000000,0.1918413158
1626.000000,0.2302046328
1627.000000,0.2784880787
1628.000000,0.3401219249
1629.000000,0.4235454329
1630.000000,0.5231210876
1631.000000,0.6053358383
1632.000000,0.6440983751
1633.000000,0.6064789685
1634.000000,0.517693611
1635.000000,0.4203972697
1636.000000,0.3332695365
1637.000000,0.261777433
1638.000000,0.208372741
1639.000000,0.1723887701
1640.000000,0.1434849171
1641.000000,0.1166934085
1642.000000,0.1004477824
1643.000000,0.08789225167
1644.000000,0.07437935638
1645.000000,0.06677135975
1646.000000,0.06507297015
1647.000000,0.05347960886
1648.000000,0.05269408552
1649.000000,0.04528063599
1650.000000,0.04527009979
1651.000000,0.04090028852
1652.000000,0.03939548698
1653.000000,0.03259277961
1654.000000,0.03387784995
1655.000000,0.03041153307
1656.000000,0.03145900488
1657.000000,0.02995751773
1658.000000,0.02763083255
1659.000000,0.02591655322
1660.000000,0.02512651072
1661.000000,0.02472230278
1662.000000,0.0223901592
1663.000000,0.02177147579
1664.000000,0.02066908715
1665.000000,0.01922582439
1666.000000,0.02276194368
1667.000000,0.01757599151
1668.000000,0.02222913678
1669.000000,0.02060676145
1670.000000,0.01542811716
1671.000000,0.01478983795
1672.000000,0.01806815081
1673.000000,0.01558244834
1674.000000,0.01762981424
1675.000000,0.01892294991
1676.000000,0.01747781039
1677.000000,0.01608825268
1678.000000,0.01590672194
1679.000000,0.01892703982
1680.000000,0.01510788637
1681.000000,0.01902640608
1682.000000,0.01944084361
1683.000000,0.01453161423
1684.000000,0.01566434551
1685.000000,0.0182936628
1686.000000,0.01340596864
1687.000000,0.01547691266
1688.000000,0.01656429053
1689.000000,0.01232849797
1690.000000,0.01497367671
1691.000000,0.01438323295
1692.000000,0.01297988327
1693.000000,0.01693914603
1694.000000,0.01353749123
1695.000000,0.01818838015
1696.000000,0.01501995195
1697.000000,0.01214030063
1698.000000,0.01395579803
1699.000000,0.01184999065
1700.000000,0.01488183096
1701.000000,0.01449296323
1702.000000,0.01078796383
1703.000000,0.01223765989
1704.000000,0.01391139773
1705.000000,0.01303052256
1706.000000,0.01092939116
1707.000000,0.01492472191
1708.000000,0.01539769295
1709.000000,0.009751280654
1710.000000,0.01549172584
1711.000000,0.008537006134
1712.000000,0.01221128296
1713.000000,0.01111862002
1714.000000,0.01128493696
1715.000000,0.01267425023
1716.000000,0.009987068256
1717.000000,0.01202098841
1718.000000,0.01547692828
1719.000000,0.01302693946
1720.000000,0.01501287055
1721.000000,0.01375245717
1722.000000,0.008839091217
1723.000000,0.01546394218
1724.000000,0.0136238576
1725.000000,0.01320534955
1726.000000,0.01114789989
1727.000000,0.01083142819
1728.000000,0.009768599865
1729.000000,0.01149710061
1730.000000,0.01198775584
1731.000000,0.01142904592
1732.000000,0.01140886122
1733.000000,0.007874837271
1734.000000,0.01017399584
1735.000000,0.01007642608
1736.000000,0.0121790382
1737.000000,0.01068318455
1738.000000,0.010658379
1739.000000,0.0116884166
1740.000000,0.01056303363
1741.000000,0.01091175107
1742.000000,0.01358251024
1743.000000,0.01110072985
1744.000000,0.009627235553
1745.000000,0.01254316832
1746.000000,0.01292009428
1747.000000,0.01256142212
1748.000000,0.008746510479
1749.000000,0.0131391494
1750.000000,0.01137397848
1751.000000,0.01152390614
1752.000000,0.01142390297
1753.000000,0.01213423336
1754.000000,0.01217640968
1755.000000,0.01407941183
1756.000000,0.01167950938
1757.000000,0.01102307696
1758.000000,0.012427248
1759.000000,0.01095791658
1760.000000,0.01327252196
1761.000000,0.01144226666
1762.000000,0.01257275228
1763.000000,0.01011599119
1764.000000,0.013029451
1765.000000,0.01230544582
1766.000000,0.009439280238
1767.000000,0.01034072774
1768.000000,0.01122371653
1769.000000,0.008489272899
1770.000000,0.008925036565
1771.000000,0.01196183328
1772.000000,0.01198317888
1773.000000,0.01359764989
1774.000000,0.008493808857
1775.000000,0.01026072461
1776.000000,0.007033203686
1777.000000,0.01433136008
1778.000000,0.008375131648
1779.000000,0.01044592313
1780.000000,0.01463937011
1781.000000,0.01366263152
1782.000000,0.009213825129
1783.000000,0.01524207456
1784.000000,0.01173731091
1785.000000,0.008861874123
1786.000000,0.01134773865
1787.000000,0.01206732228
1788.000000,0.01203503551
1789.000000,0.006693432371
1790.000000,0.01435169963
1791.000000,0.007677821934
1792.000000,0.01035681177
1793.000000,0.01353667707
1794.000000,0.01151609405
1795.000000,0.01067681263
1796.000000,0.009564736471
1797.000000,0.01184756999
1798.000000,0.01339895224
1799.000000,0.009655138852
1800.000000,0.01153590057
1801.000000,0.009988921966
1802.000000,0.009895096708
1803.000000,0.006684865058
1804.000000,0.01119942182
1805.000000,0.01251554411
1806.000000,0.01040831825
1807.000000,0.01272698103
1808.000000,0.01103952249
1809.000000,0.01307357883
1810.000000,0.01099230442
1811.000000,0.009997224419
1812.000000,0.009741626683
1813.000000,0.01087976727
1814.000000,0.0112629837
1815.000000,0.009181704853
1816.000000,0.010400842
1817.000000,0.008110230216
1818.000000,0.008089511618
1819.000000,0.0119291937
1820.000000,0.01138270057
1821.000000,0.0123876168
1822.000000,0.01094720571
1823.000000,0.01114896811
1824.000000,0.01421110469
1825.000000,0.009048915936
1826.000000,0.01121379188
1827.000000,0.01368750566
1828.000000,0.01456809996
1829.000000,0.01173058829
1830.000000,0.010426718
1831.000000,0.008602532602
1832.000000,0.0103211824
1833.000000,0.01090891486
1834.000000,0.01064452894
1835.000000,0.01157569796
1836.000000,0.01169049352
1837.000000,0.009687130028
1838.000000,0.008869694844
1839.000000,0.01001945612
1840.000000,0.01141001621
1841.000000,0.01370572611
1842.000000,0.007427931179
1843.000000,0.01261117975
1844.000000,0.01000027436
1845.000000,0.01264775593
1846.000000,0.01415282621
1847.000000,0.01149058062
1848.000000,0.008334169537
1849.000000,0.009717654601
1850.000000,0.01120821486
1851.000000,0.009874976842
1852.000000,0.01037056699
1853.000000,0.009012916553
1854.000000,0.01006681873
1855.000000,0.00929186904
1856.000000,0.01212605012
1857.000000,0.01106481507
1858.000000,0.01189058416
1859.000000,0.007347151976
1860.000000,0.00960345001
1861.000000,0.009041171452
1862.000000,0.009634050552
1863.000000,0.008778469652
1864.000000,0.009068309858
1865.000000,0.01346350065
1866.000000,0.009930249994
1867.000000,0.008041005235
1868.000000,0.00987466815
1869.000000,0.01473562292
1870.000000,0.01178383521
1871.000000,0.008654273692
1872.000000,0.009947676979
1873.000000,0.0102838115
1874.000000,0.01048524155
1875.000000,0.006876024176
1876.000000,0.008600948704
1877.000000,0.01008322191
1878.000000,0.007111264482
1879.000000,0.01004841043
1880.000000,0.01053146972
1881.000000,0.01187239651
1882.000000,0.01241775938
1883.000000,0.0100335258
1884.000000,0.01081597018
1885.000000,0.01167649031
1886.000000,0.01231612381
1887.000000,0.01052165855
1888.000000,0.008943511093
1889.000000,0.01150712516
1890.000000,0.01200215629
1891.000000,0.01065480326
1892.000000,0.0114655103
1893.000000,0.01341045874
1894.000000,0.009409368886
1895.000000,0.009030169591
1896.000000,0.008297541411
1897.000000,0.01103476624
1898.000000,0.01217536952
1899.000000,0.009400609368
1900.000000,0.01382150333
1901.000000,0.009256271925
1902.000000,0.01088177603
1903.000000,0.01014768194
1904.000000,0.01300815969
1905.000000,0.00916393268
1906.000000,0.01351085366
1907.000000,0.01003207052
1908.000000,0.007805792876
1909.000000,0.00927597795
1910.000000,0.01005423192
1911.000000,0.01356647327
1912.000000,0.009443521573
1913.000000,0.01033764034
1914.000000,0.01431444291
1915.000000,0.01064844278
1916.000000,0.009144333507
1917.000000,0.008930364478
1918.000000,0.007359370786
1919.000000,0.01100936875
1920.000000,0.01263823767
1921.000000,0.009627285723
1922.000000,0.008299666132
1923.000000,0.01083284648
1924.000000,0.01031603844
1925.000000,0.01002789645
1926.000000,0.01114563464
1927.000000,0.01034247052
1928.000000,0.009577861578
1929.000000,0.01217965372
1930.000000,0.006720809258
1931.000000,0.008099244151
1932.000000,0.009718437017
1933.000000,0.007657502229
1934.000000,0.01311919882
1935.000000,0.006045216389
1936.000000,0.01156973213
1937.000000,0.01130611487
1938.000000,0.01086955234
1939.000000,0.01102661356
1940.000000,0.009119380089
1941.000000,0.008828385386
1942.000000,0.01291588114
1943.000000,0.009918087265
1944.000000,0.007394483599
1945.000000,0.007826830157
1946.000000,0.007243455173
1947.000000,0.01070276341
1948.000000,0.01237867946
1949.000000,0.009588445821
1950.000000,0.01045917996
1951.000000,0.009220054094
1952.000000,0.01189548944
1953.000000,0.0118808524
1954.000000,0.0119802013
1955.000000,0.01365850133
1956.000000,0.00786366795
1957.000000,0.01176306074
1958.000000,0.007261307967
1959.000000,0.01162464001
1960.000000,0.01181005004
1961.000000,0.01164577151
1962.000000,0.01180406683
1963.000000,0.01002507114
1964.000000,0.009069681455
1965.000000,0.01175192306
1966.000000,0.009095035852
1967.000000,0.01165084017
1968.000000,0.00868023251
1969.000000,0.01094683153
1970.000000,0.01085328796
1971.000000,0.008711029181
1972.000000,0.009696692279
1973.000000,0.01205269547
1974.000000,0.01036968956
1975.000000,0.01130187556
1976.000000,0.00926673577
1977.000000,0.01052763725
1978.000000,0.00751389521
1979.000000,0.008841315532
1980.000000,0.01268568666
1981.000000,0.01134771004
1982.000000,0.01033558646
1983.000000,0.01057083108
1984.000000,0.007749960552
1985.000000,0.01109778871
1986.000000,0.007970441244
1987.000000,0.008906115666
1988.000000,0.01160678362
1989.000000,0.008879340563
1990.000000,0.009297945134
1991.000000,0.01010038831
1992.000000,0.01044960688
1993.000000,0.01280000767
1994.000000,0.007007569823
1995.000000,0.009464121061
1996.000000,0.01134978896
1997.000000,0.009298432788
1998.000000,0.009472377092
1999.000000,0.008671336879
2000.000000,0.009624758671
