pixel_index,raman_shift_cm-1,intensity
0,200.000,0.007408957955420766
1,201.000,0.005047539578285975
2,202.000,0.005158728737603635
3,203.000,0.00022832544204481572
4,204.000,0.0051428930979273545
5,205.000,0.0030894502036179685
6,206.000,0.005748093838078633
7,207.000,0.0011354446225351027
8,208.000,0.0016678209124249051
9,209.000,0.00030923849709068327
10,210.000,4.049735467187777e-05
11,211.000,0.0028006930092196506
12,212.000,0.0036787294526169204
13,213.000,-0.0007942723359746314
14,214.000,0.006138190810047452
15,215.000,0.002690488121391006
16,216.000,0.0019180430446932688
17,217.000,0.0016178795436235498
18,218.000,0.004517329386659211
19,219.000,0.0004491932516284831
20,220.000,0.0011839670934001812
21,221.000,0.001175957093275686
22,222.000,0.00301357969188529
23,223.000,0.0027595528907080028
24,224.000,-2.4862456133321496e-05
25,225.000,0.0050292862927220836
26,226.000,0.0036317568144884267
27,227.000,0.0016808812497875875
28,228.000,0.004469584682797917
29,229.000,0.004646408155566982
30,230.000,0.0030408412322752714
31,231.000,0.0029223040202802347
32,232.000,0.0056801251088143215
33,233.000,0.005734596952306031
34,234.000,0.003394426037834013
35,235.000,0.0031390945157889014
36,236.000,0.004890886674434742
37,237.000,-4.549262101161498e-05
38,238.000,0.003653368914271246
39,239.000,0.002271006531747327
40,240.000,0.006186291209658035
41,241.000,0.008766745804137853
42,242.000,0.0047904399486946485
43,243.000,0.011298480718769037
44,244.000,0.005157999015739027
45,245.000,0.009408999085637335
46,246.000,0.003832912676860849
47,247.000,0.0065999594870700395
48,248.000,0.006903975180851602
49,249.000,0.003613242361229726
50,250.000,0.008932639370309773
51,251.000,0.009348028111445495
52,252.000,0.004932803110233241
53,253.000,0.009687355561654773
54,254.000,0.008005642005211545
55,255.000,0.0071319601241917495
56,256.000,0.010769834474944123
57,257.000,0.010775350736624353
58,258.000,0.012215084632892066
59,259.000,0.007858506586257172
60,260.000,0.014251965783102873
61,261.000,0.009795569810109223
62,262.000,0.01670198869234904
63,263.000,0.015704109108410514
64,264.000,0.016720489983693153
65,265.000,0.016328658169477955
66,266.000,0.020339199932891773
67,267.000,0.02168667447683437
68,268.000,0.021660845326345927
69,269.000,0.027416157306822713
70,270.000,0.023459461406666566
71,271.000,0.03444585343811483
72,272.000,0.03797847224512766
73,273.000,0.04264651645321131
74,274.000,0.05032098742425419
75,275.000,0.06287400701865146
76,276.000,0.06784934999648458
77,277.000,0.07924591143292327
78,278.000,0.089489161742884
79,279.000,0.10203219290333324
80,280.000,0.11581754019166497
81,281.000,0.11924758345222232
82,282.000,0.12289609367837666
83,283.000,0.1247613737527312
84,284.000,0.11407009637689995
85,285.000,0.10352787810780298
86,286.000,0.09358121011073434
87,287.000,0.07506416197825876
88,288.000,0.06842795639288023
89,289.000,0.059394718011466244
90,290.000,0.05101996316366713
91,291.000,0.04498380546831715
92,292.000,0.04163644850558602
93,293.000,0.03193368799188489
94,294.000,0.029203172942845447
95,295.000,0.028289662515480714
96,296.000,0.02355637029655528
97,297.000,0.023610619708285634
98,298.000,0.019690493368623822
99,299.000,0.01557141492041177
100,300.000,0.02013754014161002
101,301.000,0.011910565595883901
102,302.000,0.009689087016945147
103,303.000,0.01890057213808767
104,304.000,0.01868348567227426
105,305.000,0.008925838491344392
106,306.000,0.009406826365838242
107,307.000,0.013690871769347088
108,308.000,0.008011074006229944
109,309.000,0.009434910190117225
110,310.000,0.010271517057217891
111,311.000,0.007803571815344499
112,312.000,0.006974503702232313
113,313.000,0.0053049071249663534
114,314.000,0.0075950620951207555
115,315.000,0.009100857291677556
116,316.000,0.006887006883924944
117,317.000,0.008718444046223585
118,318.000,0.011124165510749882
119,319.000,0.0050249571216795285
120,320.000,0.008597709488387468
121,321.000,0.0049047400560675155
122,322.000,0.006668814496426597
123,323.000,0.007385679689689891
124,324.000,0.0053475058317837085
125,325.000,0.00708290289799575
126,326.000,0.005028494249895056
127,327.000,0.006067169070363125
128,328.000,0.00961324634459349
129,329.000,0.009711239969426834
130,330.000,0.006612204540766538
131,331.000,0.005886626271666702
132,332.000,0.007962595795271164
133,333.000,0.009132190513676431
134,334.000,0.005143588414370153
135,335.000,0.0037237181632527433
136,336.000,0.005000230670945164
137,337.000,0.005305200237593322
138,338.000,0.008998211766218508
139,339.000,0.006191919916784844
140,340.000,0.0015104233903937337
141,341.000,0.005184608657149917
142,342.000,0.006750963728591288
143,343.000,0.006128970082107127
144,344.000,0.004952586799676007
145,345.000,0.004484059264732363
146,346.000,0.0008008630185970143
147,347.000,0.004003011523649951
148,348.000,0.009619555163945546
149,349.000,0.007759564639148403
150,350.000,0.0028473361048402825
151,351.000,0.0015585207574604295
152,352.000,0.0005971760065277912
153,353.000,0.005807848277282563
154,354.000,0.005185636737762057
155,355.000,0.006211006333209382
156,356.000,0.009004165046922323
157,357.000,0.004502287788382494
158,358.000,0.003834161918851215
159,359.000,0.003980285191907371
160,360.000,0.0037908261104407687
161,361.000,0.003509269353945592
162,362.000,0.0036681833464237345
163,363.000,0.005092502736749246
164,364.000,0.00607757969084759
165,365.000,0.009125027863702475
166,366.000,0.0004219887922718856
167,367.000,0.004278627011738802
168,368.000,0.003438076794892811
169,369.000,0.0076447787229752895
170,370.000,0.00410527821621244
171,371.000,0.003515796604393996
172,372.000,0.0040277326835899165
173,373.000,0.006439706060186026
174,374.000,0.007900401262215787
175,375.000,0.005460601763070253
176,376.000,0.005807597195023659
177,377.000,0.003833476528843913
178,378.000,0.006411532208087385
179,379.000,0.007343009919735813
180,380.000,0.006190690725625219
181,381.000,0.005959562514622744
182,382.000,0.004349993127653542
183,383.000,0.005135019182090372
184,384.000,0.003198452243865324
185,385.000,0.0037724613060746673
186,386.000,0.0018170981630980605
187,387.000,0.004814525828385006
188,388.000,-0.0009199751686193886
189,389.000,0.007495190545650691
190,390.000,0.005074594892389588
191,391.000,0.006518722835334446
192,392.000,0.006723337640818927
193,393.000,0.003858170704143986
194,394.000,0.009768468218484126
195,395.000,0.0067976434511426865
196,396.000,0.0031632334678311723
197,397.000,0.00457081082729752
198,398.000,0.0022996805355334385
199,399.000,0.0027590302576921836
200,400.000,0.004242934016233894
201,401.000,0.003239912789408596
202,402.000,0.003734582785398901
203,403.000,0.0027450917547173583
204,404.000,0.0066186095990239885
205,405.000,0.00939436654097398
206,406.000,0.0038439166949758813
207,407.000,0.002377593096973108
208,408.000,0.004655789100807775
209,409.000,0.005160468075019507
210,410.000,0.004915501404997759
211,411.000,-0.00042700699339847254
212,412.000,0.007790430295102207
213,413.000,0.005803305450772658
214,414.000,0.004238000487620177
215,415.000,0.0067854191954554366
216,416.000,0.002006008655260865
217,417.000,0.008351532438419367
218,418.000,0.005182966667022393
219,419.000,0.005137155366430384
220,420.000,0.008761029516373454
221,421.000,0.008490320442481917
222,422.000,0.009631010349953789
223,423.000,0.006157879829647656
224,424.000,0.00781458655211373
225,425.000,0.006452932201975664
226,426.000,0.006954790559518856
227,427.000,0.003327438910628864
228,428.000,0.0059028180541701464
229,429.000,0.006447490048799822
230,430.000,0.005376106265969619
231,431.000,0.00795367200867655
232,432.000,0.005291557586444561
233,433.000,0.006140151080117673
234,434.000,6.955161729351249e-05
235,435.000,0.002189379866491698
236,436.000,0.005989638721401499
237,437.000,0.002830069528239441
238,438.000,0.0038155434107270537
239,439.000,0.005471898817152359
240,440.000,0.007700745169794019
241,441.000,0.002428020656504724
242,442.000,0.004384093680156465
243,443.000,0.00848983819083143
244,444.000,0.0030962700485863137
245,445.000,0.0071628518384125395
246,446.000,0.005179540150135109
247,447.000,0.0049726178823125584
248,448.000,0.0024380865432598745
249,449.000,0.005571482322653537
250,450.000,0.005887003468768215
251,451.000,0.0059006238908908
252,452.000,0.002628368504939038
253,453.000,0.005584421713488
254,454.000,0.005216437033587017
255,455.000,0.006291130595945607
256,456.000,0.005659405263241416
257,457.000,0.0021406727400927277
258,458.000,0.0030501561057474816
259,459.000,0.0031494025774627165
260,460.000,0.007158293290672376
261,461.000,0.006571569719511576
262,462.000,0.0027993083070153657
263,463.000,-0.0001532699968167619
264,464.000,0.005422101837312633
265,465.000,0.004358676001239066
266,466.000,0.0073122544451503365
267,467.000,0.004895729184173594
268,468.000,0.0027438678955063406
269,469.000,0.004959691752095256
270,470.000,0.00525439884579211
271,471.000,0.006747570912000676
272,472.000,0.00358772880343965
273,473.000,0.00438067917790731
274,474.000,0.006549736399741003
275,475.000,0.0023810684191124818
276,476.000,0.006430807831568315
277,477.000,0.0086832023648427
278,478.000,0.0018815553761843632
279,479.000,0.004835135485617932
280,480.000,0.003423499883305948
281,481.000,0.00379041046191072
282,482.000,0.0077512861532231915
283,483.000,0.009512264518170409
284,484.000,0.007020434431363577
285,485.000,0.00571552518795954
286,486.000,0.005357425460277951
287,487.000,0.0008702657862292197
288,488.000,0.007318037401616636
289,489.000,-0.00016350486399659353
290,490.000,0.004674301764357227
291,491.000,0.007987320919089845
292,492.000,0.007980458229633558
293,493.000,0.0077889694891859805
294,494.000,0.0034746754632388795
295,495.000,0.002587877572319562
296,496.000,0.0013462359684312194
297,497.000,0.0075736346007260385
298,498.000,0.006787033199126361
299,499.000,0.003278298262572712
300,500.000,0.008148130669889756
301,501.000,0.0030416205641805583
302,502.000,0.001351280987192276
303,503.000,0.004491644047882142
304,504.000,0.006421869788896538
305,505.000,0.0036239379728729365
306,506.000,0.0065984066967198305
307,507.000,0.002943595777986841
308,508.000,-6.563621264760545e-05
309,509.000,0.004420537098022117
310,510.000,0.004149815150805448
311,511.000,0.00498215095990122
312,512.000,0.004857214884252391
313,513.000,0.0075543567267080045
314,514.000,0.0031687922584995067
315,515.000,0.0016696265653506335
316,516.000,0.004820438373901478
317,517.000,0.004715062954088124
318,518.000,0.006218402627247724
319,519.000,0.008213749895685312
320,520.000,0.005170224780030831
321,521.000,0.004430526972125634
322,522.000,0.004228163996510798
323,523.000,0.007914895168707053
324,524.000,0.005219506247996544
325,525.000,0.008520572228316951
326,526.000,0.0018577131781856977
327,527.000,0.006965075815309721
328,528.000,0.0064362738342059874
329,529.000,0.0031020734403679824
330,530.000,0.004767113755517519
331,531.000,0.003231855085365233
332,532.000,0.010152760529508711
333,533.000,0.0017179567368255664
334,534.000,0.006649114484755827
335,535.000,0.006437889082992945
336,536.000,0.004441495886702531
337,537.000,0.005599176555587973
338,538.000,0.006836522680243532
339,539.000,-7.103272842635905e-05
340,540.000,0.006778499828235131
341,541.000,0.0004728023344234731
342,542.000,0.004089802216688993
343,543.000,0.008616346664925393
344,544.000,0.002026775464186954
345,545.000,0.0043873070986127265
346,546.000,0.0066950551878183565
347,547.000,0.002168249933940859
348,548.000,0.00592046265324556
349,549.000,0.003434328258005494
350,550.000,0.004534866843145281
351,551.000,0.003835211291385368
352,552.000,0.004810462362519441
353,553.000,0.006514520961115909
354,554.000,0.008795761339804472
355,555.000,0.004025869845897573
356,556.000,0.0032815349331996755
357,557.000,0.0021122185728405796
358,558.000,0.005632700749019151
359,559.000,0.0053517646636361904
360,560.000,0.006196225856397428
361,561.000,0.0027081612407511223
362,562.000,0.002916767609734244
363,563.000,0.007188135675973897
364,564.000,0.0075649685338512905
365,565.000,0.007507877141840697
366,566.000,0.0010946956208559514
367,567.000,0.005667734948946281
368,568.000,0.006009151414375538
369,569.000,0.005907080977696924
370,570.000,0.004754259328890389
371,571.000,0.007724013722786427
372,572.000,0.002010194417291976
373,573.000,0.004174197666071631
374,574.000,0.0024100400888929373
375,575.000,0.0043950138895136335
376,576.000,0.006769878956106755
377,577.000,0.005296468067536921
378,578.000,0.0026709175407947723
379,579.000,0.006476936059525008
380,580.000,0.005041695600943004
381,581.000,0.003174150198630551
382,582.000,0.012316671407193969
383,583.000,0.0065184665740506105
384,584.000,0.004596179848236354
385,585.000,0.003194058283301441
386,586.000,0.0044118180496758065
387,587.000,0.00516462554800116
388,588.000,0.0038165386200727184
389,589.000,0.0021481469245034335
390,590.000,0.0062288396693139375
391,591.000,0.002665379634675387
392,592.000,0.007514366298726028
393,593.000,0.004386476418150318
394,594.000,0.004393667627517885
395,595.000,0.0038197406701703665
396,596.000,0.00421513823597453
397,597.000,0.0050297693990262815
398,598.000,0.0055572148856430975
399,599.000,0.006332852975012924
400,600.000,0.007691281353787258
401,601.000,0.0041789129721451915
402,602.000,0.003461052634539792
403,603.000,0.0043818896731870885
404,604.000,0.006084746368465688
405,605.000,0.0046517442978522274
406,606.000,0.0003224863448216282
407,607.000,0.0026882004497045075
408,608.000,0.0033936967963304914
409,609.000,0.005198418524460834
410,610.000,0.00280999210530714
411,611.000,0.004838571600260923
412,612.000,0.003154598515343422
413,613.000,0.0038351526426072834
414,614.000,0.006575846647178027
415,615.000,0.007392905183004438
416,616.000,0.004595325784354767
417,617.000,0.001090281554306514
418,618.000,0.0005235044044517012
419,619.000,0.005225178265250343
420,620.000,0.004443346939409907
421,621.000,0.002187148795783285
422,622.000,0.0034215820746142118
423,623.000,0.0057752622333005115
424,624.000,0.005461200872468084
425,625.000,0.004977815620480649
426,626.000,0.004270870911337409
427,627.000,0.006498071446396569
428,628.000,0.009281751007247365
429,629.000,0.0033773497083231198
430,630.000,0.0043636722579914545
431,631.000,0.004413372107585721
432,632.000,0.0062084330696820286
433,633.000,0.0062106276724228195
434,634.000,0.00234491445268855
435,635.000,0.004811057004412472
436,636.000,0.006738732236628679
437,637.000,0.004125421048303074
438,638.000,0.003894940030786986
439,639.000,0.0038577594355905308
440,640.000,0.00528758029499556
441,641.000,0.004884393204664571
442,642.000,0.006674538499253232
443,643.000,0.006117249661842632
444,644.000,0.007547346592823378
445,645.000,-0.00031804062719230076
446,646.000,0.003138933494474521
447,647.000,0.0020388307952160347
448,648.000,0.0027560593866706633
449,649.000,0.005845447798789174
450,650.000,0.0037007666004823434
451,651.000,0.003859187391836463
452,652.000,0.005955711456357664
453,653.000,0.004294183021622775
454,654.000,0.002986328605041904
455,655.000,0.008059920959818409
456,656.000,0.004040459695153182
457,657.000,0.0033536067985896222
458,658.000,0.004721150823252899
459,659.000,0.0060481419079712025
460,660.000,0.0038971449040597983
461,661.000,0.006175219921476071
462,662.000,0.001478803213703418
463,663.000,0.004716626287690494
464,664.000,0.006319617633843918
465,665.000,0.004884857066606106
466,666.000,0.00807917726873924
467,667.000,0.0017083306847208745
468,668.000,0.005673659137196689
469,669.000,0.003295172349806497
470,670.000,0.0011495052285231827
471,671.000,0.0035433190979089623
472,672.000,0.007354561204676038
473,673.000,0.002758555625112948
474,674.000,0.004226183764461522
475,675.000,0.003616780153333574
476,676.000,0.006212862097058673
477,677.000,0.003060784609251019
478,678.000,0.004414356589488579
479,679.000,0.009096536207673386
480,680.000,0.0056354509436090956
481,681.000,0.005042666874602438
482,682.000,0.0020784209144645
483,683.000,0.006287773324547543
484,684.000,0.009282123153570904
485,685.000,0.0043222183728837005
486,686.000,0.004452275652613323
487,687.000,0.006609499623232482
488,688.000,0.003907041892612927
489,689.000,0.005968952294897227
490,690.000,0.006739410045523911
491,691.000,0.008920590574935786
492,692.000,0.00932867003483762
493,693.000,0.007793138698912032
494,694.000,0.0048009124120151694
495,695.000,0.013229636084676272
496,696.000,0.009006353716873628
497,697.000,0.00943633036354608
498,698.000,0.008818562617723512
499,699.000,0.014345267052390398
500,700.000,0.016189875100399313
501,701.000,0.015606762553342864
502,702.000,0.017068548348154317
503,703.000,0.019916535418223778
504,704.000,0.016943871100278195
505,705.000,0.025871171460026734
506,706.000,0.027873615569451927
507,707.000,0.03764408192614588
508,708.000,0.045129752098477256
509,709.000,0.05191474990700716
510,710.000,0.06827815187415343
511,711.000,0.07878514122918176
512,712.000,0.08198740148075938
513,713.000,0.07843929752363242
514,714.000,0.06637024890714502
515,715.000,0.05426559108998696
516,716.000,0.043368664123290976
517,717.000,0.03402363820616504
518,718.000,0.027764218816597498
519,719.000,0.02320553868279131
520,720.000,0.01964170961014172
521,721.000,0.0132326673764361
522,722.000,0.014523743182860746
523,723.000,0.015471957358462778
524,724.000,0.014120122102900541
525,725.000,0.00892770203722025
526,726.000,0.007962409810777862
527,727.000,0.009538384091679385
528,728.000,0.009657058124032704
529,729.000,0.009176781525843511
530,730.000,0.0032089711552807892
531,731.000,0.00860805714053941
532,732.000,0.009667991084964628
533,733.000,0.010534572134706483
534,734.000,0.006530102969342822
535,735.000,0.00794459076751584
536,736.000,0.0052401077683632055
537,737.000,0.008278850888007953
538,738.000,0.002810514276428455
539,739.000,0.004734161501308725
540,740.000,0.003315346320810485
541,741.000,0.006257996932708199
542,742.000,0.004447735418040662
543,743.000,0.003863284636215209
544,744.000,0.008068068623963892
545,745.000,0.0035044610190291267
546,746.000,0.007113632686122312
547,747.000,0.003407703348730155
548,748.000,0.0024165482219274614
549,749.000,1.8020579134675105e-05
550,750.000,0.004593226889644136
551,751.000,0.005642457954181664
552,752.000,0.003843449474553339
553,753.000,0.006983983531217631
554,754.000,0.0056401640407621155
555,755.000,0.004927627263455873
556,756.000,0.005669166682507481
557,757.000,0.005880769279736403
558,758.000,0.009433460167392892
559,759.000,0.0028029526444499813
560,760.000,0.002456134552086938
561,761.000,0.006003631504259798
562,762.000,0.0045859427036296484
563,763.000,0.002467491886100203
564,764.000,0.004908672606485944
565,765.000,0.0036317183648204407
566,766.000,0.0018895172425540316
567,767.000,0.005878488127586727
568,768.000,0.0026979743214797743
569,769.000,0.005539519454386692
570,770.000,0.0034503254429875323
571,771.000,0.007537871426712468
572,772.000,0.0052817141182411815
573,773.000,0.0051183866665835505
574,774.000,0.004870149068383846
575,775.000,0.006445246445245992
576,776.000,0.0004139379788069859
577,777.000,0.001056267677641556
578,778.000,0.006491299912687081
579,779.000,0.005230869917209047
580,780.000,0.0008493133595261847
581,781.000,0.00315980580385912
582,782.000,0.0033587674877549856
583,783.000,0.008369897652015101
584,784.000,0.00243019231796033
585,785.000,0.006914539723110026
586,786.000,0.0024476288792245025
587,787.000,0.0033000279502808285
588,788.000,0.00531440853703261
589,789.000,0.0025029365221598135
590,790.000,0.004770228059333143
591,791.000,0.00455513676401279
592,792.000,0.005929722226169078
593,793.000,0.0036202569389252675
594,794.000,0.00360815575164813
595,795.000,0.002627383325285152
596,796.000,-0.001142838557514529
597,797.000,0.002428184185541104
598,798.000,0.0033682807948981672
599,799.000,0.008658626071899241
600,800.000,5.078423914946597e-05
601,801.000,0.0015569059800503223
602,802.000,0.006931598984648346
603,803.000,0.003173150512698749
604,804.000,0.008387634376212384
605,805.000,0.005023458857539597
606,806.000,0.0027843381856892824
607,807.000,0.0037599331765929317
608,808.000,0.005016598867775304
609,809.000,0.005153882206319069
610,810.000,0.005020203655601698
611,811.000,0.0036051602395866735
612,812.000,0.007399407955696417
613,813.000,0.005743870279286752
614,814.000,0.0030972078369623794
615,815.000,0.0036690992134737078
616,816.000,0.0027399870727251568
617,817.000,0.0048385282546395516
618,818.000,0.005981843345835696
619,819.000,0.0045048549469398355
620,820.000,0.0034392910890354276
621,821.000,0.0019096812593513057
622,822.000,0.0044155388451148705
623,823.000,0.0028907730690449092
624,824.000,0.004620548465259166
625,825.000,0.006203945379817339
626,826.000,0.0066263697008443504
627,827.000,0.00985988298077267
628,828.000,0.005940596263211815
629,829.000,0.00028919686657749
630,830.000,0.006041359193037517
631,831.000,0.0017946896998819856
632,832.000,0.0023817141519207703
633,833.000,0.0027285892166427563
634,834.000,-0.00045464377681562026
635,835.000,0.004187504931468796
636,836.000,0.0032065272542715594
637,837.000,0.005345136115710684
638,838.000,0.0064564964759098314
639,839.000,0.005415033867482381
640,840.000,0.003350960903794609
641,841.000,0.005051339209863767
642,842.000,0.0037778436686946317
643,843.000,0.001953867126598417
644,844.000,0.0029426336831794267
645,845.000,0.002066479202677848
646,846.000,0.0021019286658613963
647,847.000,0.0029872220554919096
648,848.000,0.0064713358756469126
649,849.000,0.005894687203689435
650,850.000,0.007958253142173317
651,851.000,0.0056197238961773165
652,852.000,0.0028438442912475884
653,853.000,4.374800087882544e-06
654,854.000,0.007191609513466596
655,855.000,0.0050978753380651
656,856.000,-6.024714592120004e-05
657,857.000,0.007174300029058276
658,858.000,0.0068102179557808125
659,859.000,0.0017874505309364561
660,860.000,-9.240907347981669e-05
661,861.000,0.004385109407121587
662,862.000,0.0024649147845533905
663,863.000,0.0025281373469768576
664,864.000,0.002511143841950909
665,865.000,0.0021088786626910242
666,866.000,0.003956123812778219
667,867.000,0.0065643694169266915
668,868.000,0.0035265519800650614
669,869.000,0.007021354432825891
670,870.000,0.0012204119003668156
671,871.000,0.005415621644226997
672,872.000,0.005168058664711809
673,873.000,0.003459356119063724
674,874.000,0.006095133645243377
675,875.000,0.0010630263130628728
676,876.000,0.0031002261560789017
677,877.000,0.005540983441815146
678,878.000,0.00752068933680201
679,879.000,0.004874970174050204
680,880.000,0.004599151040203399
681,881.000,0.002180531918573132
682,882.000,0.004199880333015944
683,883.000,0.0020327535629345024
684,884.000,-0.0009015295248774614
685,885.000,0.004189812685806791
686,886.000,0.0017351880004335305
687,887.000,0.005285030519050669
688,888.000,0.002446423352442326
689,889.000,0.002394770873868525
690,890.000,0.005198346032757166
691,891.000,0.0016135598668343017
692,892.000,0.00806545524329473
693,893.000,0.003949665505830082
694,894.000,0.0015365873662649542
695,895.000,0.006277377452095868
696,896.000,0.0010271014963914881
697,897.000,0.006329270867201019
698,898.000,0.006428404455396318
699,899.000,0.00539134755018411
700,900.000,0.0015591795245010083
701,901.000,0.006031324716155126
702,902.000,0.006256853734067619
703,903.000,0.003858038542468966
704,904.000,0.004646832522821565
705,905.000,0.00026794807837440837
706,906.000,0.004961026371887097
707,907.000,0.002541352524320702
708,908.000,0.004910077764254648
709,909.000,0.0031443728083273993
710,910.000,0.005729368310150886
711,911.000,0.00364693678514244
712,912.000,0.005525409111529638
713,913.000,0.002590296615576
714,914.000,0.0011779338490072633
715,915.000,0.0011903759473672379
716,916.000,0.002875061902100628
717,917.000,0.004732342637075012
718,918.000,0.0018871908720703796
719,919.000,0.005734291890792149
720,920.000,0.00098596666920282
721,921.000,0.0043220281483112594
722,922.000,0.007279846618808661
723,923.000,0.006752969951107242
724,924.000,0.004736659024031869
725,925.000,0.0015827326810599353
726,926.000,0.0020703814640805423
727,927.000,0.0022670983644754463
728,928.000,0.002638365869556082
729,929.000,0.0014132637190433434
730,930.000,0.005531167603809762
731,931.000,0.003968220234973211
732,932.000,0.0013064012435316913
733,933.000,0.0034811065010373478
734,934.000,0.006307071898392055
735,935.000,0.002336671104769309
736,936.000,0.006565041341577693
737,937.000,0.0019513319790546654
738,938.000,0.0007162827964440639
739,939.000,0.0043377746429214565
740,940.000,0.007491025472642764
741,941.000,0.0033876177462782344
742,942.000,0.00011174701318172786
743,943.000,0.0019271836490379803
744,944.000,0.004700392306699588
745,945.000,0.004724282568240523
746,946.000,0.0027608084591017354
747,947.000,0.00378854380388862
748,948.000,0.003379036227611266
749,949.000,0.0015628332578362448
750,950.000,0.0030968147360416775
751,951.000,0.0042783011024408535
752,952.000,0.004783842878225358
753,953.000,0.007114275405932004
754,954.000,0.004060682215008735
755,955.000,0.000379623615466155
756,956.000,0.00044768346197273105
757,957.000,0.0022427963446323158
758,958.000,0.003439257184645601
759,959.000,0.001807974534792941
760,960.000,0.006563860218796019
761,961.000,0.0004911184615439562
762,962.000,0.003014847008529372
763,963.000,0.0004390821934119998
764,964.000,0.0037650391829111233
765,965.000,0.005450362083584825
766,966.000,0.0016387488601178508
767,967.000,0.0026204893070325085
768,968.000,0.003112750882082413
769,969.000,0.006272095248194938
770,970.000,-0.0008396776432849944
771,971.000,0.0025025178242660323
772,972.000,0.006868555588035603
773,973.000,0.005015707766296147
774,974.000,0.0008277592556801522
775,975.000,0.00618400539955922
776,976.000,0.006306679580800431
777,977.000,0.0035441172911948398
778,978.000,0.0058111548354243215
779,979.000,0.007953344017579408
780,980.000,0.005037191046297367
781,981.000,0.007994283196292069
782,982.000,0.0036110183890054118
783,983.000,0.006252177624750329
784,984.000,0.004051983752345448
785,985.000,0.0007281514034859285
786,986.000,0.003031418569552803
787,987.000,0.003784026972883721
788,988.000,0.0055303281830727195
789,989.000,0.005658380322039116
790,990.000,0.0020014554209724826
791,991.000,0.004361575436958698
792,992.000,0.003985012018438832
793,993.000,0.005493060142273552
794,994.000,0.005490602441441961
795,995.000,0.0011170617909758318
796,996.000,0.003861614484547894
797,997.000,0.0017640830411515575
798,998.000,0.005609304525565514
799,999.000,-0.001216206714425795
800,1000.000,0.002354738407668834
801,1001.000,0.002856382748160484
802,1002.000,0.004955525064841078
803,1003.000,0.0032932957339606665
804,1004.000,0.0032090483564405753
805,1005.000,0.00583663436884501
806,1006.000,0.0033538816873996203
807,1007.000,0.006280783999709903
808,1008.000,0.005300984721447004
809,1009.000,0.0016565325534626475
810,1010.000,0.0033660045412553874
811,1011.000,0.004385733399591935
812,1012.000,0.005928461371584183
813,1013.000,0.003153431572318109
814,1014.000,0.003970077038519822
815,1015.000,0.005288736279843298
816,1016.000,0.0074415158588866295
817,1017.000,0.008734452157647787
818,1018.000,0.005976692953736662
819,1019.000,0.006655868053849374
820,1020.000,0.009705581142781205
821,1021.000,0.0020626651595596047
822,1022.000,0.004582693444125945
823,1023.000,0.003563167034314997
824,1024.000,0.008039964031351854
825,1025.000,0.004004742520968831
826,1026.000,0.0037733898761956085
827,1027.000,0.0026196083999787717
828,1028.000,0.003149256129002039
829,1029.000,0.005750761252336258
830,1030.000,0.00648313912169673
831,1031.000,0.004275573908019431
832,1032.000,0.0084393912916177
833,1033.000,0.0016446836336981548
834,1034.000,0.004902271237414793
835,1035.000,0.006918498829168409
836,1036.000,0.00465439715608683
837,1037.000,0.00666058647923468
838,1038.000,0.006197522572570136
839,1039.000,0.008384743691699698
840,1040.000,0.004918833651863929
841,1041.000,0.005201119029744084
842,1042.000,0.007324629259160944
843,1043.000,0.007451874898657586
844,1044.000,0.007654116250301243
845,1045.000,0.0037251066526572244
846,1046.000,0.006953753622398924
847,1047.000,0.007601098796867272
848,1048.000,0.005502736419130798
849,1049.000,0.007801821378281676
850,1050.000,0.012240914845978631
851,1051.000,0.006717689804161464
852,1052.000,0.008873053592482466
853,1053.000,0.0036153911149672674
854,1054.000,0.009802408631794483
855,1055.000,0.006072426475101465
856,1056.000,0.012175812157834533
857,1057.000,0.006964232151636708
858,1058.000,0.007502604094346481
859,1059.000,0.00730476152332673
860,1060.000,0.010157961996921741
861,1061.000,0.01218371534681496
862,1062.000,0.012829734508434451
863,1063.000,0.011418627296020846
864,1064.000,0.015692478614296665
865,1065.000,0.014159511365381048
866,1066.000,0.01578574552881044
867,1067.000,0.01740171673037434
868,1068.000,0.01489603663704653
869,1069.000,0.016579605966393244
870,1070.000,0.020297028131095452
871,1071.000,0.020910155785419732
872,1072.000,0.023351390509593825
873,1073.000,0.028819312265801058
874,1074.000,0.03120832372712396
875,1075.000,0.03380722035831484
876,1076.000,0.0409442891135595
877,1077.000,0.049988864470687136
878,1078.000,0.061836200126805685
879,1079.000,0.07082483847296417
880,1080.000,0.09060488171048393
881,1081.000,0.11844093224737182
882,1082.000,0.15854039823017843
883,1083.000,0.20722836422713253
884,1084.000,0.2762831969848805
885,1085.000,0.332156334256433
886,1086.000,0.3602564394872639
887,1087.000,0.33602334423049135
888,1088.000,0.2698466908602552
889,1089.000,0.20655640315489507
890,1090.000,0.16085178363135336
891,1091.000,0.12072593652169226
892,1092.000,0.09590803452221933
893,1093.000,0.07540669971895834
894,1094.000,0.05898530982539894
895,1095.000,0.050085213172778004
896,1096.000,0.04486084048176232
897,1097.000,0.037593400704580476
898,1098.000,0.03147858244859162
899,1099.000,0.027880256395246293
900,1100.000,0.025493589280973106
901,1101.000,0.023489753806525984
902,1102.000,0.01809276436941035
903,1103.000,0.01685811809450854
904,1104.000,0.014344059792330674
905,1105.000,0.01588131522291917
906,1106.000,0.016646233204812236
907,1107.000,0.014032589524938287
908,1108.000,0.012004712040860056
909,1109.000,0.009655544979502717
910,1110.000,0.010305312616707593
911,1111.000,0.0103925587736808
912,1112.000,0.012274666431659262
913,1113.000,0.009329393717705957
914,1114.000,0.012122797101169296
915,1115.000,0.007925496118874525
916,1116.000,0.011166644648699313
917,1117.000,0.008053089058871712
918,1118.000,0.00440970711022964
919,1119.000,0.006039268732460298
920,1120.000,0.007691461625069126
921,1121.000,0.006825437910436674
922,1122.000,0.007585425988870253
923,1123.000,0.008488543336797454
924,1124.000,0.0061458364448373475
925,1125.000,0.008840160933423087
926,1126.000,0.003402251248314372
927,1127.000,0.00621271214029626
928,1128.000,0.00806446127840736
929,1129.000,0.004488177906655513
930,1130.000,0.005179319394382314
931,1131.000,0.004956508709878823
932,1132.000,0.006772845619583262
933,1133.000,0.006061070229702847
934,1134.000,0.0043050519046589665
935,1135.000,0.006744321978552456
936,1136.000,0.010131646531545269
937,1137.000,0.006665967436007284
938,1138.000,0.008858826569077044
939,1139.000,0.0023054072811309625
940,1140.000,0.006093520121268167
941,1141.000,0.0028911934078583485
942,1142.000,0.0020061378228401466
943,1143.000,0.00558841290524669
944,1144.000,0.006212020945566799
945,1145.000,0.008970696601960326
946,1146.000,0.0019344651254234045
947,1147.000,0.01041862413119148
948,1148.000,0.005010843692958057
949,1149.000,0.00324874445056886
950,1150.000,0.005268272747715745
951,1151.000,0.0072198028959224985
952,1152.000,0.005073787774507003
953,1153.000,0.0004958357783412123
954,1154.000,0.004564753333994704
955,1155.000,0.0034039851314724176
956,1156.000,0.005037309795180716
957,1157.000,0.005607690086376111
958,1158.000,0.008018839805157876
959,1159.000,0.008576349344218229
960,1160.000,0.006452351854783614
961,1161.000,0.0031812756685125256
962,1162.000,0.009329539989073002
963,1163.000,0.00790177679291194
964,1164.000,0.0028737921200188495
965,1165.000,0.007020010482376085
966,1166.000,0.0041371953237776945
967,1167.000,0.0018479388289396434
968,1168.000,0.005010776825248717
969,1169.000,0.004893807368575469
970,1170.000,0.0060019523433546005
971,1171.000,0.003758163460260154
972,1172.000,0.0031215522554477295
973,1173.000,0.005950031614911238
974,1174.000,0.004484945486971145
975,1175.000,0.0060430060880543165
976,1176.000,0.004498173631022271
977,1177.000,0.0028085031464357363
978,1178.000,0.010024878952790464
979,1179.000,0.007569715286297641
980,1180.000,0.0028107401052808994
981,1181.000,0.0030221067970643447
982,1182.000,0.006424616074058922
983,1183.000,0.006492063127693442
984,1184.000,0.0015441704041813879
985,1185.000,0.004643963165682663
986,1186.000,0.004724315048320814
987,1187.000,0.006920642208314846
988,1188.000,0.005721626521213381
989,1189.000,0.005424621977379509
990,1190.000,0.004565147058186896
991,1191.000,0.003743961182253007
992,1192.000,0.003149107950562471
993,1193.000,0.00440196624497984
994,1194.000,0.002479743828924056
995,1195.000,0.007673216099373551
996,1196.000,0.004289056306507788
997,1197.000,0.006416331332157449
998,1198.000,0.004024693872927115
999,1199.000,0.004084259038315626
1000,1200.000,0.004121668461685323
1001,1201.000,0.00451770756860259
1002,1202.000,0.004862031231255431
1003,1203.000,0.0041427068158809465
1004,1204.000,0.002221115946069741
1005,1205.000,0.006682938035193899
1006,1206.000,0.004168932879647262
1007,1207.000,0.0031644049673832143
1008,1208.000,0.004084859729674882
1009,1209.000,0.005446429048027872
1010,1210.000,0.006652246534075858
1011,1211.000,0.0005739341607959423
1012,1212.000,0.009421828054145721
1013,1213.000,0.0036485412530571247
1014,1214.000,0.005021269634363344
1015,1215.000,0.0065925610995347834
1016,1216.000,0.005809671996527879
1017,1217.000,0.005169074249352309
1018,1218.000,0.0033752798798491698
1019,1219.000,0.0037753432669473445
1020,1220.000,0.002810536533208094
1021,1221.000,0.0026679878691936543
1022,1222.000,0.007502105024098889
1023,1223.000,0.0043107297132614865
1024,1224.000,0.005067567326710617
1025,1225.000,0.0035180153487276
1026,1226.000,0.002224881692355253
1027,1227.000,0.007052778665683741
1028,1228.000,0.005297795563033275
1029,1229.000,0.00632886085204438
1030,1230.000,0.006071656631236714
1031,1231.000,0.0005520264188425917
1032,1232.000,0.0078755503156454
1033,1233.000,0.005886391089245367
1034,1234.000,0.004675076796210167
1035,1235.000,0.0043961380953646
1036,1236.000,0.006987605076200834
1037,1237.000,0.006429482918431066
1038,1238.000,0.0012540733864845534
1039,1239.000,0.00398221305668422
1040,1240.000,0.007471839116814843
1041,1241.000,0.003562438446011438
1042,1242.000,0.004283708403220803
1043,1243.000,0.0037850632174231563
1044,1244.000,0.0071017946039413585
1045,1245.000,0.004808929361230187
1046,1246.000,0.004694282523426223
1047,1247.000,0.003316876359995323
1048,1248.000,0.004115976085182757
1049,1249.000,0.002768232443982716
1050,1250.000,0.0018385965150874003
1051,1251.000,0.00688482579544064
1052,1252.000,0.006140017374065928
1053,1253.000,0.005805302069494109
1054,1254.000,0.010148118481609235
1055,1255.000,0.00569445416245188
1056,1256.000,0.0037733312658227345
1057,1257.000,0.004320710837253133
1058,1258.000,0.003024882848432467
1059,1259.000,0.0060001390042500515
1060,1260.000,0.0036132657753965014
1061,1261.000,0.0037146369347763864
1062,1262.000,0.004724344091264987
1063,1263.000,0.0014085956641106032
1064,1264.000,0.0033557161637509567
1065,1265.000,0.0007956625329243113
1066,1266.000,0.005740562815330578
1067,1267.000,0.0007832494596047711
1068,1268.000,0.00448959668704507
1069,1269.000,0.0023962807983707083
1070,1270.000,0.0010413328092798155
1071,1271.000,0.004496850049632101
1072,1272.000,0.0017254005083585803
1073,1273.000,0.006469188646791212
1074,1274.000,0.004171472695155383
1075,1275.000,0.006052313054329851
1076,1276.000,0.00018776564553967323
1077,1277.000,0.005781362071891916
1078,1278.000,0.006230673739744788
1079,1279.000,0.004628570800322818
1080,1280.000,0.002378195984390313
1081,1281.000,0.003807294795218005
1082,1282.000,0.003942570114016278
1083,1283.000,0.00568977560216853
1084,1284.000,0.004642585334041581
1085,1285.000,0.0021371371116815554
1086,1286.000,0.0009806591825471463
1087,1287.000,0.006191466183320498
1088,1288.000,0.0050924819782184475
1089,1289.000,0.007174002022987924
1090,1290.000,0.004671557768933833
1091,1291.000,0.004471208443905757
1092,1292.000,0.002816657907507929
1093,1293.000,0.0020825638985585587
1094,1294.000,0.0037959219144925024
1095,1295.000,0.003651790539781162
1096,1296.000,0.002206339820951134
1097,1297.000,0.004994188361978616
1098,1298.000,0.005647296028060391
1099,1299.000,0.004719790402583473
1100,1300.000,0.0009816343679957568
1101,1301.000,0.002220816684275239
1102,1302.000,0.002225527527188303
1103,1303.000,0.0027903898475042893
1104,1304.000,0.00569849464551655
1105,1305.000,0.009076529082038234
1106,1306.000,0.006213943742320979
1107,1307.000,0.0027123153729383285
1108,1308.000,0.003481886113395834
1109,1309.000,0.005610494597228625
1110,1310.000,0.005262018126478532
1111,1311.000,0.005942969040636164
1112,1312.000,0.003072121684069795
1113,1313.000,0.006338708379437071
1114,1314.000,0.004654454074245673
1115,1315.000,0.0022373152209777696
1116,1316.000,0.004285188030991761
1117,1317.000,0.00473975038275399
1118,1318.000,0.004668827658641958
1119,1319.000,0.006425129330160609
1120,1320.000,0.0063479408608506215
1121,1321.000,0.004801858102159978
1122,1322.000,0.004162523346174255
1123,1323.000,0.004528746656374562
1124,1324.000,0.0014552604428605532
1125,1325.000,0.0082217481468407
1126,1326.000,0.0063783963212903135
1127,1327.000,0.007219262765824007
1128,1328.000,0.004128191370168435
1129,1329.000,0.006790580399565555
1130,1330.000,0.006189512883482522
1131,1331.000,0.004059018318247546
1132,1332.000,0.00030871189153233275
1133,1333.000,0.005266613751058231
1134,1334.000,0.0014966223970946844
1135,1335.000,0.005269786165748056
1136,1336.000,0.0036818369561056534
1137,1337.000,0.0054208396086184
1138,1338.000,0.0038202784415286893
1139,1339.000,0.005207737558186466
1140,1340.000,0.0027447506990868915
1141,1341.000,0.0055871467166076876
1142,1342.000,0.003574881067245857
1143,1343.000,0.005343346632301286
1144,1344.000,0.002618458492148565
1145,1345.000,0.0033190540602260213
1146,1346.000,0.006833273461298538
1147,1347.000,0.006148019404573964
1148,1348.000,0.0015108171706564716
1149,1349.000,0.0037582206389427707
1150,1350.000,0.0017986619269439053
1151,1351.000,0.004374418201611287
1152,1352.000,0.0028059483192350034
1153,1353.000,0.003069248975392334
1154,1354.000,0.004624201971004376
1155,1355.000,0.00769059856501351
1156,1356.000,0.002979993698537466
1157,1357.000,0.0038742097870578442
1158,1358.000,0.009316041899856315
1159,1359.000,0.0035968525939083485
1160,1360.000,0.005252074420838762
1161,1361.000,0.002582629580063327
1162,1362.000,0.005769789952800525
1163,1363.000,0.004216310851163639
1164,1364.000,-0.00036800309318782296
1165,1365.000,0.0037747323166681993
1166,1366.000,0.006358304884586445
1167,1367.000,0.00990442025639742
1168,1368.000,0.0009025115518664339
1169,1369.000,0.0030087599820202665
1170,1370.000,0.0074386067729944536
1171,1371.000,0.0004708490809794572
1172,1372.000,0.00481695027487542
1173,1373.000,0.00425607660233121
1174,1374.000,0.005838616699422632
1175,1375.000,0.004405557463206735
1176,1376.000,0.008274841921881949
1177,1377.000,0.005392690382492134
1178,1378.000,0.0039043711595042937
1179,1379.000,0.004807172225712872
1180,1380.000,0.0014819557550111466
1181,1381.000,0.0035865073069736037
1182,1382.000,0.008075486232606363
1183,1383.000,0.005043066991286222
1184,1384.000,0.00666992770883299
1185,1385.000,0.003720521873783893
1186,1386.000,0.001837403969179026
1187,1387.000,0.0023239234816173075
1188,1388.000,0.002697502892028417
1189,1389.000,0.006476807628932313
1190,1390.000,0.004372421190555803
1191,1391.000,0.0005884927075223258
1192,1392.000,0.004478196474186537
1193,1393.000,0.003971618485667801
1194,1394.000,0.005559906312186279
1195,1395.000,-0.001369844571087077
1196,1396.000,0.00884098836056689
1197,1397.000,0.006160401192051392
1198,1398.000,0.005903012075850651
1199,1399.000,0.002741600223930767
1200,1400.000,0.0040858052287818586
1201,1401.000,0.008661264670723782
1202,1402.000,0.008544600809330928
1203,1403.000,0.005236956209012656
1204,1404.000,0.0032553261433950834
1205,1405.000,0.0018776241327431525
1206,1406.000,0.007700345041388758
1207,1407.000,0.008875845648980678
1208,1408.000,0.005366800110135253
1209,1409.000,0.007350635892441371
1210,1410.000,0.008475798610864676
1211,1411.000,0.009866990603783706
1212,1412.000,0.011329175424275131
1213,1413.000,0.006480747250618466
1214,1414.000,0.009589611706611326
1215,1415.000,0.007311320184525586
1216,1416.000,0.009285545931449765
1217,1417.000,0.013714286204528841
1218,1418.000,0.011239648096869254
1219,1419.000,0.007973674175469257
1220,1420.000,0.012225707910019347
1221,1421.000,0.015231045410336824
1222,1422.000,0.01616488420896088
1223,1423.000,0.014769102233785185
1224,1424.000,0.014930390835800552
1225,1425.000,0.018239698343533294
1226,1426.000,0.017843076953301246
1227,1427.000,0.019204769513512885
1228,1428.000,0.020717835574610783
1229,1429.000,0.02161298396350216
1230,1430.000,0.02674548037889262
1231,1431.000,0.02897375837474714
1232,1432.000,0.027228817584324893
1233,1433.000,0.0305951431321847
1234,1434.000,0.029651217911425276
1235,1435.000,0.033599289196445496
1236,1436.000,0.036173972930510105
1237,1437.000,0.03102172336077081
1238,1438.000,0.02964071815003357
1239,1439.000,0.032912249957815526
1240,1440.000,0.03306176344056904
1241,1441.000,0.02788186787939458
1242,1442.000,0.026245393484347273
1243,1443.000,0.023092914935116792
1244,1444.000,0.020078612723791363
1245,1445.000,0.01704518118650963
1246,1446.000,0.018537877254207018
1247,1447.000,0.015729947376500065
1248,1448.000,0.013871820963427223
1249,1449.000,0.01134674724876743
1250,1450.000,0.012843938717318128
1251,1451.000,0.00815465219553345
1252,1452.000,0.014379311772751799
1253,1453.000,0.009203882046255468
1254,1454.000,0.010019876999693466
1255,1455.000,0.010958746775275717
1256,1456.000,0.009607472831143427
1257,1457.000,0.0076783371866054875
1258,1458.000,0.010868461844646342
1259,1459.000,0.00978795082431531
1260,1460.000,0.009969173092976636
1261,1461.000,0.009853133329913086
1262,1462.000,0.007675956724488954
1263,1463.000,0.008102251921672052
1264,1464.000,0.007029578404550743
1265,1465.000,0.0046986709872449215
1266,1466.000,0.007800658307494235
1267,1467.000,0.0078471394989572
1268,1468.000,0.010471657653567577
1269,1469.000,0.006029171778330462
1270,1470.000,0.004959690995485014
1271,1471.000,0.0034035062932372662
1272,1472.000,0.005011719564484395
1273,1473.000,0.006427820310202797
1274,1474.000,0.007098383326426792
1275,1475.000,0.006224782867769881
1276,1476.000,0.007832507363619557
1277,1477.000,0.006833350284381096
1278,1478.000,0.009066484795502759
1279,1479.000,0.0013193244998957476
1280,1480.000,0.004670956677368404
1281,1481.000,0.00718403333186397
1282,1482.000,0.003364573994743844
1283,1483.000,0.0036801399470233445
1284,1484.000,0.006730229555809256
1285,1485.000,0.003804057035043029
1286,1486.000,0.005465312594851132
1287,1487.000,0.003808224111060835
1288,1488.000,0.006438100642454217
1289,1489.000,0.00456031183649801
1290,1490.000,0.0023793849360127482
1291,1491.000,0.005573560235138842
1292,1492.000,0.006572621356860984
1293,1493.000,0.006560280836233459
1294,1494.000,0.00239507402971785
1295,1495.000,0.00293363466567511
1296,1496.000,0.005130282744235893
1297,1497.000,0.0024856386259742742
1298,1498.000,0.00553966899053011
1299,1499.000,0.00326531313600578
1300,1500.000,0.0019077120969118568
1301,1501.000,0.002072231698963741
1302,1502.000,0.006460435544815638
1303,1503.000,0.004504776034558305
1304,1504.000,0.005589642720390154
1305,1505.000,0.00371998243432468
1306,1506.000,0.0009542945110067958
1307,1507.000,0.004657065103023565
1308,1508.000,0.0033914482398533833
1309,1509.000,0.004068006419430029
1310,1510.000,0.0049991788308545275
1311,1511.000,0.006720934532009073
1312,1512.000,0.0031135520794964844
1313,1513.000,0.005026192340772463
1314,1514.000,0.00020335550998506368
1315,1515.000,0.004656794807279714
1316,1516.000,0.00444633721341661
1317,1517.000,0.0035222429122892277
1318,1518.000,0.004205887768789501
1319,1519.000,0.0038661612902203984
1320,1520.000,0.004890913943992565
1321,1521.000,0.005475392739409158
1322,1522.000,0.008676174425340482
1323,1523.000,0.0048442000199619435
1324,1524.000,0.0036932535799280714
1325,1525.000,0.0035516515895489707
1326,1526.000,0.006320767426467635
1327,1527.000,0.003210562116036859
1328,1528.000,0.006702706717414599
1329,1529.000,0.0032122026333941214
1330,1530.000,0.005430588183845536
1331,1531.000,0.0005489518203366349
1332,1532.000,0.007020534506613653
1333,1533.000,0.002646195021127494
1334,1534.000,0.0031230949214020405
1335,1535.000,0.0017924098802116159
1336,1536.000,-0.0004319005980710587
1337,1537.000,0.005564419562947109
1338,1538.000,0.004528707196090261
1339,1539.000,0.0035730848285320904
1340,1540.000,0.003418401330681219
1341,1541.000,0.0018085302914491212
1342,1542.000,-0.00018439480420607703
1343,1543.000,0.0018949990862749124
1344,1544.000,0.00553222813746908
1345,1545.000,0.005980033618870948
1346,1546.000,0.005070490386402085
1347,1547.000,0.004242538546356206
1348,1548.000,0.006658945274589897
1349,1549.000,0.0033070417605042222
1350,1550.000,0.00224792542214069
1351,1551.000,0.0022854789671448742
1352,1552.000,0.002146840462711917
1353,1553.000,0.0018452950781718553
1354,1554.000,0.002907212846857275
1355,1555.000,0.0058307123597417685
1356,1556.000,0.0020641959960744937
1357,1557.000,-0.001313044482816843
1358,1558.000,0.005717638483402144
1359,1559.000,0.0019489236733442638
1360,1560.000,0.0026020464224767942
1361,1561.000,0.008835627939593067
1362,1562.000,0.00650790806877426
1363,1563.000,0.0015918059729161306
1364,1564.000,0.0031877631951359874
1365,1565.000,0.0033882040803839553
1366,1566.000,0.0009476037728600107
1367,1567.000,0.004333278186833851
1368,1568.000,0.0050114076509523596
1369,1569.000,0.007427186794927092
1370,1570.000,0.0004244405471113239
1371,1571.000,0.005678017234336925
1372,1572.000,0.004650070221464613
1373,1573.000,0.005087053144776608
1374,1574.000,0.005252556393176492
1375,1575.000,0.0027093297265133624
1376,1576.000,0.00654804069509385
1377,1577.000,0.005290841473395256
1378,1578.000,0.0116540856774255
1379,1579.000,0.004711649433376034
1380,1580.000,0.004478209148671123
1381,1581.000,0.0033754785102962656
1382,1582.000,0.005241809930798688
1383,1583.000,0.004409264647827441
1384,1584.000,0.005363190133939456
1385,1585.000,0.007716007891213034
1386,1586.000,0.0075375984779014775
1387,1587.000,0.006268034556336133
1388,1588.000,0.003937506547848545
1389,1589.000,0.0021310676740597997
1390,1590.000,0.004986956044659495
1391,1591.000,0.005779579416503038
1392,1592.000,0.0031448297250618097
1393,1593.000,0.006012071430043351
1394,1594.000,0.006453123163227719
1395,1595.000,0.004490215878165808
1396,1596.000,0.00043570790954829017
1397,1597.000,0.0006803641355430351
1398,1598.000,0.005196449463248043
1399,1599.000,0.005058210355597511
1400,1600.000,0.0016434146485806407
1401,1601.000,0.003605100584918182
1402,1602.000,0.0011055020247400901
1403,1603.000,0.0009984439900496567
1404,1604.000,0.004802395023563376
1405,1605.000,0.006871393223745836
1406,1606.000,0.0010500323458541793
1407,1607.000,0.006031417975153873
1408,1608.000,0.006058386459352607
1409,1609.000,0.003746640414856195
1410,1610.000,0.0058964285024225415
1411,1611.000,0.004298622127601875
1412,1612.000,0.0014253692925481102
1413,1613.000,0.0028928859754950745
1414,1614.000,0.0033626787257357658
1415,1615.000,0.00394540966844341
1416,1616.000,0.003641115364062571
1417,1617.000,0.0020256174026395354
1418,1618.000,0.0044748590145380325
1419,1619.000,0.004853286272994449
1420,1620.000,0.003220622887372344
1421,1621.000,0.007794869942117565
1422,1622.000,0.002694069747736953
1423,1623.000,0.006911968486167665
1424,1624.000,0.005260754492109015
1425,1625.000,0.006001121864154843
1426,1626.000,0.00441423877654742
1427,1627.000,0.0036959564840396805
1428,1628.000,0.003856850418544188
1429,1629.000,8.56044789512524e-05
1430,1630.000,0.0013340641975427912
1431,1631.000,0.005853320805394436
1432,1632.000,0.00613734173853996
1433,1633.000,0.0033175651175700693
1434,1634.000,0.005737535327138417
1435,1635.000,0.008556775853821929
1436,1636.000,0.00693047433814931
1437,1637.000,0.002218071807543542
1438,1638.000,0.003584634893992571
1439,1639.000,0.003963444785651574
1440,1640.000,0.0050583641635344595
1441,1641.000,0.005145869402931101
1442,1642.000,0.004932195764893742
1443,1643.000,0.005060341833447783
1444,1644.000,0.006150454112617592
1445,1645.000,0.00537880751853872
1446,1646.000,0.00426182579295721
1447,1647.000,0.003457167869984918
1448,1648.000,0.006079347918983288
1449,1649.000,0.0039415090861968545
1450,1650.000,0.009789083225206427
1451,1651.000,0.004184694503466303
1452,1652.000,0.0022952418200242524
1453,1653.000,0.004650315951356212
1454,1654.000,0.0031595558500516303
1455,1655.000,0.0037525254503456558
1456,1656.000,0.005871264000300038
1457,1657.000,0.0034978194605596656
1458,1658.000,0.0034394837253929824
1459,1659.000,0.0024846351759150137
1460,1660.000,0.0038152543996886343
1461,1661.000,0.0038049259550010863
1462,1662.000,0.0069448880730027356
1463,1663.000,0.000852455578298392
1464,1664.000,0.004048362309448149
1465,1665.000,0.008792255760896149
1466,1666.000,-0.002104647345882333
1467,1667.000,0.006177459293402316
1468,1668.000,0.0027172045003499776
1469,1669.000,0.0051135018883758385
1470,1670.000,0.006240285842526301
1471,1671.000,0.003911431994600573
1472,1672.000,0.004055473663217475
1473,1673.000,0.004598603071680211
1474,1674.000,-0.00043657262290057686
1475,1675.000,0.0018062629452348848
1476,1676.000,0.006754215692523321
1477,1677.000,0.003162360432407099
1478,1678.000,0.0092719338636982
1479,1679.000,0.004904182320628351
1480,1680.000,0.004157106914092546
1481,1681.000,0.006682248701371445
1482,1682.000,0.001203590947606552
1483,1683.000,0.009208907088604995
1484,1684.000,0.007113840370767283
1485,1685.000,0.0035617007076634622
1486,1686.000,0.0004028019608279905
1487,1687.000,0.005644572977743284
1488,1688.000,0.0045645002395933625
1489,1689.000,0.0022802673354529335
1490,1690.000,0.005284466196279965
1491,1691.000,0.005337644289598903
1492,1692.000,0.004656726766287452
1493,1693.000,0.0017951404219407592
1494,1694.000,0.00701430528540693
1495,1695.000,0.008150514462780036
1496,1696.000,0.009978428111814184
1497,1697.000,0.0055336500137142045
1498,1698.000,0.0045943391810323924
1499,1699.000,0.003321201992336456
1500,1700.000,0.0057909523142554015
1501,1701.000,0.0008300577501885
1502,1702.000,0.007313531494009036
1503,1703.000,0.008388785298074762
1504,1704.000,0.0033027901362164738
1505,1705.000,0.003453082130345302
1506,1706.000,0.0007099571072803226
1507,1707.000,0.00585166059582351
1508,1708.000,0.004978018562509472
1509,1709.000,0.0057538609168566335
1510,1710.000,0.0048410165793046425
1511,1711.000,0.003975721449944556
1512,1712.000,0.005919886547473638
1513,1713.000,0.005648893660455468
1514,1714.000,0.006974586164711975
1515,1715.000,0.006860480604603748
1516,1716.000,0.007661374925476035
1517,1717.000,0.006864381651760574
1518,1718.000,0.008092227203092292
1519,1719.000,0.005813689838521543
1520,1720.000,0.007242488557881368
1521,1721.000,0.0047769279933539514
1522,1722.000,0.0042244135021055436
1523,1723.000,0.0027115458170689447
1524,1724.000,0.003055131427361999
1525,1725.000,0.004355892003217143
1526,1726.000,0.009935474675249752
1527,1727.000,0.007470456763054012
1528,1728.000,0.005587026439828691
1529,1729.000,0.003175911656920267
1530,1730.000,0.005872280952883002
1531,1731.000,0.004957291863042069
1532,1732.000,0.004975913309132159
1533,1733.000,0.007073880120249812
1534,1734.000,0.007342863739081594
1535,1735.000,0.0071773641612433905
1536,1736.000,0.0039266326760323345
1537,1737.000,0.006747117736568511
1538,1738.000,0.007751275069275419
1539,1739.000,0.002488096909759781
1540,1740.000,0.004245096951121479
1541,1741.000,0.009147979778364805
1542,1742.000,0.0038235322628487516
1543,1743.000,0.0038622287148868057
1544,1744.000,0.007835544671754924
1545,1745.000,0.0043801250648781926
1546,1746.000,0.006152368390150584
1547,1747.000,0.0013558321090215008
1548,1748.000,0.002726552980794442
1549,1749.000,0.005266953302450896
1550,1750.000,0.01013553710866624
1551,1751.000,0.0040921035682529045
1552,1752.000,0.005774050940665009
1553,1753.000,0.004649280685126369
1554,1754.000,0.005451029922648162
1555,1755.000,0.003683888656081962
1556,1756.000,-0.0001555492073293885
1557,1757.000,0.004752453971051513
1558,1758.000,0.0017677835556808115
1559,1759.000,0.0042735239933154355
1560,1760.000,0.006007535392984431
1561,1761.000,0.0084933755826227
1562,1762.000,0.008323216456943353
1563,1763.000,0.006040686815697262
1564,1764.000,0.0036166496168549525
1565,1765.000,0.004494424668957578
1566,1766.000,0.008242216297300903
1567,1767.000,0.00641551253599218
1568,1768.000,0.005662092239889092
1569,1769.000,0.007786447188757859
1570,1770.000,0.0030627595808014616
1571,1771.000,0.00998799372213058
1572,1772.000,0.007496148302210644
1573,1773.000,0.003387844892045865
1574,1774.000,0.004278347276805277
1575,1775.000,0.0075802178274778885
1576,1776.000,0.00409177389745621
1577,1777.000,0.005568039278806714
1578,1778.000,0.010066751888001026
1579,1779.000,0.004952022876007706
1580,1780.000,0.005714056116043503
1581,1781.000,0.007771487455065262
1582,1782.000,0.007881129826815885
1583,1783.000,0.009994461085592538
1584,1784.000,0.00409546903217783
1585,1785.000,0.006260284694373215
1586,1786.000,0.006889881066701125
1587,1787.000,0.004383754076561529
1588,1788.000,0.005071657188311809
1589,1789.000,0.007673441375074638
1590,1790.000,0.005417924388246301
1591,1791.000,0.005847742786059393
1592,1792.000,0.0044806291803683
1593,1793.000,0.0038208945369588346
1594,1794.000,0.003979654857778386
1595,1795.000,0.008049577052692132
1596,1796.000,0.010195268228656322
1597,1797.000,0.005490522945407347
1598,1798.000,0.010341488566627855
1599,1799.000,0.004395230236564883
1600,1800.000,0.004993028459408943
1601,1801.000,0.004171038861254798
1602,1802.000,0.005629639466568264
1603,1803.000,0.007434335085768945
1604,1804.000,0.006690367318286818
1605,1805.000,0.005437362522209178
1606,1806.000,0.008579823610879923
1607,1807.000,0.004380966506348978
1608,1808.000,0.005914246090295929
1609,1809.000,0.003115733363458597
1610,1810.000,0.01007723546477368
1611,1811.000,0.005029344659357642
1612,1812.000,0.008172685032390686
1613,1813.000,0.0028293945006779373
1614,1814.000,0.006214521984588836
1615,1815.000,0.008571362104952832
1616,1816.000,0.008916664892861326
1617,1817.000,0.006565876024882873
1618,1818.000,0.00538089118159592
1619,1819.000,0.004449970523053099
1620,1820.000,0.0068650287623857045
1621,1821.000,0.0076192958613759765
1622,1822.000,0.008026626867655148
1623,1823.000,0.004698930636722977
1624,1824.000,0.0061231876141831475
1625,1825.000,0.0043922189808303135
1626,1826.000,0.0026188584736142537
1627,1827.000,0.006877219634370359
1628,1828.000,0.004069251192752274
1629,1829.000,0.00683368312505503
1630,1830.000,0.005951042659283929
1631,1831.000,0.007967552481125755
1632,1832.000,0.005114247509081345
1633,1833.000,0.006136792476566172
1634,1834.000,0.007183893299895173
1635,1835.000,0.0060627521581133655
1636,1836.000,0.00395224257934311
1637,1837.000,0.0074952937643975315
1638,1838.000,0.009591943275315984
1639,1839.000,0.0057741205657870125
1640,1840.000,0.006213442377749078
1641,1841.000,0.006154134451092423
1642,1842.000,0.0027193899597336216
1643,1843.000,0.006803986215097492
1644,1844.000,0.008388618911314304
1645,1845.000,0.004203266013165032
1646,1846.000,0.00514878219741891
1647,1847.000,0.008374316307898937
1648,1848.000,0.009403210704996088
1649,1849.000,0.0018334996130974863
1650,1850.000,0.007937755617291585
1651,1851.000,0.0028228635234098833
1652,1852.000,0.007601947196575405
1653,1853.000,0.0062272336218172405
1654,1854.000,0.00871679618828144
1655,1855.000,0.0027658616962321424
1656,1856.000,0.003865212544606818
1657,1857.000,0.0034445727804331776
1658,1858.000,0.008231694437714772
1659,1859.000,0.009388565583251468
1660,1860.000,0.008822102202397623
1661,1861.000,0.003949995546605993
1662,1862.000,0.005016505924203762
1663,1863.000,0.0037353232432659907
1664,1864.000,0.004644655053094945
1665,1865.000,0.006487879840801696
1666,1866.000,0.009812237446382913
1667,1867.000,0.005473597483429776
1668,1868.000,0.002993698580305281
1669,1869.000,0.007910984197885197
1670,1870.000,0.008484072333573534
1671,1871.000,0.009770361659028467
1672,1872.000,0.008911391239661
1673,1873.000,0.00672228500920957
1674,1874.000,0.0009823428404115472
1675,1875.000,0.008117540642280435
1676,1876.000,0.004262574772788361
1677,1877.000,0.006904752599201682
1678,1878.000,0.003791879795891475
1679,1879.000,0.010057406813142164
1680,1880.000,0.006557116674271638
1681,1881.000,0.0057481174349917645
1682,1882.000,0.007536647330275204
1683,1883.000,0.003298383363809225
1684,1884.000,0.002714208348602972
1685,1885.000,0.007141804862103355
1686,1886.000,0.008937364763702276
1687,1887.000,0.0058408887583233605
1688,1888.000,0.006274849664805879
1689,1889.000,0.004937396594377794
1690,1890.000,0.007133542787506877
1691,1891.000,0.004571285814967633
1692,1892.000,0.005278130551238284
1693,1893.000,0.003091371769681793
1694,1894.000,0.006346784200867564
1695,1895.000,0.007999398775403824
1696,1896.000,0.006473829141967427
1697,1897.000,0.009188322572680945
1698,1898.000,0.005673726789193044
1699,1899.000,0.004041033121792338
1700,1900.000,0.005031352495986584
1701,1901.000,0.00543868585983738
1702,1902.000,0.006294389253319559
1703,1903.000,0.00882758499964754
1704,1904.000,0.006329378085343405
1705,1905.000,0.010729593745152878
1706,1906.000,0.003110387199433261
1707,1907.000,0.009855937362956535
1708,1908.000,0.007664355527280185
1709,1909.000,0.004757941701454607
1710,1910.000,0.007786475953612307
1711,1911.000,0.008244824750152925
1712,1912.000,0.009127815072749273
1713,1913.000,0.0088291299784987
1714,1914.000,0.007460700842860015
1715,1915.000,0.004172860649008251
1716,1916.000,0.008175541671765459
1717,1917.000,0.008185413722204316
1718,1918.000,0.007477390831738906
1719,1919.000,0.006383465458066458
1720,1920.000,0.006885485171646921
1721,1921.000,0.00895041032574051
1722,1922.000,0.005535630443149447
1723,1923.000,0.009821769571899277
1724,1924.000,0.004532932921213002
1725,1925.000,0.00246160833932185
1726,1926.000,0.0055338579912993235
1727,1927.000,0.007618410356245436
1728,1928.000,0.007255380295672347
1729,1929.000,0.0038953076485790075
1730,1930.000,0.006813275720874873
1731,1931.000,0.004841600192138883
1732,1932.000,0.008722039249414776
1733,1933.000,0.006709183370751451
1734,1934.000,0.007369987869530044
1735,1935.000,0.012819913463828422
1736,1936.000,0.004815223479735967
1737,1937.000,0.006294719701617713
1738,1938.000,0.006605764805042798
1739,1939.000,0.0037545614761250795
1740,1940.000,0.005606982680090033
1741,1941.000,0.009990739238185059
1742,1942.000,0.005277978988242981
1743,1943.000,0.0028569613468743273
1744,1944.000,0.006398695034617412
1745,1945.000,0.006194753119485865
1746,1946.000,0.007843713842035175
1747,1947.000,0.01055739855511282
1748,1948.000,0.003477048428414242
1749,1949.000,0.0011342727214306955
1750,1950.000,0.0026961022918425394
1751,1951.000,0.005716319521610472
1752,1952.000,0.006980158671398781
1753,1953.000,0.007262308405300746
1754,1954.000,0.0074113962888327995
1755,1955.000,0.006068273955111415
1756,1956.000,0.008342146252643717
1757,1957.000,0.0010681413559343795
1758,1958.000,0.007952302648964146
1759,1959.000,0.004743421855162644
1760,1960.000,0.0034655181121064807
1761,1961.000,0.004245608098869379
1762,1962.000,0.004918504998117214
1763,1963.000,0.003692649593500017
1764,1964.000,0.0025995368933698576
1765,1965.000,0.0046023958997246164
1766,1966.000,0.005595927587008628
1767,1967.000,0.005216318073282483
1768,1968.000,0.003190993702515466
1769,1969.000,0.00396864596711829
1770,1970.000,0.004552337234686264
1771,1971.000,0.003830589026121612
1772,1972.000,0.003880290854083689
1773,1973.000,0.002996441628472061
1774,1974.000,0.0021816866114668055
1775,1975.000,0.0075992708841975875
1776,1976.000,0.004028030490741073
1777,1977.000,0.004033283668353272
1778,1978.000,0.001054734171812157
1779,1979.000,0.0025314735986954246
1780,1980.000,0.0022152132690792404
1781,1981.000,0.005743620009770757
1782,1982.000,0.0019905706811017016
1783,1983.000,0.00874484509112866
1784,1984.000,0.0009509147658657945
1785,1985.000,0.006953510171116661
1786,1986.000,0.006529658514459433
1787,1987.000,0.004968293389520496
1788,1988.000,0.004828647664691661
1789,1989.000,0.006039089423385546
1790,1990.000,0.00020411766536343625
1791,1991.000,0.006951169927991234
1792,1992.000,0.0006616470753203116
1793,1993.000,0.006029303898998007
1794,1994.000,0.0009517347112157822
1795,1995.000,0.0006685842356920561
1796,1996.000,0.003722572464168665
1797,1997.000,-0.0012468885680058418
1798,1998.000,0.003011268858805546
1799,1999.000,0.004090718373746204
1800,2000.000,0.003874736801312105
