# kind,background_subtracted
# version_label,v1_poly5
# poly_order,5
# iterations_run,12
pixel_index,raman_shift_cm-1,intensity,background_intensity
0,-225.296,6.616941583315068,86.38305841668493
1,-222.228,9.4975828127168,86.5024171872832
2,-219.160,8.378747700132394,86.6212522998676
3,-216.094,9.260432987902462,86.73956701209754
4,-213.029,6.142635433539354,86.85736456646065
5,-209.965,7.025351809694243,86.97464819030576
6,-206.902,6.908578904124383,87.09142109587562
7,-203.840,6.792313519660297,87.2076864803397
8,-200.780,6.676552474172993,87.323447525827
9,-197.721,6.561292600541108,87.43870739945889
10,-194.663,8.44653074661818,87.55346925338182
11,-191.606,7.3322637751997775,87.66773622480022
12,-188.551,7.2184885639907606,87.78151143600924
13,-185.497,6.105202005572423,87.89479799442758
14,-182.444,4.992401007369736,88.00759899263026
15,-179.392,5.8800824916185235,88.11991750838148
16,-176.341,7.768243395332675,88.23175660466732
17,-173.292,6.656880670271306,88.3431193297287
18,-170.243,5.54599128290603,88.45400871709397
19,-167.196,5.435572214388074,88.56442778561193
20,-164.150,4.3256204605155375,88.67437953948446
21,-161.106,4.216133031700579,88.78386696829942
22,-158.062,5.107106952936576,88.89289304706342
23,-155.020,5.9985392637653945,89.0014607362346
24,-151.979,3.890427018244509,89.10957298175549
25,-148.939,4.7827672849142715,89.21723271508573
26,-145.900,5.675557146765058,89.32444285323494
27,-142.862,4.568793701204498,89.4312062987955
28,-139.826,3.462474060024661,89.53752593997534
29,-136.791,6.3565953493692575,89.64340465063074
30,-133.757,5.251154709700842,89.74884529029916
31,-130.724,4.146149295767984,89.85385070423202
32,-127.693,4.041576276572528,89.95842372342747
33,-124.662,3.937432835336722,90.06256716466328
34,-121.633,4.8337161694704776,90.16628383052952
35,-118.605,1.7304234905385272,90.26957650946147
36,-115.578,2.627552024227626,90.37244797577237
37,-112.553,5.525099010313781,90.47490098968622
38,-109.528,4.423061702629397,90.5769382973706
39,-106.505,4.321437369030548,90.67856263096945
40,-103.483,3.220223291364121,90.77977670863588
41,-100.462,2.1194167654350053,90.880583234565
42,-97.442,5.019015100973334,90.98098489902667
43,-94.424,0.9190156216016874,91.08098437839831
44,-91.406,3.8194156648022357,91.18058433519776
45,-88.390,3.7202125818839846,91.27978741811602
46,-85.375,4.6214037379499615,91.37859626205004
47,-82.361,3.5229865118643886,91.47701348813561
48,-79.349,1.4249582962199554,91.57504170378004
49,-76.337,3.3273164973049205,91.67268350269508
50,-73.327,4.230058535070384,91.76994146492962
51,-70.318,1.1331818430974465,91.86681815690255
52,-67.310,3.0366838685644524,91.96331613143555
53,-64.304,2.9405620722141066,92.0594379277859
54,-61.298,1.8448139283207752,92.15518607167922
55,-58.294,1.7494369246576014,92.2505630753424
56,-55.290,0.6544285624637354,92.34557143753626
57,-52.288,1.5597863564115784,92.44021364358842
58,-49.288,1.4655078345738701,92.53449216542613
59,-46.288,0.0,92.62840946160898
60,-43.289,1.278032022638186,92.72196797736181
61,-40.292,1.1848298553925645,92.81517014460744
62,-37.296,0.0919816180005597,92.90801838199944
63,-34.301,2.9994849050449233,93.00051509495508
64,-31.307,0.907337324312067,93.09266267568793
65,-28.315,1.8155364967591652,93.18446350324083
66,-25.323,1.724080056481398,93.2759199435186
67,-22.333,1.6329656506791395,93.36703434932086
68,-19.344,0.5421909396251579,93.45780906037484
69,-16.356,1.4517535966318036,93.5482464033682
70,-13.369,0.36165130801823864,93.63834869198176
71,-10.384,1.2718817730776095,93.72811822692239
72,-7.399,1.1824427040442345,93.81755729595577
73,-4.416,0.09333182606083312,93.90666817393917
74,-1.434,0.004546877145713779,93.99545312285429
75,1.547,0.0,94.08391439184003
76,4.527,0.0,94.17205421722532
77,7.506,0.0,94.25987482256193
78,10.483,2.652621581342828,94.34737841865717
79,13.459,0.0,94.43456720360686
80,16.434,0.47855663717201935,94.52144336282798
81,19.408,0.0,94.60800906909158
82,22.381,0.3057335174445228,94.69426648255548
83,25.353,0.0,94.78021775079716
84,28.323,0.0,94.86586500884651
85,31.293,0.048789620781320764,94.95121037921868
86,34.261,0.0,95.03625597194679
87,37.228,0.0,95.12100388461484
88,40.193,0.0,95.20545620239044
89,43.158,0.0,95.28961499805762
90,46.122,0.0,95.37348233204966
91,49.084,0.0,95.45706025248188
92,52.045,0.0,95.54035079518442
93,55.005,0.0,95.62335598373508
94,57.964,0.0,95.70607782949205
95,60.922,0.21148166837321014,95.78851833162679
96,63.878,0.12932052284317308,95.87067947715683
97,66.834,0.047436759021522334,95.95256324097848
98,69.788,2.965828414100258,96.03417158589974
99,72.741,3.884493537326975,96.11550646267303
100,75.693,5.803430189971991,96.19656981002801
101,78.644,5.722636445295578,96.27736355470442
102,81.594,6.642110388515178,96.35788961148482
103,84.542,6.561850116772575,96.43814988322742
104,87.490,8.481853739101112,96.51814626089889
105,90.436,8.40211937639286,96.59788062360714
106,93.381,8.322645161365855,96.67735483863414
107,96.325,8.243429238531292,96.75657076146871
108,99.268,8.164469764160671,96.83553023583933
109,102.209,8.085764906253075,96.91423509374692
110,105.150,7.007312844502309,96.99268715549769
111,108.089,6.929111770264129,97.07088822973587
112,111.027,6.851159886523419,97.14884011347658
113,113.964,8.773455407861434,97.22654459213857
114,116.900,6.695996560422913,97.30400343957709
115,119.835,6.618781581883383,97.38121841811662
116,122.769,7.541808721416274,97.45819127858373
117,125.701,7.4650762396601635,97.53492376033984
118,128.632,8.388582408685963,97.61141759131404
119,131.562,7.312325511964133,97.68767448803587
120,134.492,8.236303844331815,97.76369615566819
121,137.419,7.160515711960116,97.83948428803988
122,140.346,8.084959432321284,97.91504056767872
123,143.272,7.009633334155865,97.99036666584414
124,146.196,6.934535757439932,98.06546424256007
125,149.120,6.859665053352316,98.14033494664768
126,152.042,8.785019584241724,98.21498041575828
127,154.963,7.71059772359402,98.28940227640598
128,157.883,5.636397855999363,98.36360214400064
129,160.802,5.562418377119471,98.43758162288053
130,163.719,9.48865769365473,98.51134230634527
131,166.636,6.415114223311491,98.58488577668851
132,169.551,6.341786394769187,98.65821360523081
133,172.466,7.268672647647591,98.73132735235241
134,175.379,6.195771432473961,98.80422856752604
135,178.291,6.123081210650284,98.87691878934972
136,181.202,5.0506004544204615,98.94939954557954
137,184.111,8.9783276468375,99.0216723531625
138,187.020,6.906261281730721,99.09373871826928
139,189.927,5.834399863672957,99.16560013632704
140,192.834,6.762741907947714,99.23725809205229
141,195.739,7.691285940516437,99.30871405948356
142,198.643,3.620030497985667,99.37996950201433
143,201.546,2.5489741275742546,99.45102587242575
144,204.448,4.4781153870805355,99.52188461291946
145,207.348,6.407452844849544,99.59254715515046
146,210.248,5.336985079740245,99.66301492025976
147,213.146,5.266710681092661,99.73328931890734
148,216.044,3.1966282486951343,99.80337175130487
149,218.940,7.126736392751511,99.87326360724849
150,221.835,5.0570337338483,99.9429662661517
151,224.729,5.987518902921934,100.01248109707807
152,227.622,4.918190541225911,100.08180945877409
153,230.513,4.849047300298054,100.15095269970195
154,233.404,4.780087841927639,100.21991215807236
155,236.293,9.711310838122643,100.28868916187736
156,239.182,4.6427149710769555,100.35728502892304
157,242.069,4.574298933137499,100.4257010668625
158,244.955,4.506061426771538,100.49393857322846
159,247.840,7.438001164533787,100.56199883546621
160,250.724,7.370116869033652,100.62988313096635
161,253.607,5.3024072729024,100.6975927270976
162,256.488,5.234871118760395,100.7651288812396
163,259.369,5.1675071591842965,100.8324928408157
164,262.248,3.100314156674216,100.89968584332578
165,265.126,6.033290883620964,100.96670911637904
166,268.004,8.96643612227318,101.03356387772682
167,270.880,5.899748664704617,101.10025133529538
168,273.754,3.833227312781318,101.16677268721868
169,276.628,5.766870878128728,101.23312912187127
170,279.501,7.70067818209904,101.29932181790096
171,282.373,6.634648055738268,101.36535194426173
172,285.243,4.56877933975349,101.43122066024651
173,288.112,7.503070884480081,101.49692911551992
174,290.981,5.437521549848867,101.56247845015113
175,293.848,3.3721302053533435,101.62786979464666
176,296.714,5.306895730016834,101.69310426998317
177,299.579,7.241817012359789,101.75818298764021
178,302.442,6.176892950366863,101.82310704963314
179,305.305,6.112122451454169,101.88787754854583
180,308.167,4.047504432436526,101.95249556756347
181,311.027,3.9830378194945837,102.01696218050542
182,313.886,5.918721548142017,102.08127845185798
183,316.745,6.854554563192806,102.1454454368072
184,319.602,4.790535818728344,102.20946418127166
185,322.458,4.726664278064703,102.2733357219353
186,325.313,3.6629389137197848,102.33706108628022
187,328.167,3.59935870738056,102.40064129261944
188,331.019,7.53592264987023,102.46407735012977
189,333.871,7.472629741115455,102.52737025888455
190,336.722,4.409478990113541,102.59052100988646
191,339.571,6.346469414899616,102.65353058510038
192,342.419,9.283600042513896,102.7163999574861
193,345.266,8.220869908968794,102.7791300910312
194,348.113,7.158278059216187,102.84172194078381
195,350.958,7.095823547114591,102.90417645288541
196,353.801,6.03350543539635,102.96649456460365
197,356.644,5.971322795634848,103.02867720436515
198,359.486,7.909274708211711,103.09072529178829
199,362.327,2.8473602622840133,103.15263973771599
200,365.166,6.785578555751428,103.21442144424857
201,368.004,4.723928695223478,103.27607130477652
202,370.842,3.6624097959867328,103.33759020401327
203,373.678,3.6010209819719705,103.39897901802803
204,376.513,4.539761385721391,103.46023861427861
205,379.347,4.478630148355862,103.52136985164414
206,382.180,4.417626419542017,103.58237358045798
207,385.012,5.3567493574595915,103.64325064254041
208,387.843,7.295998128768474,103.70400187123153
209,390.672,4.235371908575999,103.764628091424
210,393.501,5.174869880404131,103.82513011959587
211,396.328,5.114491236156667,103.88550876384333
212,399.155,3.0542351760863937,103.9457648239136
213,401.980,4.994100908762334,104.00589909123767
214,404.804,4.934087651036904,104.0659123489631
215,407.627,6.874194628013171,104.12580537198683
216,410.449,4.814421073011999,104.185578926988
217,413.270,4.754766227539264,104.24523377246074
218,416.090,6.6952293412530395,104.30477065874696
219,418.909,6.635809671930829,104.36419032806917
220,421.726,2.5765064854367523,104.42349351456325
221,424.543,6.517319055688716,104.48268094431128
222,427.358,3.4582466646256336,104.54175333537437
223,430.173,3.39928860217465,104.60071139782535
224,432.986,4.340444166218305,104.6595558337817
225,435.798,3.281712662561702,104.7182873374383
226,438.609,4.2230934048997995,104.7769065951002
227,441.419,3.164585714784536,104.83541428521546
228,444.228,5.10618892159205,104.89381107840795
229,447.036,4.047902362489879,104.95209763751012
230,449.843,2.9897253824041314,105.01027461759587
231,452.649,4.931657333986777,105.06834266601322
232,455.453,3.8736975775827034,105.1263024224173
233,458.257,3.8158454811970586,105.18415451880294
234,461.059,3.758100420462341,105.24189957953766
235,463.861,4.700461778605643,105.29953822139436
236,466.661,2.6429289464158643,105.35707105358414
237,469.460,2.585501322210888,105.41449867778911
238,472.259,2.5281783118047656,105.47182168819523
239,475.056,4.470959328474947,105.52904067152505
240,477.852,1.413843792929498,105.5861562070705
241,480.647,5.356831133274227,105.64316886672577
242,483.440,5.299920784979918,105.70007921502008
243,486.233,4.243112190849587,105.75688780915041
244,489.025,4.186404800985599,105.8135951990144
245,491.815,2.12979807275687,105.87020192724313
246,494.605,5.0732914707661365,105.92670852923386
247,497.393,7.0168844668171175,105.98311553318288
248,500.181,5.960576539881657,106.03942346011834
249,502.967,6.904367176067012,106.09563282393299
250,505.752,10.848255868583024,106.15174413141698
251,508.537,14.79224211770925,106.20775788229075
252,511.320,8.736325430762278,106.26367456923772
253,514.102,5.680505322062842,106.31949467793716
254,516.883,6.624781312903025,106.37521868709698
255,519.663,8.569152931513514,106.43084706848649
256,522.441,4.513619713030721,106.48638028696928
257,525.219,5.4581811994640645,106.54181880053594
258,527.996,7.402836939663089,106.59716306033691
259,530.771,6.3475864892847085,106.65241351071529
260,533.546,4.292429410760434,106.70757058923957
261,536.319,4.237365273263492,106.76263472673651
262,539.092,6.182393652676069,106.81760634732393
263,541.863,7.127514131556552,106.87248586844345
264,544.633,9.07272629910662,106.92727370089338
265,547.403,6.01802975113857,106.98197024886143
266,550.171,4.963424090042423,107.03657590995758
267,552.938,3.9089089247531206,107.09109107524688
268,555.704,4.854483870717829,107.14551612928217
269,558.469,8.800148549862996,107.199851450137
270,561.233,5.745902590561641,107.25409740943836
271,563.996,5.691745627600554,107.30825437239945
272,566.757,2.637677302147452,107.36232269785255
273,569.518,2.5836972617181857,107.41630273828181
274,572.278,3.529805160143951,107.47019483985605
275,575.036,2.476000657538492,107.52399934246151
276,577.794,2.4222834202653303,107.57771657973467
277,580.550,2.368653120904881,107.63134687909512
278,583.306,5.315109438221697,107.6848905617783
279,586.060,0.26165205713169826,107.7383479428683
280,588.813,2.2082806686693175,107.79171933133068
281,591.566,3.1549949699547284,107.84500503004527
282,594.317,2.101794664161062,107.89820533583894
283,597.067,3.0486794604815515,107.95132053951845
284,599.816,2.995649074096761,108.00435092590324
285,602.564,2.9427032261418162,108.05729677385818
286,605.311,3.8898416436735346,108.11015835632647
287,608.057,1.837064059637683,108.16293594036232
288,610.802,3.7843702128361656,108.21562978716383
289,613.546,2.731759847894182,108.26824015210582
290,616.288,2.679232715227471,108.32076728477253
291,619.030,2.6267885710094987,108.3732114289905
292,621.771,3.5744271771386593,108.42557282286134
293,624.510,2.5221483012054335,108.47785169879457
294,627.249,5.469951716459661,108.53004828354034
295,629.986,4.417837201777701,108.5821627982223
296,632.723,2.3658045416295863,108.63419545837041
297,635.458,3.3138535260463016,108.6861464739537
298,638.192,6.261983950586938,108.73801604941306
299,640.926,3.210195616305896,108.7898043836941
300,643.658,0.0,108.84151167027991
301,646.389,4.10686190277616,108.89313809722384
302,649.119,5.055316152817625,108.94468384718238
303,651.848,4.003850902552131,108.99614909744787
304,654.576,0.9524659800186299,109.04753401998137
305,657.304,1.9011612185545914,109.09883878144541
306,660.029,5.849936456763174,109.15006354323683
307,662.754,3.798791538480444,109.20120846151956
308,665.478,0.7477263127425573,109.25227368725744
309,668.201,0.6967406337530093,109.30325936624699
310,670.923,1.645834360849733,109.35416563915027
311,673.644,1.5950073584724436,109.40499264152756
312,676.363,1.544259496129655,109.45574050387035
313,679.082,0.49359064836608013,109.50640935163392
314,681.800,1.4430006947296476,109.55699930527035
315,684.516,0.0,109.60751048026117
316,687.232,0.342057012849736,109.65794298715026
317,689.946,0.0,109.70829693157657
318,692.660,2.2414275856930317,109.75857241430697
319,695.372,4.191230468730964,109.80876953126904
320,698.084,2.1411116264161194,109.85888837358388
321,700.794,3.0910709724010985,109.9089290275989
322,703.503,1.0411084250793579,109.95889157492064
323,706.212,0.9912239075524809,110.00877609244752
324,708.919,0.9414173475972945,110.0585826524027
325,711.625,0.891688677633141,110.10831132236686
326,714.330,2.8420378346889947,110.157962165311
327,717.034,0.0,110.20753523962924
328,719.737,0.0,110.2570305991716
329,722.439,3.6935517067231416,110.30644829327686
330,725.141,4.644211633194715,110.35578836680529
331,727.841,3.5949491398285147,110.40505086017149
332,730.539,0.5457641906227906,110.45423580937721
333,733.237,4.496656753955875,110.50334324604412
334,735.934,7.447626802553373,110.55237319744663
335,738.630,5.398674313455373,110.60132568654463
336,741.325,7.349799267983613,110.65020073201639
337,744.019,6.301001651708702,110.6989983482913
338,746.712,2.2522814544173286,110.74771854558267
339,749.403,3.203638670079414,110.79636132992059
340,752.094,5.155073296815374,110.84492670318463
341,754.784,3.10658533686329,110.89341466313671
342,757.473,3.0581747965460693,110.94182520345393
343,760.160,2.0098416862387154,110.99015831376128
344,762.847,0.9615860203354742,111.03841397966453
345,765.532,1.9134078172170348,111.08659218278297
346,768.217,0.0,111.13469290078221
347,770.900,0.0,111.18271610740706
348,773.583,0.769338227485747,111.23066177251425
349,776.264,2.721470137894727,111.27852986210527
350,778.945,0.0,111.32632033835911
351,781.624,0.62596684033484,111.37403315966516
352,784.303,0.5783317193440496,111.42166828065595
353,786.980,2.5307743477600297,111.46922565223997
354,789.657,0.48329477836557544,111.51670522163442
355,792.332,2.4358930676018957,111.5641069323981
356,795.006,2.388569275535829,111.61143072446417
357,797.680,0.34132346582708806,111.65867653417291
358,800.352,0.0,111.7058442943046
359,803.023,1.2470660658877932,111.7529339341122
360,805.693,0.0,111.79994537935437
361,808.363,2.153121447672021,111.84687855232798
362,811.031,4.106266628098837,111.89373337190116
363,813.698,2.059490246454004,111.940509753546
364,816.364,2.012792390628718,111.98720760937128
365,819.029,2.966173151844572,112.03382684815543
366,821.694,0.9196326246207747,112.08036737537923
367,824.357,0.8731709067414073,112.12682909325859
368,827.019,2.8267880992225543,112.17321190077745
369,829.680,2.7804843062795612,112.21951569372044
370,832.340,1.734259635294137,112.26574036470586
371,834.999,1.6881141967816973,112.3118858032183
372,837.657,0.0,112.35795189564158
373,840.314,0.0,112.40393852529145
374,842.970,1.5501544275514902,112.44984557244851
375,845.625,0.504327085609134,112.49567291439087
376,848.279,0.0,112.54142042542702
377,850.932,1.4129120230713,112.5870879769287
378,853.584,0.36732456263644053,112.63267543736356
379,856.235,3.321817327671937,112.67818267232806
380,858.885,1.2763904554197154,112.72360954458028
381,861.534,0.2310440859273939,112.7689559140726
382,864.182,4.185778362015327,112.81422163798467
383,866.829,3.140593429243893,112.85940657075611
384,869.475,2.095489435880708,112.90451056411929
385,872.120,5.050466532867773,112.94953346713223
386,874.764,3.0055248737887297,112.99447512621127
387,877.407,4.960664614835977,113.03933538516402
388,880.049,9.91588591477796,113.08411408522204
389,882.690,6.871188934926295,113.1288110650737
390,885.330,6.826573839103034,113.17342616089697
391,887.969,3.7820407936078198,113.21795920639218
392,890.607,2.737589967185073,113.26241003281493
393,893.243,5.693221530991252,113.30677846900875
394,895.879,1.6489356585619959,113.351064341438
395,898.514,3.604732525779312,113.39526747422069
396,901.148,3.5606123108388488,113.43938768916115
397,903.781,3.516575194217012,113.48342480578299
398,906.413,3.47262135863825,113.52737864136175
399,909.044,4.428750989042143,113.57124901095786
400,911.674,2.384964272550704,113.6150357274493
401,914.303,1.3412613984355062,113.6587386015645
402,916.930,0.0,113.70235744191504
403,919.557,0.2541079449713948,113.7458920550286
404,922.183,4.210657754618353,113.78934224538165
405,924.808,2.1672921845678133,113.83270781543219
406,927.432,3.1240114343472527,113.87598856565275
407,930.055,0.08081570543700423,113.919184294563
408,932.677,2.03770520123733,113.96229479876267
409,935.298,0.0,114.00531987296431
410,937.918,1.9517406899739314,114.04825931002607
411,940.536,0.0,114.09111290098454
412,943.154,0.0,114.13388043508752
413,945.771,1.8234383001731658,114.17656169982683
414,948.387,1.7808435190288492,114.21915648097115
415,951.002,1.738335437401247,114.26166456259875
416,953.616,1.6959142728696435,114.30408572713036
417,956.229,0.0,114.34641975536191
418,958.841,2.611333573502634,114.38866642649737
419,961.452,1.569174481818436,114.43082551818156
420,964.062,2.5271031934670702,114.47289680653293
421,966.671,0.0,114.51488006617633
422,969.279,1.4432249297240958,114.5567750702759
423,971.886,0.0,114.59858159056776
424,974.492,2.3597006026070915,114.64029939739291
425,977.097,0.0,114.68192825972997
426,979.701,2.2765320547719625,114.72346794522804
427,982.304,2.2350817797606197,114.76491822023938
428,984.906,2.193721150147624,114.80627884985238
429,987.507,1.152450402075786,114.84754959792421
430,990.107,0.0,114.88873022711375
431,992.706,1.0701795010857467,114.92982049891425
432,995.305,0.0,114.97082017368626
433,997.902,0.9882709893095978,115.0117290106904
434,1000.498,0.0,115.05254676812007
435,1003.093,0.906726796865641,115.09327320313436
436,1005.687,0.0,115.13390807189083
437,1008.280,0.0,115.17445112957827
438,1010.873,0.0,115.21490213044953
439,1013.464,0.0,115.25526082785433
440,1016.054,0.0,115.29552697427201
441,1018.643,0.6642996786555813,115.33570032134442
442,1021.232,0.0,115.37578061990865
443,1023.819,0.0,115.41576762002983
444,1026.405,0.5443389289660274,115.45566107103397
445,1028.991,2.504539278459248,115.49546072154075
446,1031.575,3.4648336805036877,115.53516631949631
447,1034.158,0.0,115.57477761220606
448,1036.741,0.0,115.61429434636747
449,1039.322,1.346283731897131,115.65371626810287
450,1041.903,1.3069568770077211,115.69304312299228
451,1044.482,0.0,115.73227465610618
452,1047.061,0.0,115.77141061203834
453,1049.638,2.18954926506143,115.81045073493857
454,1052.215,1.1506052314544206,115.84939476854558
455,1054.790,0.11175754378024294,115.88824245621976
456,1057.365,1.0730064590240715,115.92699354097593
457,1059.938,0.0,115.96564776551627
458,1062.511,1.9957951277370398,116.00420487226296
459,1065.083,3.957335396608883,116.04266460339112
460,1067.653,0.0,116.08102670086151
461,1070.223,0.8807090935465851,116.11929090645341
462,1072.792,0.8425430382026349,116.15745696179737
463,1075.360,1.8044753915920069,116.195524608408
464,1077.927,1.766506412283178,116.23349358771682
465,1080.492,1.728636358894974,116.27136364110503
466,1083.057,2.6908654900636293,116.30913450993637
467,1085.621,1.6531940644102292,116.34680593558977
468,1088.184,4.615622340507656,116.38437765949234
469,1090.746,4.5781505768479605,116.42184942315204
470,1093.307,4.540779031809464,116.45922096819054
471,1095.867,0.0,116.496492036376
472,1098.426,0.466337630344114,116.53366236965589
473,1100.984,5.429268289810267,116.57073171018973
474,1103.541,3.392300199617978,116.60769980038202
475,1106.097,2.3554336170851116,116.64456638291489
476,1108.653,2.3186687992190116,116.68133120078099
477,1111.207,4.282006002683701,116.7179939973163
478,1113.760,0.24544548376714204,116.75455451623286
479,1116.312,2.2089874983483497,116.79101250165165
480,1118.864,0.1726323018646383,116.82736769813536
481,1121.414,1.1363801492788355,116.86361985072116
482,1123.964,0.10023129504648409,116.89976870495352
483,1126.512,0.06418599308292983,116.93581400691707
484,1129.059,3.028244496730707,116.97175550326929
485,1131.606,3.992407058726542,117.00759294127346
486,1134.152,1.9566739311687371,117.04332606883126
487,1136.696,5.921045365484218,117.07895463451578
488,1139.240,6.885521612395834,117.11447838760417
489,1141.782,4.850102921889473,117.14989707811053
490,1144.324,3.814789543181334,117.18521045681867
491,1146.865,3.77958172468513,117.22041827531487
492,1149.405,5.74447971397916,117.25552028602084
493,1151.944,2.7094837577736826,117.29051624222632
494,1154.481,4.674594101878014,117.32540589812199
495,1157.018,2.639810991167735,117.36018900883226
496,1159.554,1.6051346695518873,117.39486533044811
497,1162.089,3.570565379940234,117.42943462005977
498,1164.623,3.5361033642103337,117.46389663578967
499,1167.157,7.501748863174896,117.4982511368251
500,1169.689,5.467502116548857,117.53249788345114
501,1172.220,7.433363362916609,117.56663663708339
502,1174.750,8.399332839699255,117.60066716030074
503,1177.279,1.3654107831217175,117.63458921687828
504,1179.808,1.3315974281800322,117.66840257181997
505,1182.335,1.2978930086084404,117.70210699139156
506,1184.861,0.26429775684668755,117.73570224315331
507,1187.387,4.230811904007169,117.76918809599283
508,1189.911,5.197435679842144,117.80256432015786
509,1192.435,7.164169312710925,117.83583068728908
510,1194.958,9.131013029547049,117.86898697045295
511,1197.479,6.097967055825592,117.90203294417441
512,1200.000,12.065031615530202,117.9349683844698
513,1202.520,6.032206931120427,117.96779306887957
514,1205.039,8.999493223498845,118.00050677650115
515,1207.556,9.966890711978294,118.0331092880217
516,1210.073,4.93439961424906,118.06560038575094
517,1212.589,7.9020201463461035,118.0979798536539
518,1215.104,8.869752522616167,118.13024747738383
519,1217.618,5.837596955685086,118.16240304431491
520,1220.132,7.805553656424976,118.19444634357502
521,1222.644,6.773622833921337,118.22637716607866
522,1225.155,4.741804695440308,118.25819530455969
523,1227.665,4.710099446395901,118.2899005536041
524,1230.175,8.678507290317171,118.32149270968283
525,1232.683,9.64702842881539,118.35297157118461
526,1235.190,8.615663061551288,118.38433693844871
527,1237.697,7.58441138620222,118.41558861379778
528,1240.202,6.553273598429371,118.44672640157063
529,1242.707,5.52224989184495,118.47775010815505
530,1245.211,8.491340457979447,118.50865954202055
531,1247.714,8.460545486248733,118.53945451375127
532,1250.215,5.429865163921349,118.57013483607865
533,1252.716,6.399299676085633,118.60070032391437
534,1255.216,6.3688492056169395,118.63115079438306
535,1257.715,8.33851393314491,118.66148606685509
536,1260.213,9.30829403702056,118.69170596297944
537,1262.710,7.278189693283537,118.72181030671646
538,1265.206,8.24820107562934,118.75179892437066
539,1267.702,10.218328355376457,118.78167164462354
540,1270.196,12.188571701433602,118.8114282985664
541,1272.689,12.158931280266927,118.84106871973307
542,1275.182,15.129407255867193,118.87059274413281
543,1277.673,16.099999789716975,118.90000021028303
544,1280.164,20.070709040757862,118.92929095924214
545,1282.653,21.041535165357658,118.95846483464234
546,1285.142,19.012478317277584,118.98752168272242
547,1287.630,15.983538647639463,119.01646135236054
548,1290.116,14.954716304892969,119.04528369510703
549,1292.602,12.926011434782737,119.07398856521726
550,1295.087,14.897424180315625,119.10257581968438
551,1297.571,10.8689546817279,119.1310453182721
552,1300.054,11.840603076452439,119.15939692354756
553,1302.536,13.812369499085946,119.18763050091405
554,1305.018,10.784254081356096,119.2157459186439
555,1307.498,16.756256952088734,119.24374304791127
556,1309.977,19.728378237175207,119.2716217628248
557,1312.455,21.70061805953938,119.29938194046062
558,1314.933,18.67297653910495,119.32702346089505
559,1317.409,20.645453792762595,119.3545462072374
560,1319.885,21.61804993433718,119.38195006566282
561,1322.360,22.59076507455501,119.40923492544499
562,1324.834,25.56359932101094,119.43640067898906
563,1327.306,24.536552778135643,119.46344722186436
564,1329.778,26.509625547162756,119.49037445283724
565,1332.249,25.482817726096158,119.51718227390384
566,1334.719,23.45612940967706,119.54387059032294
567,1337.188,23.42956068935129,119.57043931064871
568,1339.657,25.403111653236465,119.59688834676354
569,1342.124,31.376782386089175,119.62321761391082
570,1344.590,28.35057296927218,119.64942703072782
571,1347.056,29.32448348072171,119.67551651927829
572,1349.520,28.29851399491443,119.70148600508557
573,1351.984,27.27266458283492,119.72733541716508
574,1354.446,21.24693531194265,119.75306468805735
575,1356.908,25.22132624613934,119.77867375386066
576,1359.369,29.195837445736004,119.804162554264
577,1361.829,29.170468967420334,119.82953103257967
578,1364.287,28.145220864223703,119.8547791357763
579,1366.746,23.1200931854885,119.8799068145115
580,1369.203,26.095085976835307,119.9049140231647
581,1371.659,27.070199280130026,119.92980071986997
582,1374.114,21.045433133451155,119.95456686654884
583,1376.568,18.020787571056985,119.97921242894301
584,1379.022,17.99626262335272,120.00373737664728
585,1381.474,15.971858316857777,120.02814168314222
586,1383.926,10.947574674172927,120.05242532582707
587,1386.377,13.923411713947488,120.07658828605251
588,1388.826,10.899369450846535,120.10063054915346
589,1391.275,11.875447895518164,120.12455210448184
590,1393.723,10.851647054560544,120.14835294543946
591,1396.170,12.827966930489282,120.17203306951072
592,1398.616,10.804407521704476,120.19559247829552
593,1401.061,9.780968822458021,120.21903117754198
594,1403.506,9.75765082282075,120.24234917717925
595,1405.949,6.734453508649693,120.2655464913503
596,1408.391,7.711376861555152,120.28862313844485
597,1410.833,8.688420858868085,120.31157914113192
598,1413.273,5.665585473607081,120.33441452639292
599,1415.713,9.642870674445774,120.35712932555423
600,1418.152,6.62027642567989,120.37972357432011
601,1420.590,9.59780268719453,120.40219731280547
602,1423.027,7.575449414431347,120.42455058556865
603,1425.463,4.5532165583557,120.4467834416443
604,1427.898,9.531104065423946,120.46889593457605
605,1430.332,7.509111877550524,120.49088812244948
606,1432.765,10.487239932075255,120.51276006792475
607,1435.198,9.465488161730491,120.53451183826951
608,1437.629,8.443856494608312,120.55614350539169
609,1440.060,10.422344854127743,120.57765514587226
610,1442.489,10.400953159001944,120.59904684099806
611,1444.918,9.379681323205403,120.6203186767946
612,1447.346,12.35852925594115,120.64147074405885
613,1449.773,11.33749686160796,120.66250313839204
614,1452.199,13.316584039767505,120.6834159602325
615,1454.624,10.295790685111598,120.7042093148884
616,1457.048,12.275116687429431,120.72488331257057
617,1459.471,18.254561931574628,120.74543806842537
618,1461.894,13.234126297432624,120.76587370256738
619,1464.315,12.21380965988773,120.78619034011227
620,1466.736,10.1936118887904,120.8063881112096
621,1469.156,9.173532848924424,120.82646715107558
622,1471.574,8.153572399974053,120.84642760002595
623,1473.992,7.1337303964913445,120.86626960350866
624,1476.409,7.114006687863224,120.88599331213678
625,1478.825,4.094401118278711,120.90559888172129
626,1481.240,3.0749135266962355,120.92508647330376
627,1483.655,3.0555437468106135,120.94445625318939
628,1486.068,0.0,120.96370839297951
629,1488.480,3.0171569303953305,120.98284306960467
630,1490.892,4.998139534642789,121.00186046535721
631,1493.303,0.0,121.0207607679242
632,1495.712,1.9604558295797574,121.03954417042024
633,1498.121,5.94178912857987,121.05821087142013
634,1500.529,2.9232389250081496,121.07676107499185
635,1502.936,1.904805009270774,121.09519499072923
636,1505.343,1.886487166215204,121.1135128337848
637,1507.748,2.868285175097398,121.1317148249026
638,1510.152,3.8501988095490276,121.14980119045097
639,1512.556,1.8322278375446786,121.16777216245532
640,1514.958,3.814372021368996,121.185627978631
641,1517.360,3.796631117583985,121.20336888241602
642,1519.761,0.7790048769960691,121.22099512300393
643,1522.161,1.7614930446234212,121.23850695537658
644,1524.560,1.7440953596631061,121.2559046403369
645,1526.958,3.726811555458255,121.27318844454174
646,1529.355,2.7096413594653086,121.29035864053469
647,1531.751,4.692584493221233,121.30741550677877
648,1534.147,4.675640672310607,121.3243593276894
649,1536.541,8.658809606332966,121.34119039366703
650,1538.935,6.6420909988698895,121.35790900113011
651,1541.327,5.6254845474522455,121.37451545254775
652,1543.719,5.608989943527433,121.39101005647257
653,1546.110,3.592606872426501,121.4073931275735
654,1548.500,4.576335013331345,121.42366498666865
655,1550.889,2.560174039242014,121.43982596075799
656,1553.278,1.544123616943807,121.4558763830562
657,1555.665,3.5281834069744633,121.47181659302554
658,1558.052,1.5123530635914904,121.48764693640851
659,1560.437,4.496632234739138,121.50336776526086
660,1562.822,5.481020562015857,121.51897943798414
661,1565.206,5.465517680641312,121.53448231935869
662,1567.589,3.4501232194236593,121.54987678057634
663,1569.971,3.4348368007267,121.5651631992733
664,1572.352,2.419658040437156,121.58034195956284
665,1574.732,2.4045865479317428,121.59541345206826
666,1577.112,1.3896219260445264,121.61037807395547
667,1579.490,3.374763771033969,121.62523622896603
668,1581.868,6.360011672550286,121.63998832744971
669,1584.245,0.34536521360240613,121.6546347863976
670,1586.620,1.3308239705254863,121.66917602947451
671,1588.995,4.316387512947898,121.6836124870521
672,1591.370,5.302055403758374,121.69794459624163
673,1593.743,3.287827199073405,121.7121728009266
674,1596.115,0.27370244820436085,121.72629755179564
675,1598.486,1.2596806936245741,121.74031930637543
676,1600.857,4.2457614709367135,121.75423852906329
677,1603.227,4.231944308839843,121.76805569116016
678,1605.596,5.218228729096737,121.78177127090326
679,1607.963,3.2046142465009666,121.79538575349903
680,1610.330,1.191100368844232,121.80889963115577
681,1612.697,3.177686596883376,121.82231340311662
682,1615.062,1.1643724243077571,121.83562757569224
683,1617.426,2.151157337706394,121.8488426622936
684,1619.790,0.1380408165351099,121.86195918346489
685,1622.152,0.0,121.87497766691624
686,1624.514,1.1121013524435455,121.88789864755645
687,1626.875,1.0992773324739602,121.90072266752604
688,1629.235,1.0865497237702755,121.91345027622972
689,1631.594,1.0739179696305143,121.92608203036949
690,1633.952,3.061381506022755,121.93861849397724
691,1636.310,0.04893976155234725,121.95106023844765
692,1638.666,3.0365921574290553,121.96340784257094
693,1641.022,0.0,121.97566189256574
694,1643.377,1.0121770178882343,121.98782298211177
695,1645.731,0.00010828761722336822,121.99989171238278
696,1648.084,0.9881313079206819,122.01186869207932
697,1650.436,0.9762454625385857,122.02375453746141
698,1652.787,1.9644501276185053,122.0355498723815
699,1655.137,0.9527446716827512,122.04725532831725
700,1657.487,0.9411284555958161,122.05887154440418
701,1659.835,1.9296008325312926,122.07039916746871
702,1662.183,0.0,122.08183885206077
703,1664.530,1.9068087395133517,122.09319126048665
704,1666.876,2.895542937158126,122.10445706284187
705,1669.221,0.8843630629560835,122.11563693704392
706,1671.565,1.8732684311349885,122.12673156886501
707,1673.909,0.0,122.137741651965
708,1676.251,1.8513321120758803,122.14866788792412
709,1678.593,0.0,122.15951098627576
710,1680.934,3.829728335460672,122.17027166453933
711,1683.274,0.8190493517470117,122.18095064825299
712,1685.613,0.0,122.1915486710065
713,1687.951,2.7979335255259628,122.20206647447404
714,1690.288,2.787495191553063,122.21250480844694
715,1692.625,0.7771355691334634,122.22286443086654
716,1694.960,1.7668538921430468,122.23314610785695
717,1697.295,2.75664938624206,122.24335061375794
718,1699.629,0.0,122.2534787311576
719,1701.962,1.7364687490747883,122.26353125092521
720,1704.294,0.0,122.27350897224416
721,1706.625,0.0,122.28341270264451
722,1708.956,0.0,122.293243258036
723,1711.285,0.0,122.30300146274071
724,1713.614,2.687311850474032,122.31268814952597
725,1715.942,2.6776958403628583,122.32230415963714
726,1718.269,0.6681496571696925,122.33185034283031
727,1720.595,1.6586724425948205,122.34132755740518
728,1722.920,1.6492633297620642,122.35073667023794
729,1725.244,3.639921443186097,122.3600785568139
730,1727.568,2.6306458987394876,122.36935410126051
731,1729.890,2.6214358036201872,122.37856419637981
732,1732.212,0.0,122.38770974368165
733,1734.533,3.6032083465837985,122.3967916534162
734,1736.853,0.59418915539311,122.40581084460689
735,1739.172,0.0,122.41476824508311
736,1741.491,1.5763352084868245,122.42366479151318
737,1743.808,4.567498570563103,122.4325014294369
738,1746.125,2.5587208867014795,122.44127911329852
739,1748.440,2.5500011935203872,122.44999880647961
740,1750.755,0.5413385186683399,122.45866148133166
741,1753.069,0.0,122.46726811920904
742,1755.383,0.5241802894983323,122.47581971050167
743,1757.695,0.5156827453320147,122.48431725466799
744,1760.006,1.5072382397323736,122.49276176026763
745,1762.317,3.4988457550057888,122.50115424499421
746,1764.627,1.4905042642917863,122.50949573570821
747,1766.936,0.0,122.51778726846976
748,1769.244,1.4739701114285708,122.52602988857143
749,1771.551,0.46577534942906595,122.53422465057093
750,1773.857,0.45762738167587713,122.54237261832412
751,1776.163,0.4495251349823661,122.55047486501763
752,1778.467,0.44146752679826307,122.55853247320174
753,1780.771,3.4334534651768394,122.56654653482316
754,1783.074,1.4254818487421232,122.57451815125788
755,1785.376,0.4175515666561296,122.58244843334387
756,1787.677,2.409661498586047,122.59033850141395
757,1789.978,3.4018105146713395,122.59818948532866
758,1792.277,3.3939974754910907,122.60600252450891
759,1794.576,0.38622123203117553,122.61377876796882
760,1796.874,1.3784806256513207,122.62151937434868
761,1799.171,3.37077448805249,122.62922551194751
762,1801.467,0.3631016412439294,122.63689835875607
763,1803.762,2.355460897510511,122.64453910248949
764,1806.057,0.0,122.65214894062015
765,1808.350,0.0,122.65972908041059
766,1810.643,3.33271926105391,122.66728073894609
767,1812.935,1.32519485683234,122.67480514316766
768,1815.226,1.3176964700952993,122.6823035299047
769,1817.516,1.3102228540921175,122.68977714590788
770,1819.805,0.0,122.69722724788201
771,1822.094,0.0,122.70465510251867
772,1824.381,4.287938013470907,122.7120619865291
773,1826.668,2.2805508133229466,122.71944918667705
774,1828.954,1.2731820001884842,122.72681799981152
775,1831.239,0.26583026710042645,122.73416973289957
776,1833.524,2.258494296940839,122.74150570305916
777,1835.807,2.2511727624082027,122.7488272375918
778,1838.090,2.2438643259844184,122.75613567401558
779,1840.371,2.236567639902134,122.76343236009787
780,1842.652,1.2292813461120033,122.770718653888
781,1844.932,0.0,122.77799592375027
782,1847.212,4.21473445160332,122.78526554839668
783,1849.490,4.2074710830804065,122.7925289169196
784,1851.768,0.0,122.79978742882469
785,1854.044,0.19295750593622074,122.80704249406378
786,1856.320,3.185704466932492,122.81429553306751
787,1858.595,0.17845202322183695,122.82154797677816
788,1860.869,0.0,122.82880126668258
789,1863.143,0.16394314515517294,122.83605685484483
790,1865.415,2.156683796060875,122.84331620393912
791,1867.687,0.14941921271751823,122.85058078728248
792,1869.958,2.142147911132355,122.85785208886765
793,1872.228,4.134868396604148,122.86513160339585
794,1874.497,5.127579163690342,122.87242083630966
795,1876.765,2.120278696174438,122.87972130382556
796,1879.033,3.112965467032822,122.88703453296718
797,1881.299,1.1056379384023955,122.8943620615976
798,1883.565,1.098294561547462,122.90170543845254
799,1885.830,3.0909337768270007,122.909066223173
800,1888.094,3.0835540136620523,122.91644598633795
801,1890.357,4.076153690502537,122.92384630949746
802,1892.620,3.06873121479488,122.93126878520512
803,1894.881,3.0612849829488766,122.93871501705112
804,1897.142,4.053813380305087,122.94618661969491
805,1899.402,2.0463147811019695,122.95368521889803
806,1901.661,4.038787548443011,122.96121245155699
807,1903.920,0.031230034264112305,122.96876996573589
808,1906.177,3.0236405793005616,122.97635942069944
809,1908.434,5.016017513054436,122.98398248694556
810,1910.690,2.0083591537615746,122.99164084623843
811,1912.944,2.00066380835905,122.99933619164095
812,1915.199,0.0,123.00707022754784
813,1917.452,1.9851553302816285,123.01484466971837
814,1919.704,4.977338754691033,123.02266124530897
815,1921.956,3.9694783070936808,123.03052169290632
816,1924.207,3.9615722374400235,123.03842776255998
817,1926.457,1.9536187841848118,123.04638121581519
818,1928.706,2.9456161742542832,123.05438382574572
819,1930.954,2.9375626230133207,123.06243737698668
820,1933.202,0.9294563342326541,123.07054366576735
821,1935.449,2.92129550005626,123.07870449994374
822,1937.694,2.9130783009681522,123.08692169903185
823,1939.939,0.9048029057600786,123.09519709423992
824,1942.184,1.8964674714982266,123.10353252850177
825,1944.427,0.8880701434907934,123.1119298565092
826,1946.670,1.8796090552550453,123.12039094474495
827,1948.911,5.871082328484476,123.12891767151552
828,1951.152,0.8624880730161095,123.13751192698389
829,1953.392,0.0,123.14617561320244
830,1955.632,0.0,123.15491064414566
831,1957.870,3.8362810542570855,123.16371894574291
832,1960.108,0.8273975440886261,123.17260245591137
833,1962.344,3.8184368754112654,123.18156312458873
834,1964.580,0.8093970862340427,123.19060291376596
835,1966.815,3.8002762024797505,123.19972379752025
836,1969.050,0.7910722379523492,123.20892776204765
837,1971.283,3.7817831943039835,123.21821680569602
838,1973.516,2.7724070610022977,123.2275929389977
839,1975.748,5.762941815297566,123.23705818470243
840,1977.979,1.7533854221899503,123.24661457781005
841,1980.209,4.743735834396631,123.25626416560337
842,1982.438,1.733990992319093,123.2660090076809
843,1984.667,2.7241488240102143,123.27585117598979
844,1986.895,0.7142072451415515,123.28579275485845
845,1989.122,3.7041641589705137,123.29583584102949
846,1991.348,2.6940174563075914,123.30598254369241
847,1993.573,3.6837650154834876,123.31623498451651
848,1995.798,0.6734047023163328,123.32659529768367
849,1998.021,2.662934370078915,123.33706562992109
850,2000.244,3.652351859465881,123.34764814053412
851,2002.466,0.6416549985609947,123.358345001439
852,2004.687,0.6308416028040682,123.36915839719593
853,2006.908,3.6199094749585186,123.38009052504148
854,2009.127,3.6088564050783702,123.39114359492163
855,2011.346,2.597680170475485,123.40231982952452
856,2013.564,4.586378535686691,123.41362146431331
857,2015.781,2.574949252441158,123.42505074755884
858,2017.997,1.56339005962748,123.43660994037252
859,2020.213,3.551698683260753,123.44830131673925
860,2022.428,0.5398728364500585,123.46012716354994
861,2024.641,5.5279102193653955,123.4720897806346
862,2026.855,6.515808519205095,123.4841914807949
863,2029.067,1.503565410162878,123.49643458983712
864,2031.278,4.491178553395002,123.508821446605
865,2033.489,0.47864559698774656,123.52135440301225
866,2035.699,0.4659641759242419,123.53403582407576
867,2037.908,3.4531319120519015,123.5468680879481
868,2040.116,1.4401464140495364,123.55985358595046
869,2042.323,4.42700527739467,123.57299472260533
870,2044.530,1.4137060843305562,123.58629391566944
871,2046.736,1.400246403833421,123.59975359616658
872,2048.941,1.3866237915798933,123.6133762084201
873,2051.145,0.3728357899137933,123.6271642100862
874,2053.348,3.358879927813746,123.64112007218625
875,2055.551,3.344753720860112,123.65524627913989
876,2057.752,1.3304546712021477,123.66954532879785
877,2059.953,1.3159802675256174,123.68401973247438
878,2062.153,2.301327985019441,123.69867201498056
879,2064.353,3.286495285343136,123.71350471465686
880,2066.551,4.271479616594235,123.72852038340577
881,2068.749,4.25627841327514,123.74372158672486
882,2070.946,3.2408890962604175,123.75911090373958
883,2073.142,3.225309072764105,123.7746909272359
884,2075.337,3.209535736306904,123.7904642636931
885,2077.532,5.193566466683194,123.8064335333168
886,2079.725,5.177398629928419,123.82260137007158
887,2081.918,3.1610295782861613,123.83897042171384
888,2084.110,3.144456650175556,123.85554334982444
889,2086.302,1.1276771701581652,123.87232282984183
890,2088.492,3.1106884489054494,123.88931155109455
891,2090.682,2.093487783165827,123.90651221683417
892,2092.871,2.0760724557318895,123.92392754426811
893,2095.059,2.058439735407646,123.94156026459235
894,2097.246,4.040586876975738,123.95941312302426
895,2099.432,2.0225111211644844,123.97748887883552
896,2101.618,4.004209694615298,123.9957903053847
897,2103.803,3.985679809849742,124.01432019015026
898,2105.987,3.966918665236733,124.03308133476327
899,2108.170,7.947923444959855,124.05207655504014
900,2110.353,3.9286913189844057,124.0713086810156
901,2112.534,4.909219443024696,124.0907805569753
902,2114.715,3.8895049585111963,124.1104950414888
903,2116.895,3.869544992557806,124.1304550074422
904,2119.074,2.8493366579288733,124.15066334207113
905,2121.253,6.828877053006693,124.17112294699331
906,2123.430,3.8081632617584376,124.19183673824156
907,2125.607,1.7871923537034888,124.21280764629651
908,2127.783,2.7659613838805797,124.23403861611942
909,2129.959,2.744467392815025,124.25553260718497
910,2132.133,2.722707406485938,124.27729259351406
911,2134.307,4.7006784362933445,124.29932156370666
912,2136.480,3.6783774790254995,124.3216225209745
913,2138.652,2.655801516826017,124.34419848317398
914,2140.823,3.6329475171609857,124.36705248283901
915,2142.994,2.6098124327863985,124.3901875672136
916,2145.163,4.58639320171514,124.41360679828486
917,2147.332,3.5626867471842587,124.43731325281574
918,2149.500,4.53868997762217,124.46131002237783
919,2151.668,3.514399786615826,124.48560021338417
920,2153.834,5.489813052878034,124.51018694712197
921,2156.000,2.4649266402144008,124.5350733597856
922,2158.165,5.439737397490887,124.56026260250911
923,2160.329,1.4142421586005867,124.58575784139941
924,2162.492,4.3884377424313925,124.61156225756861
925,2164.655,2.3623209528326754,124.63767904716732
926,2166.817,2.3358885785830523,124.66411142141695
927,2168.978,3.3091373933570196,124.69086260664298
928,2171.138,3.2820641556926233,124.71793584430738
929,2173.298,3.2546656089583337,124.74533439104167
930,2175.456,3.226938481320474,124.77306151867953
931,2177.614,4.198879485710194,124.8011205142898
932,2179.771,1.170485319790913,124.82951468020909
933,2181.927,3.141752665925253,124.85824733407475
934,2184.083,6.112678191142493,124.88732180885751
935,2186.238,5.0832585471057,124.9167414528943
936,2188.391,1.053490370078677,124.94650962992132
937,2190.545,5.023370280893573,124.97662971910643
938,2192.697,1.9928948849177317,125.00710511508227
939,2194.848,1.9620607720210899,125.03793922797891
940,2196.999,1.9308645165433802,125.06913548345662
941,2199.149,6.899302677261176,125.10069732273882
942,2201.298,3.8673717973552186,125.13262820264478
943,2203.447,1.8350684043775232,125.16493159562248
944,2205.594,1.8023890102187323,125.19761098978127
945,2207.741,2.7693301110752344,125.23066988892477
946,2209.887,4.735888187416222,125.26411181258378
947,2212.033,1.7020597039511074,125.29794029604889
948,2214.177,0.0,125.33215889040339
949,2216.321,3.6332288374438804,125.36677116255612
950,2218.464,3.5982193047259727,125.40178069527403
951,2220.606,2.5628089127847318,125.43719108721527
952,2222.747,3.5269940470381727,125.47300595296183
953,2224.888,3.4907710769476097,125.50922892305239
954,2227.028,5.454136355984872,125.54586364401513
955,2229.167,5.41708622159949,125.58291377840051
956,2231.305,2.379616995185927,125.62038300481407
957,2233.442,4.341724982050835,125.65827501794917
958,2235.579,7.3034064713801,125.6965935286199
959,2237.715,2.2646577362060896,125.73534226379391
960,2239.850,2.22547503337492,125.77452496662508
961,2241.984,1.1858546035136897,125.81414539648631
962,2244.118,3.14579267099748,125.85420732900252
963,2246.251,1.105285443916756,125.89471455608324
964,2248.383,0.06432911404448305,125.93567088595552
965,2250.514,0.022919856803298444,125.9770801431967
966,2252.645,2.981053831232771,126.01894616876723
967,2254.774,1.9387271799566008,126.0612728200434
968,2256.903,2.8959360291496523,126.10406397085035
969,2259.031,3.852676488505466,126.14732351149453
970,2261.159,3.8089446512032197,126.19105534879678
971,2263.285,5.764736593874915,126.23526340612509
972,2265.411,3.7200483765727483,126.27995162342725
973,2267.536,3.674876042736173,126.32512395726383
974,2269.660,3.6292156191591403,126.37078438084086
975,2271.784,2.5830631159572874,126.41693688404271
976,2273.907,4.53641452653514,126.46358547346486
977,2276.029,4.489265827553254,126.51073417244675
978,2278.150,2.4416129788956766,126.55838702110432
979,2280.270,3.3934519236366896,126.60654807636331
980,2282.390,3.3447785880084098,126.65522141199159
981,2284.509,4.295588881367877,126.70441111863212
982,2286.627,4.245878696164027,126.75412130383597
983,2288.744,3.1956439079052075,126.80435609209479
984,2290.861,4.144880375126348,126.85511962487365
985,2292.976,2.093583939355881,126.90641606064412
986,2295.091,2.0417504250832224,126.95824957491678
987,2297.206,0.9893756397257221,127.01062436027428
988,2299.319,4.936455373596274,127.06354462640373
989,2301.432,1.8829853998699235,127.11701460013008
990,2303.544,2.82896147455169,127.17103852544831
991,2305.655,4.7743793364431895,127.22562066355681
992,2307.765,1.719234707110445,127.28076529288955
993,2309.875,0.6635232908504065,127.3364767091496
994,2311.984,3.607240774658635,127.39275922534136
995,2314.092,1.5503828281964047,127.4496171718036
996,2316.199,3.4929451037579327,127.50705489624207
997,2318.306,1.4349232362371822,127.56507676376282
998,2320.411,1.376312843095775,127.62368715690423
999,2322.516,0.0,127.68289047567045
1000,2324.621,0.25730886243599116,127.74269113756401
1001,2326.724,0.19690642238163036,127.80309357761837
1002,2328.827,2.135897751568905,127.8641022484311
1003,2330.929,2.0742783798035305,127.92572162019647
1004,2333.030,2.0120438192617485,127.98795618073825
1005,2335.131,1.9491895644574129,128.0508104355426
1006,2337.230,2.885711092209135,128.11428890779086
1007,2339.329,1.8216038616078833,128.17839613839212
1008,2341.427,1.7568633139834446,128.24313668601656
1009,2343.525,2.691484872872479,128.30851512712752
1010,2345.621,0.0,128.37453605601496
1011,2347.717,1.558795915172027,128.44120408482797
1012,2349.812,2.491476156392565,128.50852384360743
1013,2351.907,0.0,128.57649998031914
1014,2354.000,0.3548628391135935,128.6451371608864
1015,2356.093,0.2855599307771399,128.71444006922286
1016,2358.185,1.2155865927347236,128.78441340726528
1017,2360.276,4.144938104993571,128.85506189500643
1018,2362.367,2.0736097294720253,128.92639027052797
1019,2364.457,3.001596709967231,128.99840329003277
1020,2366.546,0.9288942721216245,129.07110572787838
1021,2368.634,1.8554976233905904,129.1445023766094
1022,2370.722,2.7814019530095493,129.21859804699045
1023,2372.808,0.0,129.29339756803878
