# kind,background_subtracted
# version_label,v1_poly4
# poly_order,4
# iterations_run,18
pixel_index,raman_shift_cm-1,intensity,background_intensity
0,-225.132,460.9766258817564,228.02337411824362
1,-222.063,449.5492792738929,234.4507207261071
2,-218.996,448.14027978624017,240.8597202137598
3,-215.930,439.74958451419604,247.25041548580398
4,-212.866,429.37715060838855,253.62284939161145
5,-209.802,423.02293527467646,259.97706472532354
6,-206.740,408.6868957741488,266.3131042258512
7,-203.679,417.3689894231253,272.6310105768747
8,-200.619,411.069173593156,278.930826406844
9,-197.561,399.78740571102145,285.21259428897855
10,-194.503,403.52364325873265,291.47635674126735
11,-191.447,392.2778437735312,297.7221562264688
12,-188.392,371.049964847889,303.950035152111
13,-185.338,367.83996412950853,310.16003587049147
14,-182.285,367.64779932132274,316.35220067867726
15,-179.234,364.473428181495,322.526571818505
16,-176.184,363.31680852341924,328.68319147658076
17,-173.135,349.17789821571984,334.82210178428016
18,-170.087,336.0566551822515,340.9433448177485
19,-167.040,328.95303740209965,347.04696259790035
20,-163.995,344.86700290958004,353.13299709041996
21,-160.951,325.79850979423895,359.20149020576105
22,-157.908,318.747516200853,365.252483799147
23,-154.866,315.7139803294295,371.2860196705705
24,-151.825,309.69786043520605,377.30213956479395
25,-148.786,301.699114828651,383.300885171349
26,-145.747,295.7177018754627,389.2822981245373
27,-142.710,290.75357999657035,395.24642000342965
28,-139.674,286.80670766813364,401.19329233186636
29,-136.640,286.87704342154245,407.12295657845755
30,-133.606,264.96454584341745,413.03545415658255
31,-130.574,270.0691735756096,418.9308264243904
32,-127.543,258.1908853152004,424.8091146847996
33,-124.513,252.32963981450166,430.67036018549834
34,-121.484,243.48539588105592,436.5146041189441
35,-118.457,237.65811237763614,442.34188762236386
36,-115.430,243.8477482222455,448.1522517777545
37,-112.405,242.054262388118,453.945737611882
38,-109.381,224.27761390371796,459.72238609628204
39,-106.358,209.51776185274008,465.4822381472599
40,-103.337,203.77466537410976,471.22533462589024
41,-100.316,210.04828366198262,476.9517163380174
42,-97.297,203.338575965745,482.661424034255
43,-94.279,202.6455015900135,488.3544984099865
44,-91.262,190.96901989463527,494.03098010536473
45,-88.246,193.30909029468808,499.6909097053119
46,-85.232,198.66567226048,505.33432773952
47,-82.218,185.0387253175495,510.9612746824505
48,-79.206,171.42820904666587,516.5717909533341
49,-76.195,161.83408308382855,522.1659169161715
50,-73.185,150.25630712026737,527.7436928797326
51,-70.177,154.69484090244305,533.305159097557
52,-67.169,153.1496442320465,538.8503557679535
53,-64.163,134.62067696599922,544.3793230340008
54,-61.158,135.10789901645308,549.8921009835469
55,-58.154,132.6112703507904,555.3887296492096
56,-55.151,124.13075099162415,560.8692490083758
57,-52.150,117.66630101679755,566.3336989832025
58,-49.149,105.21788055938453,571.7821194406155
59,-46.150,102.78544980768925,577.2145501923108
60,-43.152,101.36896900524664,582.6310309947534
61,-40.155,109.96839845082184,588.0316015491782
62,-37.159,94.58369849841051,593.4163015015895
63,-34.165,85.214829557239,598.785170442761
64,-31.171,98.86175209176383,604.1382479082362
65,-28.179,77.5244266216722,609.4755733783278
66,-25.188,87.20281372188174,614.7971862781183
67,-22.198,93.89687402254037,620.1031259774596
68,-19.210,65.60656820902682,625.3934317909732
69,-16.222,44.3318570219501,630.6681429780499
70,-13.236,46.072701257149674,635.9272987428503
71,-10.251,43.82906176569554,641.1709382343045
72,-7.267,54.600899453888246,646.3991005461118
73,-4.284,36.38817528325853,651.6118247167415
74,-1.302,27.190850270568035,656.809149729432
75,1.678,20.008885487808357,661.9911145121916
76,4.658,25.842242062202104,667.1577579377979
77,7.636,7.690881176202083,672.3091188237979
78,10.613,17.554764067491533,677.4452359325085
79,13.589,7.43385202898412,682.5661479710159
80,16.563,9.328106408824283,687.6718935911757
81,19.537,0.0,692.7625113896133
82,22.509,0.0,697.8380399077234
83,25.480,0.0,702.8985176316705
84,28.451,0.0,707.9439829923883
85,31.419,0.0,712.9744743655801
86,34.387,0.0,717.9900300717189
87,37.354,0.0,722.9906883760473
88,40.319,0.0,727.976487488577
89,43.283,0.0,732.9474655640895
90,46.246,0.0,737.9036607021358
91,49.208,0.0,742.8451109470366
92,52.169,0.0,747.7718542878816
93,55.129,0.0,752.6839286585307
94,58.087,0.0,757.581371937613
95,61.045,0.0,762.4642219485269
96,64.001,0.0,767.3325164594407
97,66.956,0.0,772.1862931832922
98,69.910,50.97441022221176,777.0255897777882
99,72.862,140.14955615459417,781.8504438454058
100,75.814,224.3391070666088,786.6608929333912
101,78.764,311.54302546624,791.45697453376
102,81.714,318.7612739167023,796.2387260832977
103,84.662,366.993815036441,801.006184963559
104,87.609,408.24061149913155,805.7593885008685
105,90.554,371.5016260336803,810.4983739663197
106,93.499,393.77682142422384,815.2231785757762
107,96.443,400.06616051012907,819.9338394898709
108,99.385,374.3696061859937,824.6303938140063
109,102.326,370.6871214016455,829.3128785983545
110,105.266,385.0186691621433,833.9813308378567
111,108.205,411.36421252777586,838.6357874722241
112,111.143,378.7237146140625,843.2762853859375
113,114.080,376.0971385917535,847.9028614082465
114,117.015,410.48444768682896,852.515552313171
115,119.950,353.88560518049974,857.1143948195003
116,122.883,381.30057440920746,861.6994255907925
117,125.815,383.7293187646236,866.2706812353764
118,128.746,393.17180169365054,870.8281983063495
119,131.676,368.6279866984212,875.3720133015788
120,134.604,383.09783733629854,879.9021626637015
121,137.532,384.5813172198766,884.4186827801234
122,140.458,349.07839001697937,888.9216099830206
123,143.383,370.58901945066157,893.4109805493384
124,146.307,388.1131692992084,897.8868307007916
125,149.230,330.6508033961352,902.3491966038648
126,152.152,329.2018856301884,906.7981143698116
127,155.073,365.7663799453443,911.2336200546557
128,157.992,349.34425034081005,915.65574965919
129,160.911,358.9354608710232,920.0645391289768
130,163.828,325.53997564565157,924.4600243543484
131,166.744,363.15775882959383,928.8422411704062
132,169.659,335.78877464297875,933.2112253570212
133,172.573,335.43298736116583,937.5670126388342
134,175.486,293.09036131474477,941.9096386852552
135,178.397,341.7608608895363,946.2391391104637
136,181.308,322.444450526591,950.555549473409
137,184.217,314.14109472219013,954.8589052778099
138,187.126,318.8507580278456,959.1492419721544
139,190.033,344.57340505029936,963.4265949497006
140,192.939,329.30900045152475,967.6909995484752
141,195.843,341.0575089487244,971.9424910512756
142,198.747,310.8188953143323,976.1811046856677
143,201.650,348.59312437601227,980.4068756239877
144,204.551,325.3801610166594,984.6198389833406
145,207.451,306.1799701743985,988.8200298256015
146,210.351,306.99251684258513,993.0074831574149
147,213.249,282.81776606980554,997.1822339301945
148,216.146,325.6556829598761,1001.3443170401239
149,219.041,259.5062326718438,1005.4937673281562
150,221.936,280.3693804199862,1009.6306195800138
151,224.830,289.24509147381127,1013.7549085261887
152,227.722,296.1333311580572,1017.8666688419428
153,230.613,317.0340648526933,1021.9659351473067
154,233.504,338.94725799291837,1026.0527420070816
155,236.393,284.8728760691629,1030.1271239308371
156,239.281,318.81088462708703,1034.189115372913
157,242.167,295.7612492675812,1038.2387507324188
158,245.053,275.7239356467667,1042.2760643532333
159,247.938,288.69890947599583,1046.3010905240042
160,250.821,284.68613652185013,1050.3138634781499
161,253.704,292.68558260614304,1054.314417393857
162,256.585,290.6972136059171,1058.302786394083
163,259.465,296.72099545344645,1062.2790045465536
164,262.344,301.7568941362347,1066.2431058637653
165,265.222,261.80487569701654,1070.1951243029835
166,268.099,265.86490623375744,1074.1350937662426
167,270.974,265.93695189965274,1078.0630481003473
168,273.849,255.02097890312825,1081.9790210968717
169,276.722,228.11695350784066,1085.8830464921593
170,279.595,264.22484203267686,1089.7751579673231
171,282.466,236.3446108517544,1093.6553891482456
172,285.336,242.47622639442102,1097.523773605579
173,288.205,258.61965514525536,1101.3803448547446
174,291.073,244.77486364406604,1105.225136355934
175,293.940,243.94181848589233,1109.0581815141077
176,296.805,249.12048632100436,1112.8795136789956
177,299.670,284.3108338549023,1116.6891661450977
178,302.533,258.5128278483171,1120.487172151683
179,305.396,264.72643511720935,1124.2735648827907
180,308.257,237.95162253277113,1128.0483774672289
181,311.117,240.1883570214252,1131.8116429785748
182,313.976,224.43660556482337,1135.5633944351766
183,316.834,204.69633519984927,1139.3036648001507
184,319.691,212.96751301861627,1143.0324869813837
185,322.546,215.2501061684684,1146.7498938315316
186,325.401,208.544081851981,1150.455918148019
187,328.254,188.8494073269576,1154.1505926730424
188,331.107,235.1660499064351,1157.833950093565
189,333.958,163.493976958679,1161.506023041321
190,336.808,213.83315590718553,1165.1668440928145
191,339.657,219.1835542306817,1168.8164457693183
192,342.505,208.54513946312522,1172.4548605368748
193,345.352,213.9178791937038,1176.0821208062962
194,348.198,191.30174106683558,1179.6982589331644
195,351.042,203.69669278216998,1183.30330721783
196,353.886,181.10270209458554,1186.8972979054145
197,356.728,203.51973681419258,1190.4802631858074
198,359.570,186.94776480633118,1194.0522351936688
199,362.410,207.38675399157182,1197.6132460084282
200,365.249,202.83667234571612,1201.1633276542839
201,368.087,182.29748789979567,1204.7025121002043
202,370.924,164.76916874007247,1208.2308312599275
203,373.760,173.25168300803944,1211.7483169919606
204,376.595,201.74499890041943,1215.2550010995806
205,379.428,202.249084669166,1218.750915330834
206,382.261,207.7639086214631,1222.236091378537
207,385.092,162.28943911972556,1225.7105608802744
208,387.923,172.82564458159823,1229.1743554184018
209,390.752,192.37249347995657,1232.6275065200434
210,393.580,182.9299543429065,1236.0700456570935
211,396.408,190.4979957537846,1239.5020042462154
212,399.234,181.07658635115786,1242.9234136488421
213,402.058,148.66569482882323,1246.3343051711768
214,404.882,174.2652899358086,1249.7347100641914
215,407.705,140.8753404763729,1253.124659523627
216,410.527,175.49581531000422,1256.5041846899958
217,413.347,170.12668335142234,1259.8733166485777
218,416.167,195.76791357057664,1263.2320864294234
219,418.985,159.41947499264734,1266.5805250073527
220,421.803,182.08133669804556,1269.9186633019544
221,424.619,154.75346782241195,1273.246532177588
222,427.434,143.43583755661848,1276.5641624433815
223,430.248,147.12841514676757,1279.8715848532324
224,433.061,159.83116989419113,1283.1688301058089
225,435.873,176.544071155452,1286.455928844548
226,438.684,139.26708834234478,1289.7329116576552
227,441.493,145.00019092189314,1292.9998090781069
228,444.302,147.74334841635118,1296.2566515836488
229,447.109,149.49653040320436,1299.5034695967956
230,449.916,182.25970651516764,1302.7402934848324
231,452.721,140.03284644018686,1305.9671535598131
232,455.526,162.81591992143876,1309.1840800785612
233,458.329,136.6088967573305,1312.3911032426695
234,461.131,180.4117468014988,1315.5882531985012
235,463.932,117.22443996281163,1318.7755600371884
236,466.732,120.04694620536748,1321.9530537946325
237,469.531,125.87923554849476,1325.1207644515052
238,472.329,158.72127806675326,1328.2787219332467
239,475.126,180.57304388993225,1331.4269561100677
240,477.921,170.43450320305237,1334.5654967969476
241,480.716,137.30562624636377,1337.6943737536362
242,483.509,135.18638331534748,1340.8136166846525
243,486.302,106.07674476071588,1343.9232552392841
244,489.093,115.97668098841041,1347.0233190115896
245,491.883,124.88616245960384,1350.1138375403962
246,494.673,134.80515969069938,1353.1948403093006
247,497.461,133.73364325332977,1356.2663567466702
248,500.248,155.67158377436,1359.32841622564
249,503.034,111.61895193588407,1362.381048064116
250,505.819,152.57571847522695,1365.424281524773
251,508.603,171.54185418494353,1368.4581458150565
252,511.385,170.51732991282097,1371.482670087179
253,514.167,132.50211656187412,1374.4978834381259
254,516.948,109.49618509035099,1377.503814909649
255,519.727,150.4995065117282,1380.5004934882718
256,522.506,92.5120518947142,1383.4879481052858
257,525.283,103.53379236324645,1386.4662076367536
258,528.060,112.56469909649377,1389.4353009035062
259,530.835,110.60474332885588,1392.3952566711441
260,533.609,72.65389634996245,1395.3461036500375
261,536.382,117.71212950467316,1398.2878704953268
262,539.154,117.77941419307899,1401.220585806921
263,541.925,141.85572187050093,1404.144278129499
264,544.695,106.94102404749037,1407.0589759525096
265,547.464,116.03529228982961,1409.9647077101704
266,550.232,111.13849821853091,1412.861501781469
267,552.999,119.25061350983788,1415.7493864901621
268,555.765,72.37160989522363,1418.6283901047764
269,558.529,68.50145916139172,1421.4985408386083
270,561.293,135.64013315027705,1424.359866849723
271,564.055,87.78760375904403,1427.212396240956
272,566.817,88.94384294008887,1430.0561570599111
273,569.577,102.10882270103684,1432.8911772989632
274,572.337,124.28251510474456,1435.7174848952554
275,575.095,92.46489226929816,1438.5351077307018
276,577.852,109.65592636801603,1441.344073631984
277,580.608,78.8555896294447,1444.1444103705553
278,583.363,79.06385433736295,1446.936145662637
279,586.117,96.28069283077957,1449.7193071692204
280,588.870,102.50607750393374,1452.4939224960663
281,591.622,99.73998080629508,1455.260019193705
282,594.373,128.98237524256365,1458.0176247574364
283,597.123,102.23323337266993,1460.76676662733
284,599.872,137.49252781177483,1463.5074721882252
285,602.620,76.76023123027062,1466.2397687697294
286,605.366,91.0363163537786,1468.9636836462214
287,608.112,115.32075596315144,1471.6792440368486
288,610.856,102.61352289447268,1474.3864771055273
289,613.600,83.91459003905447,1477.0854099609455
290,616.342,60.223930343442134,1479.7760696565579
291,619.084,36.54151680940913,1482.4584831905909
292,621.824,107.86732249396073,1485.1326775060393
293,624.563,81.20132050933216,1487.7986794906678
294,627.302,99.54348402298956,1490.4565159770104
295,630.039,68.89378625762856,1493.1062137423714
296,632.775,54.252200491176154,1495.7477995088238
297,635.510,53.6187000567902,1498.3812999432098
298,638.244,74.99325834285764,1501.0067416571424
299,640.977,62.37584879299675,1503.6241512070033
300,643.709,49.76644490605668,1506.2335550939433
301,646.440,73.1650202361161,1508.834979763884
302,649.170,63.571548392485056,1511.428451607515
303,651.899,38.98600303970352,1514.0139969602965
304,654.626,54.408357897541464,1516.5916421024585
305,657.353,81.8385867410002,1519.1614132589998
306,660.079,47.27666340031192,1521.723336599688
307,662.803,67.72256176093742,1524.2774382390626
308,665.527,88.17625576357023,1526.8237442364298
309,668.250,44.637719404132895,1529.362280595867
310,670.971,104.10692673377844,1531.8930732662216
311,673.692,52.58385185889165,1534.4161481411084
312,676.411,66.0684689410864,1536.9315310589136
313,679.129,113.56075219720697,1539.439247802793
314,681.847,59.06067589932945,1541.9393241006705
315,684.563,58.56821437475901,1544.431785625241
316,687.278,57.08334200603258,1546.9166579939674
317,689.992,55.60603323091664,1549.3939667690834
318,692.706,69.13626254240762,1551.8637374575924
319,695.418,60.67400448873468,1554.3259955112653
320,698.129,77.21923367335467,1556.7807663266453
321,700.839,23.77192475495667,1559.2280752450433
322,703.548,51.33205244746023,1561.6679475525398
323,706.256,31.899591520013928,1564.100408479986
324,708.963,55.47451679699907,1566.525483203001
325,711.669,48.05680315802465,1568.9431968419754
326,714.374,0.0,1571.3535744620667
327,717.078,20.24335892679528,1573.7566410732047
328,719.780,31.847578369913208,1576.1524216300868
329,722.482,16.4590589678196,1578.5409410321804
330,725.183,51.07777587627652,1580.9222241237235
331,727.883,56.703704306277814,1583.2962956937222
332,730.581,40.33681952404777,1585.6631804759522
333,733.279,42.97709685104019,1588.0229031489598
334,735.976,35.62451166394021,1590.3754883360598
335,738.671,4.2790393946625045,1592.7209606053375
336,741.366,55.94065553035307,1595.059344469647
337,744.059,40.60933561338925,1597.3906643866108
338,746.752,0.0,1599.7149447586244
339,749.443,74.96779006715087,1602.0322099328491
340,752.134,18.657515798782242,1604.3424842012178
341,754.823,46.35420819956835,1606.6457918004317
342,757.512,24.05784308803686,1608.9421569119631
343,760.199,15.768396337947706,1611.2316036620523
344,762.885,0.4858438782898702,1613.5141561217101
345,765.571,51.210161693283226,1615.7898383067168
346,768.255,92.94132582237853,1618.0586741776215
347,770.938,52.67931236025697,1620.320687639743
348,773.621,18.424097456829713,1622.5759025431703
349,776.302,44.1756573172388,1624.8243426827612
350,778.982,36.933968201856715,1627.0660317981433
351,781.661,12.69900642628636,1629.3009935737136
352,784.339,72.47074836136017,1631.5292516386398
353,787.017,65.24917043314326,1633.7508295668567
354,789.693,38.034249122929396,1635.9657508770706
355,792.368,42.82596096724319,1638.1740390327568
356,795.042,26.62428255784016,1640.3757174421598
357,797.715,10.429190541705339,1642.5708094582947
358,800.387,45.240661621056006,1644.759338378944
359,803.058,37.058672553338056,1646.941327446662
360,805.728,12.883200151228266,1649.1167998487717
361,808.397,25.714221282635663,1651.2857787173643
362,811.065,44.551712870696974,1653.448287129303
363,813.732,37.39565189378163,1655.6043481062184
364,816.398,0.0,1657.7539846145123
365,819.063,48.10278043464541,1659.8972195653546
366,821.727,58.965924185314634,1662.0340758146854
367,824.389,22.83542383678605,1664.164576163214
368,827.051,19.711256643580327,1666.2887433564197
369,829.712,5.593399915448572,1668.4066000845514
370,832.372,0.0,1670.5181689826268
371,835.031,19.376527369566702,1672.6234726304333
372,837.689,1.2774664474709425,1674.722533552529
373,840.345,4.184625781760133,1676.8153742182399
374,843.001,25.09798295833798,1678.902017041662
375,845.656,8.017515618338166,1680.9824843816618
376,848.310,40.94320145812617,1683.0567985418738
377,850.962,0.0,1685.1249817707035
378,853.614,1.8129437386751306,1687.1870562613249
379,856.265,39.756955848318285,1689.2430441516817
380,858.915,0.0,1691.2929675244873
381,861.563,0.0,1693.3368484072248
382,864.211,8.625291227853722,1695.3747087721463
383,866.858,17.593429463725442,1697.4065705362746
384,869.503,0.0,1699.4324555614003
385,872.148,4.5476143459159175,1701.452385654084
386,874.792,14.533617434342432,1703.4663825656576
387,877.435,0.0,1705.47446799222
388,880.076,61.52333642535859,1707.4766635746414
389,882.717,25.527009101439035,1709.472990898561
390,885.357,57.536528505613205,1711.4634714943868
391,887.995,0.0,1713.4481268372974
392,890.633,64.57302165275996,1715.42697834724
393,893.269,38.59995261106769,1717.4000473889323
394,895.905,7.632644728138985,1719.367355271861
395,898.540,0.0,1721.328923250282
396,901.173,0.7152274767781819,1723.2847725232218
397,903.806,0.0,1725.2349242344749
398,906.438,32.82060052739325,1727.1793994726067
399,909.068,38.88178072904884,1729.1182192709512
400,911.698,29.948595392388142,1731.0514046076119
401,914.327,46.02102359453693,1732.978976405463
402,916.954,67.09904446785276,1734.9009555321472
403,919.581,30.182637199923192,1736.8173628000768
404,922.207,25.27178103356573,1738.7282189664343
405,924.831,1.3664552668296892,1740.6335447331703
406,927.455,8.466639252993446,1742.5333607470066
407,930.077,0.0,1744.4276875994328
408,932.699,51.68345417328965,1746.3165458267104
409,935.320,45.80004409013236,1748.1999559098676
410,937.939,51.92206172529495,1750.077938274705
411,940.558,28.049486708210225,1751.9505132917898
412,943.176,44.182298723539134,1753.8177012764609
413,945.793,26.320477511173976,1755.679522488826
414,948.408,34.46400286623748,1757.5359971337625
415,951.023,0.0,1759.3871453609167
416,953.637,0.0,1761.2329872647051
417,956.249,19.92645711568639,1763.0735428843136
418,958.861,14.091167796302216,1764.9088322036978
419,961.472,0.0,1766.7388751515819
420,964.082,6.436308398539495,1768.5636916014605
421,966.690,10.616698628401991,1770.383301371598
422,969.298,10.802275774972713,1772.1977242250273
423,971.905,20.993020130448258,1774.0069798695517
424,974.511,40.18891204225656,1775.8110879577434
425,977.115,0.0,1777.6100680869445
426,979.719,21.596060200733064,1779.403939799267
427,982.322,68.80727741840883,1781.1927225815912
428,984.924,9.023564134432036,1782.976435865568
429,987.525,37.24490097238231,1784.7550990276177
430,990.125,0.0,1786.5287313889294
431,992.723,7.702647784536566,1788.2973522154634
432,995.321,0.0,1790.0609807179471
433,997.918,31.18036394812043,1791.8196360518796
434,1000.514,17.426662682471488,1793.5733373175285
435,1003.109,20.677896440069617,1795.3221035599304
436,1005.703,0.0,1797.065953768893
437,1008.296,30.19509312100763,1798.8049068789924
438,1010.888,0.0,1800.5389817695736
439,1013.479,4.731802735246674,1802.2681972647533
440,1016.069,1.007427866584294,1803.9925721334157
441,1018.658,20.28787491078492,1805.712125089215
442,1021.246,17.57312520942469,1807.4268747905753
443,1023.833,18.863160159309246,1809.1368398406908
444,1026.419,0.0,1810.8420387875235
445,1029.004,19.457509876193853,1812.5424901238061
446,1031.589,29.76178771295872,1814.2382122870413
447,1034.172,3.070776340500288,1815.9292236594997
448,1036.754,18.38445743177681,1817.6155425682232
449,1039.335,0.0,1819.2971872850221
450,1041.915,0.0,1820.974176026477
451,1044.495,32.3534730460633,1822.6465269539367
452,1047.073,51.685741826478534,1824.3142581735215
453,1049.650,13.022612263881001,1825.977387736119
454,1052.227,0.0,1827.635933637388
455,1054.802,13.710086182243685,1829.2899138177563
456,1057.376,6.060653837578684,1830.9393461624213
457,1059.950,13.415751498650025,1832.58424850135
458,1062.522,32.77536139072208,1834.224638609278
459,1065.094,28.1394657942883,1835.8605342057117
460,1067.664,18.508047045073454,1837.4919529549265
461,1070.234,0.0,1839.1189124659672
462,1072.802,26.258569707351853,1840.7414302926481
463,1075.370,63.640476066446354,1842.3595239335536
464,1077.936,0.0,1843.9732108320372
465,1080.502,46.41749162377846,1845.5825083762215
466,1083.067,29.812566101000357,1847.1874338989996
467,1085.630,16.21199532196715,1848.7880046780328
468,1088.193,18.615762064246155,1850.3842379357538
469,1090.755,43.02384916063738,1851.9761508393626
470,1093.315,24.43623949916946,1853.5637605008305
471,1095.875,10.852916023101898,1855.147083976898
472,1098.434,6.273861730926001,1856.726138269074
473,1100.992,36.699059676361685,1858.3009403236383
474,1103.549,0.0,1859.8715070316393
475,1106.105,0.0,1861.4378552288954
476,1108.660,24.999998304005658,1863.0000016959943
477,1111.214,61.442036841705885,1864.5579631582941
478,1113.767,37.88824371407918,1866.1117562859208
479,1116.319,34.338602306228495,1867.6613976937715
480,1118.870,26.793096058489027,1869.206903941511
481,1121.420,28.25170846642459,1870.7482915335754
482,1123.970,5.71442308082942,1872.2855769191706
483,1126.518,35.181223507730465,1873.8187764922695
484,1129.065,0.0,1875.3479065916167
485,1131.611,11.127016499274305,1876.8729835007257
486,1134.157,21.6059765521195,1878.3940234478805
487,1136.701,36.088957393867986,1879.911042606132
488,1139.245,37.57594290669613,1881.4240570933039
489,1141.787,16.066917028012995,1882.933082971987
490,1144.329,30.561863750457633,1884.4381362495424
491,1146.869,52.06076712189861,1885.9392328781014
492,1149.409,33.56361124543673,1887.4363887545633
493,1151.947,18.070380279401434,1888.9296197205986
494,1154.485,80.58105843735348,1890.4189415626465
495,1157.022,0.0,1891.9043700119155
496,1159.557,27.61407925561616,1893.3859207443838
497,1162.092,27.13639061920003,1894.8636093808
498,1164.626,34.6625485133186,1896.3374514866814
499,1167.159,40.19253742768615,1897.8074625723139
500,1169.691,62.726341907246024,1899.273658092754
501,1172.222,49.26394655217109,1900.736053447829
502,1174.752,21.80533601786692,1902.194663982133
503,1177.281,32.350495014968146,1903.6495049850319
504,1179.809,38.89940830934029,1905.1005916906597
505,1182.336,51.452060722079295,1906.5479392779207
506,1184.863,5.008437129512004,1907.991562870488
507,1187.388,37.56852246319431,1909.4314775368057
508,1189.912,15.132301709914373,1910.8676982900856
509,1192.436,14.699759911690307,1912.3002400883097
510,1194.958,49.27088216576976,1913.7291178342302
511,1197.479,60.84565362463172,1915.1543463753683
512,1200.000,48.4240594959856,1916.5759405040144
513,1202.520,31.006085042771247,1917.9939149572288
514,1205.038,74.59171558315802,1919.408284416842
515,1207.556,78.18093649054799,1920.819063509452
516,1210.073,28.77373319357139,1922.2262668064286
517,1212.588,60.37009117608977,1923.6299088239102
518,1215.103,26.969995977196504,1925.0300040228035
519,1217.617,45.57343319121219,1926.4265668087878
520,1220.130,60.1803884676915,1927.8196115323085
521,1222.642,68.79084751141727,1929.2091524885827
522,1225.153,29.40479608240412,1930.5952039175959
523,1227.663,55.02221999589574,1931.9777800041043
524,1230.172,32.64310512236716,1933.3568948776328
525,1232.680,8.267437387525206,1934.7325626124748
526,1235.188,74.89520277230349,1936.1047972276965
527,1237.694,4.526387312870611,1937.4736126871294
528,1240.199,62.16097710062195,1938.839022899378
529,1242.704,72.7989582821856,1940.2010417178144
530,1245.207,53.44031705941916,1941.5596829405808
531,1247.710,94.08503968941068,1942.9149603105893
532,1250.212,34.733112484479534,1944.2668875155205
533,1252.712,50.384521812173716,1945.6154781878263
534,1255.212,57.03925409527437,1946.9607459047256
535,1257.711,37.69729581179172,1948.3027041882083
536,1260.209,48.35863349496458,1949.6413665050354
537,1262.706,34.02325373326585,1950.9767462667342
538,1265.201,45.69114317039703,1952.308856829603
539,1267.697,61.3622885052896,1953.6377114947104
540,1270.191,20.036676492105926,1954.963323507894
541,1272.684,37.71429394023926,1956.2857060597607
542,1275.176,48.395127714314185,1957.6048722856858
543,1277.667,4.079164734182996,1958.920835265817
544,1280.158,41.766391974931594,1960.2336080250684
545,1282.647,15.456796466873584,1961.5432035331264
546,1285.136,3.1503652955552752,1962.8496347044447
547,1287.623,32.84708560175204,1964.152914398248
548,1290.110,81.54694458147105,1965.453055418529
549,1292.595,45.24992948594854,1966.7500705140515
550,1295.080,27.95602762165163,1968.0439723783484
551,1297.564,68.66522635027832,1969.3347736497217
552,1300.047,28.37751308875704,1970.622486911243
553,1302.529,38.09287530924621,1971.9071246907538
554,1305.010,16.811300539135573,1973.1886994608644
555,1307.490,52.53277636104394,1974.467223638956
556,1309.969,67.25729041282193,1975.742709587178
557,1312.447,41.98483038755057,1977.0151696124494
558,1314.925,37.71538403354043,1978.2846159664596
559,1317.401,16.448939154333402,1979.5510608456666
560,1319.876,35.18548360870136,1980.8145163912986
561,1322.351,91.92500531064661,1982.0749946893534
562,1324.824,70.66749222940234,1983.3325077705977
563,1327.297,24.41293238943217,1984.5870676105678
564,1329.769,127.1613138704306,1985.8386861295694
565,1332.240,67.91262480732075,1987.0873751926792
566,1334.709,72.66685339025798,1988.333146609742
567,1337.178,65.42398786462809,1989.576012135372
568,1339.646,40.18401653104729,1990.8159834689527
569,1342.113,37.94692774536088,1992.0530722546391
570,1344.580,42.71270991864594,1993.287290081354
571,1347.045,42.48135151720999,1994.51864848279
572,1349.509,44.252841062590505,1995.7471589374095
573,1351.973,80.02716713155633,1996.9728328684437
574,1354.435,35.80431835610534,1998.1956816438947
575,1356.897,17.584283423467696,1999.4157165765323
576,1359.357,49.36705107610169,2000.6329489238983
577,1361.817,33.15261011169832,2001.8473898883017
578,1364.276,8.940949383178122,2003.0590506168219
579,1366.734,79.7320577986925,2004.2679422013075
580,1369.190,86.52592432162237,2005.4740756783776
581,1371.646,33.32253797057956,2006.6774620294204
582,1374.102,29.12188781940722,2007.8781121805928
583,1376.556,56.92396299717848,2009.0760370028215
584,1379.009,61.72875268819598,2010.271247311804
585,1381.461,62.53624613199372,2011.4637538680063
586,1383.913,109.34643262333702,2012.653567376663
587,1386.363,50.15930151221983,2013.8406984877802
588,1388.813,87.97484220386787,2015.0251577961321
589,1391.262,79.7930441587364,2016.2069558412636
590,1393.709,85.61389689251291,2017.386103107487
591,1396.156,61.43738997611308,2018.562610023887
592,1398.602,87.26351303568435,2019.7364869643156
593,1401.047,62.09225575260507,2020.907744247395
594,1403.491,88.92360786348263,2022.0763921365174
595,1405.934,64.75755916015578,2023.2424408398442
596,1408.377,62.594099489694145,2024.4059005103059
597,1410.818,57.433218754396876,2025.5667812456031
598,1413.258,97.27490691179446,2026.7250930882055
599,1415.698,71.1191539746469,2027.880846025353
600,1418.136,90.96595001094602,2029.034049989054
601,1420.574,37.815285143913115,2030.1847148560869
602,1423.011,79.6671495519995,2031.3328504480005
603,1425.447,22.52153346888781,2032.4784665311122
604,1427.882,87.37842718349157,2033.6215728165084
605,1430.316,37.23782103995427,2034.7621789600457
606,1432.749,80.09970543764848,2035.9002945623515
607,1435.181,45.96407083118038,2037.0359291688196
608,1437.612,44.83090773038339,2038.1690922696166
609,1440.043,98.70020670032363,2039.2997932996764
610,1442.472,44.571958361295856,2040.4280416387041
611,1444.901,62.4461533888275,2041.5538466111725
612,1447.329,62.322782513675065,2042.677217486325
613,1449.755,84.20183652182504,2043.798163478175
614,1452.181,22.08330625449571,2044.9166937455043
615,1454.606,65.96718260813623,2046.0328173918638
616,1457.030,69.85345653442255,2047.1465434655775
617,1459.453,61.74211904026561,2048.2578809597344
618,1461.876,94.63316118780494,2049.366838812195
619,1464.297,63.526574094410535,2050.4734259055895
620,1466.717,56.42234893268278,2051.577651067317
621,1469.137,43.32047693045206,2052.679523069548
622,1471.556,29.220949370781,2053.779050629219
623,1473.973,4.123757591960839,2054.876242408039
624,1476.390,28.0288929875137,2055.9711070124863
625,1478.806,70.9363470061935,2057.0636529938065
626,1481.221,32.84611115198322,2058.153888848017
627,1483.635,62.758176984095826,2059.241823015904
628,1486.048,55.67253611697652,2060.3274638830235
629,1488.461,52.58918022030002,2061.4108197797
630,1490.872,65.50810101897105,2062.491898981029
631,1493.283,49.42929029312654,2063.5707097068735
632,1495.692,73.35273987813207,2064.647260121868
633,1498.101,51.278441664583625,2065.7215583354164
634,1500.509,44.20638759830899,2066.793612401691
635,1502.916,111.13656968036594,2067.863430319634
636,1505.322,51.06897996704265,2068.9310200329573
637,1507.727,27.0036105698573,2069.9963894301427
638,1510.131,25.940453655559395,2071.0595463444406
639,1512.534,23.879501446128415,2072.1204985538716
640,1514.937,64.82074621877382,2073.179253781226
641,1517.338,41.76418030593686,2074.235819694063
642,1519.739,78.70979609528831,2075.2902039047117
643,1522.139,59.65758602972892,2076.342413970271
644,1524.538,101.60754260739122,2077.392457392609
645,1526.936,135.55965838163775,2078.4403416183623
646,1529.333,67.51392596106098,2079.486074038939
647,1531.729,38.47033800948475,2080.5296619905153
648,1534.124,69.42888724596241,2081.5711127540376
649,1536.519,61.38956644477821,2082.610433555222
650,1538.912,70.35236843544726,2083.6476315645527
651,1541.305,75.31728610271466,2084.6827138972853
652,1543.696,42.28431238655594,2085.715687613444
653,1546.087,84.25344028217751,2086.7465597178225
654,1548.477,75.22466284001621,2087.775337159984
655,1550.866,53.197973165738404,2088.8020268342616
656,1553.254,66.1733644202427,2089.8266355797573
657,1555.642,67.15082981965634,2090.8491701803437
658,1558.028,60.13036263533877,2091.8696373646612
659,1560.413,73.11195619387809,2092.888043806122
660,1562.798,47.09560387709416,2093.904396122906
661,1565.182,69.08129912203776,2094.9187008779622
662,1567.564,98.0690354209878,2095.930964579012
663,1569.946,51.058806321455904,2096.941193678544
664,1572.327,117.05060542618412,2097.949394573816
665,1574.708,70.04442639314448,2098.9555736068555
666,1577.087,61.04026293553761,2099.9597370644624
667,1579.465,41.03810882179778,2100.961891178202
668,1581.843,6.03795787558829,2101.9620421244117
669,1584.219,107.03980397580244,2102.9601960241976
670,1586.595,50.043641056563956,2103.956358943436
671,1588.970,11.049463107228803,2104.950536892771
672,1591.344,67.05726417238157,2105.9427358276184
673,1593.717,50.06703835183771,2106.9329616481623
674,1596.089,72.0787798006445,2107.9212201993555
675,1598.460,73.09248272907644,2108.9075172709236
676,1600.831,87.10814140264301,2109.891858597357
677,1603.200,44.12575014208005,2110.87424985792
678,1605.569,43.14530332335653,2111.8546966766435
679,1607.937,39.166795377670496,2112.8332046223295
680,1610.304,65.19022079145088,2113.809779208549
681,1612.670,61.21557410635796,2114.784425893642
682,1615.035,65.24284991928107,2115.757150080719
683,1617.399,43.27204288234043,2116.7279571176596
684,1619.763,65.30314770288714,2117.696852297113
685,1622.125,46.33615914350321,2118.663840856497
686,1624.487,69.37107202199923,2119.628927978001
687,1626.848,47.40788121141895,2120.592118788581
688,1629.207,25.446581640033855,2121.553418359966
689,1631.566,29.487168291348553,2122.5128317086514
690,1633.925,44.52963620409537,2123.4703637959046
691,1636.282,61.57398047223933,2124.4260195277607
692,1638.638,113.62019624497543,2125.3798037550246
693,1640.994,38.66827872672775,2126.3317212732723
694,1643.348,75.71822317715305,2127.281776822847
695,1645.702,91.77002491113717,2128.229975088863
696,1648.055,60.82367929879592,2129.176320701204
697,1650.407,58.879181765477824,2130.120818234522
698,1652.758,82.93652779175864,2131.0634722082414
699,1655.108,100.99571291344773,2132.0042870865523
700,1657.458,82.05673272158356,2132.9432672784164
701,1659.806,72.11958286243453,2133.8804171375655
702,1662.154,101.18425903749949,2134.8157409625005
703,1664.501,14.250757003509989,2135.74924299649
704,1666.846,79.31907257242528,2136.6809274275747
705,1669.191,49.389201611436874,2137.610798388563
706,1671.536,90.46114004296487,2138.538859957035
707,1673.879,93.534883844663,2139.465116155337
708,1676.221,43.61042904941223,2140.3895709505878
709,1678.563,56.687771745326245,2141.3122282546738
710,1680.903,49.766908075746414,2142.2330919242536
711,1683.243,80.84783423924819,2143.152165760752
712,1685.582,114.93054648963562,2144.0694535103644
713,1687.920,76.01504113594274,2144.9849588640573
714,1690.258,68.10131454243492,2145.898685457565
715,1692.594,66.18936312860751,2146.8106368713925
716,1694.929,87.27918336918765,2147.7208166308124
717,1697.264,89.37077179413063,2148.6292282058694
718,1699.598,68.46412498862401,2149.535875011376
719,1701.931,41.55923959308575,2150.4407604069143
720,1704.263,124.6561123031629,2151.343887696837
721,1706.594,63.75473986973475,2152.2452601302653
722,1708.924,53.855119098909654,2153.1448809010903
723,1711.253,97.95724685202731,2154.0427531479727
724,1713.582,90.06112004565739,2154.9388799543426
725,1715.910,106.16673565159999,2155.8332643484
726,1718.236,70.27409069688701,2156.725909303113
727,1720.562,59.38318226377987,2157.61681773622
728,1722.888,105.49400748976814,2158.505992510232
729,1725.212,24.60656356757636,2159.3934364324236
730,1727.535,96.72084774515588,2160.279152254844
731,1729.858,99.83685732569074,2161.1631426743093
732,1732.179,112.95458966759452,2162.0454103324055
733,1734.500,65.07404218451074,2162.9259578154893
734,1736.820,60.19521234531476,2163.8047876546852
735,1739.139,80.31809767411096,2164.681902325889
736,1741.457,81.442695750236,2165.557304249764
737,1743.775,32.56900420825468,2166.4309957917453
738,1746.091,58.69702073796452,2167.3029792620355
739,1748.407,106.82674308439209,2168.173256915608
740,1750.722,70.9581690477944,2169.0418309522056
741,1753.036,129.0912964836607,2169.9087035163393
742,1755.349,86.2261233027084,2170.7738766972916
743,1757.661,49.362647470885804,2171.637352529114
744,1759.972,131.50086700937436,2172.4991329906256
745,1762.283,67.64077999458186,2173.359220005418
746,1764.592,92.78238455814926,2174.2176154418507
747,1766.901,68.92567888694794,2175.074321113052
748,1769.209,70.07066122307879,2175.929338776921
749,1771.516,27.2173298638736,2176.7826701361264
750,1773.823,102.36568316189414,2177.634316838106
751,1776.128,82.5157195249335,2178.4842804750665
752,1778.432,86.66743741601522,2179.332562583985
753,1780.736,70.82083535339189,2180.179164646608
754,1783.039,16.975911910548803,2181.024088089451
755,1785.341,47.132665716200336,2181.8673342837997
756,1787.642,43.291095454290826,2182.708904545709
757,1789.942,19.451199863995953,2183.548800136004
758,1792.242,6.612977739722282,2184.3870222602777
759,1794.540,24.77642793110681,2185.223572068893
760,1796.838,83.94154934301469,2186.0584506569853
761,1799.135,55.108340935544675,2186.8916590644553
762,1801.431,26.276801724025063,2187.723198275975
763,1803.726,31.446930779012746,2188.5530692209873
764,1806.020,29.618727226298233,2189.3812727737018
765,1808.314,6.792190246899736,2190.2078097531003
766,1810.607,2.9673190770681686,2191.032680922932
767,1812.898,0.0,2191.8558869917183
768,1815.189,0.0,2192.6774286127466
769,1817.479,31.502693615923818,2193.497306384076
770,1819.769,35.684479151464075,2194.315520848536
771,1822.057,0.0,2195.1320724937236
772,1824.345,0.0,2195.9469617520062
773,1826.631,0.0,2196.76018900052
774,1828.917,0.0,2197.5717545611724
775,1831.202,19.61834129936142,2198.3816587006386
776,1833.486,47.81009836963494,2199.189901630365
777,1835.770,19.003516493434745,2199.9964835065653
778,1838.052,14.198595569774625,2200.8014044302254
779,1840.334,23.395335552901997,2201.604664447098
780,1842.615,58.59373645229289,2202.406263547707
781,1844.895,2.7937983326542053,2203.206201667346
782,1847.174,0.0,2204.0044786860763
783,1849.452,55.19890557126746,2204.8010944287325
784,1851.730,0.0,2205.596048664913
785,1854.006,54.610658891007915,2206.389341108992
786,1856.282,46.81902857989144,2207.1809714201086
787,1858.557,36.02906079782724,2207.9709392021728
788,1860.831,0.0,2208.7592440038648
789,1863.104,64.45411468136581,2209.545885318634
790,1865.377,34.66913741530061,2210.3308625846994
791,1867.648,25.88582481495132,2211.1141751850487
792,1869.919,28.104177552560486,2211.8958224474395
793,1872.189,62.32419635559927,2212.6758036444007
794,1874.458,64.54588200677199,2213.454117993228
795,1876.726,68.76923534401249,2214.2307646559875
796,1878.993,77.99425726048366,2215.0057427395163
797,1881.260,40.22094870458113,2215.779051295419
798,1883.526,23.449310679929113,2216.550689320071
799,1885.791,74.67934424538362,2217.3206557546164
800,1888.055,42.91105051503109,2218.088949484969
801,1890.318,56.14443065818614,2218.855569341814
802,1892.580,0.0,2219.620514100602
803,1894.842,31.616217518441772,2220.3837824815582
804,1897.103,88.85462685032644,2221.1453731496736
805,1899.362,69.09471528529048,2221.9052847147095
806,1901.621,74.3364842688029,2222.663515731197
807,1903.880,72.57993530156227,2223.4200646984377
808,1906.137,122.82506993949755,2224.1749300605024
809,1908.394,91.07188979377133,2224.9281102062287
810,1910.649,99.32039653077209,2225.679603469228
811,1912.904,114.5705918721228,2226.429408127877
812,1915.158,104.82247759467373,2227.1775224053263
813,1917.411,98.07605553050826,2227.9239444694917
814,1919.664,26.33132756693749,2228.6686724330625
815,1921.915,68.58829564650523,2229.4117043534948
816,1924.166,41.846961766984805,2230.153038233015
817,1926.416,138.10732798138042,2230.8926720186196
818,1928.665,114.36939639792763,2231.6306036020724
819,1930.913,75.63316918008923,2232.366830819911
820,1933.161,75.89864854656253,2233.1013514534375
821,1935.407,38.1658367712721,2233.834163228728
822,1937.653,83.43473618337475,2234.5652638166252
823,1939.898,95.70534916725819,2235.294650832742
824,1942.142,54.97767816253872,2236.0223218374613
825,1944.386,16.251725664064907,2236.748274335935
826,1946.628,30.527494221913912,2237.472505778086
827,1948.870,81.80498644139607,2238.195013558604
828,1951.111,84.0842049830485,2238.9157950169515
829,1953.351,95.36515256264329,2239.6348474373567
830,1955.590,70.64783195118025,2240.3521680488197
831,1957.828,60.9322459748887,2241.0677540251113
832,1960.066,46.21839751523021,2241.78160248477
833,1962.302,86.5062895088954,2242.4937104911046
834,1964.538,27.795924947809453,2243.2040750521905
835,1966.773,1.0873068791224796,2243.9126931208775
836,1969.007,55.38043840521823,2244.6195615947818
837,1971.241,96.67532268370951,2245.3246773162905
838,1973.473,81.97196292744184,2246.028037072558
839,1975.705,57.27036240448797,2246.729637595512
840,1977.936,50.57052443815337,2247.4294755618466
841,1980.166,62.872452406973935,2248.127547593026
842,1982.396,5.176149744715531,2248.8238502552845
843,1984.624,63.48161994037355,2249.5183800596265
844,1986.852,52.78886653817517,2250.211133461825
845,1989.079,9.097893137579376,2250.9021068624206
846,1991.305,30.408703393272845,2251.591296606727
847,1993.530,55.72130101517223,2252.2786989848278
848,1995.754,49.0356897684278,2252.964310231572
849,1997.978,42.351873473419346,2253.6481265265807
850,2000.201,53.669856005755264,2254.3301439942447
851,2002.423,60.989641296276204,2255.010358703724
852,2004.644,133.3112333310537,2255.6887666689463
853,2006.864,120.63463615138699,2256.365363848613
854,2009.084,46.95985385380936,2257.0401461461906
855,2011.302,83.28689059008093,2257.713109409919
856,2013.520,59.615750567195846,2258.384249432804
857,2015.737,42.94643804737825,2259.0535619526217
858,2017.954,93.27895734807726,2259.7210426519227
859,2020.169,38.613312841982406,2260.3866871580176
860,2022.384,45.94950895700458,2261.0504910429954
861,2024.597,98.28755017628919,2261.712449823711
862,2026.810,50.62744103821069,2262.3725589617893
863,2029.023,61.969186136378084,2263.030813863622
864,2031.234,47.312790119624424,2263.6872098803756
865,2033.445,113.6582576920182,2264.341742307982
866,2035.654,105.0055936128565,2264.9944063871435
867,2037.863,58.35480269666732,2265.6451973033327
868,2040.071,86.7058898132068,2266.294110186793
869,2042.279,105.0588598874665,2266.9411401125335
870,2044.485,89.41371789966388,2267.586282100336
871,2046.691,95.77046888524956,2268.2295311147504
872,2048.896,89.12911793490366,2268.8708820650963
873,2051.100,86.48967019453448,2269.5103298054655
874,2053.303,125.8521308652862,2270.147869134714
875,2055.506,114.21650520352841,2270.7834947964716
876,2057.707,69.58279852086434,2271.4172014791357
877,2059.908,80.95101618412536,2272.0489838158746
878,2062.108,52.32116361537601,2272.678836384624
879,2064.308,55.69324629190805,2273.306753708092
880,2066.506,53.06726974624553,2273.9327302537545
881,2068.704,50.44323956614335,2274.5567604338567
882,2070.900,101.82116139458776,2275.1788386054122
883,2073.096,85.20104092979136,2275.7989590702086
884,2075.292,78.58288392520217,2276.417116074798
885,2077.486,57.966696189494996,2277.033303810505
886,2079.680,89.35248358657782,2277.647516413422
887,2081.873,75.74025203558631,2278.2597479644137
888,2084.065,111.13000751089066,2278.8699924891093
889,2086.256,96.52175604208742,2279.4782439579126
890,2088.446,93.91550371400399,2280.084496285996
891,2090.636,44.311256666701865,2280.688743333298
892,2092.825,47.709021095469325,2281.2909789045307
893,2095.013,64.1088032508269,2281.891196749173
894,2097.200,83.51060943852553,2282.4893905614745
895,2099.386,73.91444601954618,2283.085553980454
896,2101.572,60.32031941009973,2283.6796805899003
897,2103.756,89.72823608162753,2284.2717639183725
898,2105.940,0.0,2284.8617974391964
899,2108.124,52.550225429530656,2285.4497745704693
900,2110.306,77.96431132494126,2286.0356886750587
901,2112.488,6.380466939399412,2286.6195330606006
902,2114.668,67.79869902050041,2287.2013009794996
903,2116.848,64.21901437106862,2287.7809856289314
904,2119.028,49.641419849157955,2288.358580150842
905,2121.206,50.06592236805636,2288.9340776319436
906,2123.384,98.49252889627905,2289.507471103721
907,2125.561,82.92124645757258,2290.0787535424274
908,2127.737,7.352082130914823,2290.647917869085
909,2129.912,82.7850430505132,2291.214956949487
910,2132.086,23.22013640580508,2291.779863594195
911,2134.260,85.65736944145965,2292.3426305585403
912,2136.433,56.09674945737652,2292.9032505426235
913,2138.605,0.5382838086848096,2293.461716191315
914,2140.776,78.98197990574454,2294.0180200942555
915,2142.946,0.0,2294.5721547858534
916,2145.116,77.87588725471096,2295.124112745289
917,2147.285,53.32611360349074,2295.6738863965093
918,2149.453,52.77853189176676,2296.2214681082332
919,2151.620,50.23314980605119,2296.766850193949
920,2153.787,65.68997508808798,2297.310024911912
921,2155.952,59.14901553485015,2297.85098446515
922,2158.117,32.61027899854025,2298.3897210014597
923,2160.281,0.0,2298.926226613406
924,2162.445,32.539506661677024,2299.460493338323
925,2164.607,90.0074868416832,2299.992513158317
926,2166.769,0.0,2300.5222780002623
927,2168.930,54.95022026419747,2301.0497797358025
928,2171.090,0.0,2301.5750101813505
929,2173.250,51.902038901911055,2302.097961098089
930,2175.408,1.3813758080295884,2302.6186241919704
931,2177.566,26.86300888628284,2303.136991113717
932,2179.723,61.34694654118039,2303.6530534588196
933,2181.879,107.83319723245995,2304.16680276754
934,2184.035,40.32176947509197,2304.678230524908
935,2186.189,49.81267183927639,2305.1873281607236
936,2188.343,63.30591295044269,2305.6940870495573
937,2190.496,49.80150148925395,2306.198498510746
938,2192.649,43.299446191599145,2306.700553808401
939,2194.800,66.79975584860222,2307.200244151398
940,2196.951,77.30243930661481,2307.697560693385
941,2199.101,62.80750546721856,2308.1924945327814
942,2201.250,0.0,2308.6850367127704
943,2203.398,79.82482177868951,2309.1751782213105
944,2205.546,58.33709000887302,2309.662909991127
945,2207.693,17.85177710028438,2310.1482228997156
946,2209.839,77.36889223066146,2310.6311077693385
947,2211.984,0.0,2311.111555367034
948,2214.128,3.4104435953968277,2311.589556404603
949,2216.272,18.93489846138027,2312.0651015386197
950,2218.415,52.46181862957383,2312.538181370426
951,2220.557,80.99121355386251,2313.0087864461375
952,2222.698,62.52309274336858,2313.4769072566314
953,2224.839,107.057465762437,2313.942534237563
954,2226.979,47.59434223064818,2314.405657769352
955,2229.118,27.13373182281248,2314.8662681771875
956,2231.256,38.675644268968426,2315.3243557310316
957,2233.393,97.22008935438816,2315.779910645612
958,2235.530,46.76707691956926,2316.2329230804307
959,2237.666,33.31661686024745,2316.6833831397526
960,2239.801,95.86871912738206,2317.131280872618
961,2241.935,8.423393727166058,2317.576606272834
962,2244.069,41.9806507210219,2318.019349278978
963,2246.201,64.54050022560295,2318.459499774397
964,2248.333,37.10295241279391,2318.897047587206
965,2250.465,59.668017509708534,2319.3319824902915
966,2252.595,67.23570579869056,2319.7642942013094
967,2254.725,14.806027617315976,2320.193972382684
968,2256.854,120.3789933583912,2320.621006641609
969,2258.982,99.9546134699508,2321.045386530049
970,2261.109,88.53289845526251,2321.4671015447375
971,2263.236,32.11385887282495,2321.886141127175
972,2265.361,50.697505336362156,2322.302494663638
973,2267.486,93.28384851483315,2322.716151485167
974,2269.611,58.8728991324283,2323.1271008675717
975,2271.734,60.46466796856612,2323.535332031434
976,2273.857,72.0591658578951,2323.940834142105
977,2275.979,88.65640369029552,2324.3435963097045
978,2278.100,0.0,2324.743607589122
979,2280.220,53.85914301998491,2325.140856980015
980,2282.340,27.464666573184786,2325.535333426815
981,2284.459,60.07297418128019,2325.92702581872
982,2286.577,68.68407701030537,2326.3159229896946
983,2288.694,55.297986281520934,2326.702013718479
984,2290.810,0.0,2327.0852867285807
985,2292.926,43.53426931172862,2327.4657306882714
986,2295.041,19.15666578939954,2327.8433342106005
987,2297.155,32.781914146617964,2328.218085853382
988,2299.269,49.410025880798,2328.589974119202
989,2301.381,33.041012544586465,2328.9589874554135
990,2303.493,68.67488574586014,2329.32511425414
991,2305.604,40.311657147722144,2329.688342852278
992,2307.715,62.951338468512404,2330.0486615314876
993,2309.824,61.5939414817999,2330.4060585182
994,2311.933,65.23947801637905,2330.760521983621
995,2314.041,52.887959956280156,2331.11204004372
996,2316.149,106.53939924076349,2331.4606007592365
997,2318.255,23.193807864316568,2331.8061921356834
998,2320.361,24.85119787665826,2332.1488021233417
999,2322.466,49.5115813827415,2332.4884186172585
1000,2324.570,84.1749705427469,2332.825029457253
1001,2326.674,39.84137757208555,2333.1586224279145
1002,2328.776,65.51081474139619,2333.489185258604
1003,2330.878,43.18329437655575,2333.8167056234442
1004,2332.979,95.85882885866476,2334.1411711413352
1005,2335.080,41.537430624056014,2334.462569375944
1006,2337.179,39.21911216429362,2334.7808878357064
1007,2339.278,70.90388602617259,2335.0961139738274
1008,2341.376,94.5917648117179,2335.408235188282
1009,2343.474,73.28276117818268,2335.7172388218173
1010,2345.570,38.97688783805279,2336.023112161947
1011,2347.666,33.67415755904722,2336.325842440953
1012,2349.761,64.37458316410857,2336.6254168358914
1013,2351.856,64.07817753141671,2336.9218224685833
1014,2353.949,0.0,2337.215046405622
1015,2356.042,48.49492434163176,2337.5050756583682
1016,2358.134,91.20810281704462,2337.7918971829554
1017,2360.225,8.924502119714816,2338.075497880285
1018,2362.316,48.644135403975724,2338.3558645960243
1019,2364.406,80.36701587938296,2338.632984120617
1020,2366.495,0.0,2338.906843189272
1021,2368.583,73.82257151803424,2339.1774284819658
1022,2370.670,65.55527337655076,2339.4447266234492
1023,2372.757,54.29127581675857,2339.7087241832414
