pixel_index,raman_shift_cm-1,intensity
0,200.0,0.0006770000000031473
1,201.0,0.0006790000000016505
2,202.0,0.0006829999999986569
3,203.0,0.0006865000000004784
4,204.0,0.0006905000000010375
5,205.0,0.0006950000000003342
6,206.0,0.0006990000000008934
7,207.0,0.0007029999999978997
8,208.0,0.0007069999999984589
9,209.0,0.000710999999999018
10,210.0,0.0007149999999995771
11,211.0,0.0007195000000024265
12,212.0,0.0007234999999994329
13,213.0,0.000727499999999992
14,214.0,0.0007325000000015791
15,215.0,0.0007364999999985855
16,216.0,0.0007404999999991446
17,217.0,0.0007455000000007317
18,218.0,0.0007500000000000284
19,219.0,0.0007540000000005875
20,220.0,0.0007590000000021746
21,221.0,0.0007634999999979186
22,222.0,0.0007679999999972154
23,223.0,0.0007725000000000648
24,224.0,0.0007769999999993615
25,225.0,0.0007824999999996862
26,226.0,0.0007870000000025357
27,227.0,0.0007915000000018324
28,228.0,0.0007964999999998668
29,229.0,0.0008014999999979011
30,230.0,0.0008064999999994882
31,231.0,0.0008115000000010753
32,232.0,0.0008164999999991096
33,233.0,0.0008215000000006967
34,234.0,0.0008265000000022837
35,235.0,0.0008319999999990557
36,236.0,0.0008374999999993804
37,237.0,0.0008425000000009675
38,238.0,0.0008474999999990018
39,239.0,0.0008529999999993265
40,240.0,0.0008584999999996512
41,241.0,0.0008639999999999759
42,242.0,0.0008699999999990382
43,243.0,0.0008754999999993629
44,244.0,0.00088050000000095
45,245.0,0.0008865000000000123
46,246.0,0.0008924999999990746
47,247.0,0.000898000000002952
48,248.0,0.0009040000000020143
49,249.0,0.0009099999999975239
50,250.0,0.0009160000000001389
51,251.0,0.0009219999999992012
52,252.0,0.0009279999999982635
53,253.0,0.0009340000000008786
54,254.0,0.0009405000000022312
55,255.0,0.0009470000000000312
56,256.0,0.0009529999999990935
57,257.0,0.0009590000000017085
58,258.0,0.000965999999998246
59,259.0,0.0009724999999995987
60,260.0,0.0009790000000009513
61,261.0,0.0009860000000010416
62,262.0,0.0009924999999988415
63,263.0,0.0009989999999966415
64,264.0,0.0010060000000002844
65,265.0,0.0010130000000003747
66,266.0,0.001020000000000465
67,267.0,0.0010275000000028456
68,268.0,0.0010340000000006455
69,269.0,0.0010414999999994734
70,270.0,0.001049000000001854
71,271.0,0.0010559999999983916
72,272.0,0.0010634999999972194
73,273.0,0.0010709999999996
74,274.0,0.0010790000000007183
75,275.0,0.0010864999999995462
76,276.0,0.0010940000000019268
77,277.0,0.001102000000003045
78,278.0,0.0011099999999970578
79,279.0,0.0011184999999969136
80,280.0,0.0011265000000015846
81,281.0,0.0011340000000004125
82,282.0,0.0011425000000002683
83,283.0,0.0011510000000001241
84,284.0,0.00115949999999998
85,285.0,0.0011679999999998358
86,286.0,0.0011764999999996917
87,287.0,0.0011855000000018379
88,288.0,0.0011945000000004313
89,289.0,0.0012030000000002872
90,290.0,0.0012119999999988806
91,291.0,0.0012214999999997644
92,292.0,0.0012305000000019106
93,293.0,0.0012399999999992417
94,294.0,0.0012495000000001255
95,295.0,0.0012590000000010093
96,296.0,0.0012684999999983404
97,297.0,0.0012784999999979618
98,298.0,0.001288500000001136
99,299.0,0.0012980000000020198
100,300.0,0.0013079999999980885
101,301.0,0.0013185000000000002
102,302.0,0.001329000000001912
103,303.0,0.001339500000000271
104,304.0,0.00134999999999863
105,305.0,0.0013605000000005418
106,306.0,0.0013715000000011912
107,307.0,0.0013824999999982879
108,308.0,0.0013934999999989373
109,309.0,0.0014044999999995866
110,310.0,0.0014159999999989736
111,311.0,0.0014275000000019133
112,312.0,0.0014390000000013004
113,313.0,0.001450999999999425
114,314.0,0.0014630000000011023
115,315.0,0.001474999999999227
116,316.0,0.0014869999999973516
117,317.0,0.0014995000000013192
118,318.0,0.0015120000000017342
119,319.0,0.0015244999999985964
120,320.0,0.0015375000000013017
121,321.0,0.0015505000000004543
122,322.0,0.0015634999999996069
123,323.0,0.0015764999999987594
124,324.0,0.0015900000000002024
125,325.0,0.001604000000000383
126,326.0,0.001617499999998273
127,327.0,0.0016315000000020063
128,328.0,0.0016460000000009245
129,329.0,0.0016599999999975523
130,330.0,0.0016745000000000232
131,331.0,0.0016895000000012317
132,332.0,0.0017040000000001498
133,333.0,0.0017189999999978056
134,334.0,0.0017344999999977517
135,335.0,0.0017500000000012506
136,336.0,0.0017659999999999343
137,337.0,0.0017814999999998804
138,338.0,0.0017975000000021168
139,339.0,0.0018139999999995382
140,340.0,0.0018305000000005123
141,341.0,0.001847500000000224
142,342.0,0.0018639999999976453
143,343.0,0.0018810000000009097
144,344.0,0.0018990000000016494
145,345.0,0.0019165000000000987
146,346.0,0.0019345000000008383
147,347.0,0.0019530000000003156
148,348.0,0.0019709999999975025
149,349.0,0.0019895000000005325
150,350.0,0.0020085000000023
151,351.0,0.0020279999999992526
152,352.0,0.002047499999999758
153,353.0,0.0020664999999979727
154,354.0,0.002086999999999506
155,355.0,0.002107500000001039
156,356.0,0.002127500000000282
157,357.0,0.0021485000000005527
158,358.0,0.002169999999999561
159,359.0,0.0021914999999985696
160,360.0,0.0022130000000011307
161,361.0,0.002235500000001167
162,362.0,0.0022579999999976508
163,363.0,0.00228050000000124
164,364.0,0.002303500000000014
165,365.0,0.0023269999999975255
166,366.0,0.00235100000000088
167,367.0,0.002375000000000682
168,368.0,0.0023994999999992217
169,369.0,0.002424000000001314
170,370.0,0.0024495000000008815
171,371.0,0.0024754999999991867
172,372.0,0.0025009999999987542
173,373.0,0.0025274999999993497
174,374.0,0.0025545000000022355
175,375.0,0.0025820000000003063
176,376.0,0.002609499999998377
177,377.0,0.002637500000002291
178,378.0,0.002666500000000127
179,379.0,0.002694999999999226
180,380.0,0.0027244999999993524
181,381.0,0.0027544999999982167
182,382.0,0.002785000000002924
183,383.0,0.0028159999999992635
184,384.0,0.0028469999999991558
185,385.0,0.002879000000000076
186,386.0,0.0029114999999997337
187,387.0,0.002944500000001682
188,388.0,0.002977999999998815
189,389.0,0.003012000000001791
190,390.0,0.003046499999999952
191,391.0,0.003081999999999141
192,392.0,0.0031180000000006203
193,393.0,0.003153999999998547
194,394.0,0.003191000000001054
195,395.0,0.0032290000000010366
196,396.0,0.0032669999999974664
197,397.0,0.003305499999999739
198,398.0,0.0033455000000017776
199,399.0,0.003385999999999001
200,400.0,0.003426499999999777
201,401.0,0.0034685000000003186
202,402.0,0.0035109999999995978
203,403.0,0.0035540000000011673
204,404.0,0.0035984999999989498
205,405.0,0.003643000000000285
206,406.0,0.003688500000002648
207,407.0,0.0037349999999989336
208,408.0,0.0037819999999975096
209,409.0,0.003830000000000666
210,410.0,0.003879000000001298
211,411.0,0.003928999999999405
212,412.0,0.00397999999999854
213,413.0,0.004031499999999966
214,414.0,0.004084000000002419
215,415.0,0.004138499999999823
216,416.0,0.0041930000000007794
217,417.0,0.004248499999999211
218,418.0,0.004305499999997409
219,419.0,0.004363000000001449
220,420.0,0.004422000000001702
221,421.0,0.0044824999999981685
222,422.0,0.004543999999999215
223,423.0,0.004607000000000028
224,424.0,0.004670499999999578
225,425.0,0.004735500000002446
226,426.0,0.004802000000001527
227,427.0,0.004869499999998084
228,428.0,0.004939000000000249
229,429.0,0.005009499999999889
230,430.0,0.005080999999997005
231,431.0,0.005154499999999729
232,432.0,0.0052295000000022185
233,433.0,0.005306000000000921
234,434.0,0.005384499999998127
235,435.0,0.005463999999999913
236,436.0,0.005545500000000203
237,437.0,0.005628999999998996
238,438.0,0.0057135000000023695
239,439.0,0.005800500000002984
240,440.0,0.005889499999998549
241,441.0,0.005979499999998694
242,442.0,0.006071999999999633
243,443.0,0.006167000000001366
244,444.0,0.006264000000001602
245,445.0,0.006362999999996788
246,446.0,0.006463499999998845
247,447.0,0.006567000000000434
248,448.0,0.006673500000001553
249,449.0,0.006781000000000148
250,450.0,0.006891499999998274
251,451.0,0.007005500000001774
252,452.0,0.007121500000000225
253,453.0,0.0072395000000007315
254,454.0,0.007360999999999507
255,455.0,0.007485499999997813
256,456.0,0.007612500000000466
257,457.0,0.007743000000001388
258,458.0,0.007877000000000578
259,459.0,0.008013500000000562
260,460.0,0.008153499999998814
261,461.0,0.008297499999997626
262,462.0,0.008444000000000784
263,463.0,0.008594999999999686
264,464.0,0.008749999999999147
265,465.0,0.00890850000000043
266,466.0,0.009071000000002272
267,467.0,0.009237999999999857
268,468.0,0.00940949999999674
269,469.0,0.00958450000000255
270,470.0,0.009765000000001578
271,471.0,0.009950499999998641
272,472.0,0.010139999999999816
273,473.0,0.010335000000001315
274,474.0,0.010535499999999587
275,475.0,0.010741499999998183
276,476.0,0.010953000000000657
277,477.0,0.011169999999999902
278,478.0,0.011393000000001763
279,479.0,0.011623000000000161
280,480.0,0.011859499999999912
281,481.0,0.012101999999998725
282,482.0,0.012351499999997628
283,483.0,0.012609000000001203
284,484.0,0.012873500000001314
285,485.0,0.013145500000000254
286,486.0,0.01342599999999905
287,487.0,0.013714499999998964
288,488.0,0.014012000000001024
289,489.0,0.01431800000000294
290,490.0,0.014633499999998634
291,491.0,0.014959499999999792
292,492.0,0.015295000000001835
293,493.0,0.015640999999998684
294,494.0,0.015997499999997444
295,495.0,0.016365499999999145
296,496.0,0.01674600000000126
297,497.0,0.0171385000000015
298,498.0,0.017543499999998602
299,499.0,0.0179620000000007
300,500.0,0.018394000000000688
301,501.0,0.018840499999999594
302,502.0,0.019302500000002
303,503.0,0.019779999999997244
304,504.0,0.02027400000000057
305,505.0,0.020785000000000053
306,506.0,0.021313999999996724
307,507.0,0.021861499999999978
308,508.0,0.022428000000001447
309,509.0,0.023015500000003186
310,510.0,0.023624000000001644
311,511.0,0.024255000000000138
312,512.0,0.024909499999999696
313,513.0,0.025587499999996766
314,514.0,0.026291499999999246
315,515.0,0.02702250000000106
316,516.0,0.027781000000000944
317,517.0,0.028569499999999692
318,518.0,0.029388999999998333
319,519.0,0.030239999999999156
320,520.0,0.031125500000001693
321,521.0,0.03204649999999987
322,522.0,0.03300549999999802
323,523.0,0.03400400000000303
324,524.0,0.03504350000000045
325,525.0,0.036126499999998174
326,526.0,0.03725599999999929
327,527.0,0.03843450000000104
328,528.0,0.03966400000000192
329,529.0,0.040947499999997916
330,530.0,0.04228750000000048
331,531.0,0.04368750000000077
332,532.0,0.04515199999999808
333,533.0,0.04668350000000032
334,534.0,0.04828600000000094
335,535.0,0.04996399999999923
336,536.0,0.05172199999999805
337,537.0,0.05356500000000253
338,538.0,0.05549750000000131
339,539.0,0.05752549999999701
340,540.0,0.05965499999999935
341,541.0,0.06189300000000131
342,542.0,0.06424499999999966
343,543.0,0.06671899999999908
344,544.0,0.06932400000000172
345,545.0,0.07206750000000284
346,546.0,0.07495949999999851
347,547.0,0.07800999999999902
348,548.0,0.08123000000000147
349,549.0,0.08463199999999915
350,550.0,0.08822800000000086
351,551.0,0.09203250000000196
352,552.0,0.09606099999999884
353,553.0,0.1003294999999973
354,554.0,0.10485750000000138
355,555.0,0.1096640000000022
356,556.0,0.11477000000000004
357,557.0,0.12020049999999927
358,558.0,0.1259814999999982
359,559.0,0.13214149999999947
360,560.0,0.13871149999999943
361,561.0,0.1457259999999998
362,562.0,0.15322400000000158
363,563.0,0.16124750000000176
364,564.0,0.1698430000000002
365,565.0,0.17906199999999828
366,566.0,0.18896200000000007
367,567.0,0.19960800000000134
368,568.0,0.21106949999999713
369,569.0,0.22342649999999864
370,570.0,0.23676850000000016
371,571.0,0.2511940000000017
372,572.0,0.26681600000000216
373,573.0,0.2837589999999999
374,574.0,0.3021659999999997
375,575.0,0.3221974999999979
376,576.0,0.3440349999999981
377,577.0,0.36788600000000216
378,578.0,0.3939860000000017
379,579.0,0.42260499999999723
380,580.0,0.45405099999999976
381,581.0,0.4886800000000022
382,582.0,0.526901500000001
383,583.0,0.5691880000000005
384,584.0,0.6160899999999998
385,585.0,0.6682484999999971
386,586.0,0.7264114999999975
387,587.0,0.7914580000000022
388,588.0,0.8644240000000032
389,589.0,0.9465350000000008
390,590.0,1.0392469999999996
391,591.0,1.1442990000000002
392,592.0,1.2637784999999973
393,593.0,1.400198999999997
394,594.0,1.5566090000000017
395,595.0,1.736721499999998
396,596.0,1.9450839999999978
397,597.0,2.1873025000000013
398,598.0,2.470320000000001
399,599.0,2.8027945000000045
400,600.0,3.1955840000000038
401,601.0,3.6623829999999984
402,602.0,4.2205625
403,603.0,4.8922685
404,604.0,5.705849999999998
405,605.0,6.697680499999997
406,606.0,7.914428999999998
407,607.0,9.415704000000005
408,608.0,11.276741999999999
409,609.0,13.59017399999999
410,610.0,16.464471000000003
411,611.0,20.013731000000007
412,612.0,24.327772499999995
413,613.0,29.401995
414,614.0,34.995259000000004
415,615.0,40.38663899999999
416,616.0,44.067612
417,617.0,43.61743800000002
418,618.0,36.326392999999996
419,619.0,21.002083499999998
420,620.0,0.0020985000000166565
421,621.0,-20.997885499999995
422,622.0,-36.322193999999996
423,623.0,-43.61323900000002
424,624.0,-44.063412
425,625.0,-40.382437499999995
426,626.0,-34.991056000000015
427,627.0,-29.397789500000002
428,628.0,-24.323564500000003
429,629.0,-20.009520499999994
430,630.0,-16.460257499999997
431,631.0,-13.5859575
432,632.0,-11.272522500000001
433,633.0,-9.411480500000003
434,634.0,-7.910201000000001
435,635.0,-6.693447499999998
436,636.0,-5.701612499999996
437,637.0,-4.888026500000002
438,638.0,-4.216314500000003
439,639.0,-3.6581289999999953
440,640.0,-3.1913239999999945
441,641.0,-2.7985285000000033
442,642.0,-2.466047000000003
443,643.0,-2.1830225
444,644.0,-1.9407969999999999
445,645.0,-1.7324260000000002
446,646.0,-1.5523060000000015
447,647.0,-1.3958875000000006
448,648.0,-1.2594579999999986
449,649.0,-1.139970499999997
450,650.0,-1.0349085000000002
451,651.0,-0.9421865000000018
452,652.0,-0.8600659999999998
453,653.0,-0.7870895000000004
454,654.0,-0.7220319999999987
455,655.0,-0.6638580000000012
456,656.0,-0.6116884999999996
457,657.0,-0.5647744999999986
458,658.0,-0.5224755000000023
459,659.0,-0.4842425000000006
460,660.0,-0.44960049999999896
461,661.0,-0.4181404999999998
462,662.0,-0.3895085000000016
463,663.0,-0.3633944999999983
464,664.0,-0.3395294999999976
465,665.0,-0.31767699999999977
466,666.0,-0.29763050000000035
467,667.0,-0.27920850000000286
468,668.0,-0.26224949999999936
469,669.0,-0.24661149999999665
470,670.0,-0.2321690000000025
471,671.0,-0.2188110000000023
472,672.0,-0.2064364999999988
473,673.0,-0.19495649999999998
474,674.0,-0.18429300000000026
475,675.0,-0.174374499999999
476,676.0,-0.16513649999999913
477,677.0,-0.1565215000000002
478,678.0,-0.1484784999999995
479,679.0,-0.14096050000000204
480,680.0,-0.1339250000000014
481,681.0,-0.12733399999999762
482,682.0,-0.12115250000000088
483,683.0,-0.1153499999999994
484,684.0,-0.10989749999999887
485,685.0,-0.10476799999999997
486,686.0,-0.09993850000000037
487,687.0,-0.09538700000000233
488,688.0,-0.09109399999999823
489,689.0,-0.08704099999999926
490,690.0,-0.08321100000000214
491,691.0,-0.07958950000000087
492,692.0,-0.0761624999999988
493,693.0,-0.07291550000000058
494,694.0,-0.069837500000002
495,695.0,-0.06691849999999988
496,696.0,-0.0641469999999984
497,697.0,-0.06151349999999667
498,698.0,-0.059009500000001935
499,699.0,-0.05662800000000345
500,700.0,-0.05436049999999781
501,701.0,-0.052199999999999136
502,702.0,-0.05014099999999999
503,703.0,-0.04817650000000029
504,704.0,-0.046300999999999704
505,705.0,-0.04451049999999768
506,706.0,-0.04279900000000225
507,707.0,-0.04116199999999992
508,708.0,-0.03959599999999952
509,709.0,-0.038096500000001754
510,710.0,-0.036659999999997694
511,711.0,-0.03528299999999973
512,712.0,-0.033962999999999965
513,713.0,-0.03269600000000139
514,714.0,-0.03147900000000092
515,715.0,-0.030310499999998797
516,716.0,-0.029187000000000296
517,717.0,-0.02810699999999855
518,718.0,-0.02706799999999987
519,719.0,-0.026067000000001173
520,720.0,-0.02510300000000143
521,721.0,-0.024174500000000876
522,722.0,-0.023278999999998717
523,723.0,-0.02241499999999874
524,724.0,-0.02158149999999992
525,725.0,-0.020776500000000198
526,726.0,-0.019998999999998546
527,727.0,-0.019247000000000014
528,728.0,-0.018519000000001284
529,729.0,-0.017815500000001094
530,730.0,-0.01713499999999968
531,731.0,-0.016474999999999795
532,732.0,-0.015835500000001446
533,733.0,-0.015215999999998786
534,734.0,-0.014614500000000419
535,735.0,-0.014030999999999239
536,736.0,-0.01346449999999777
537,737.0,-0.01291400000000209
538,738.0,-0.012379500000001542
539,739.0,-0.011858999999997621
540,740.0,-0.011352500000000987
541,741.0,-0.01086000000000098
542,742.0,-0.010380500000000126
543,743.0,-0.009913000000000949
544,744.0,-0.009456499999998869
545,745.0,-0.009011999999998466
546,746.0,-0.008578499999998712
547,747.0,-0.008155000000002133
548,748.0,-0.007740999999999332
549,749.0,-0.007335999999998677
550,750.0,-0.006940500000002459
551,751.0,-0.006553499999998991
552,752.0,-0.006174500000000194
553,753.0,-0.005803000000000225
554,754.0,-0.0054389999999990835
555,755.0,-0.005082500000000323
556,756.0,-0.0047329999999981
557,757.0,-0.004388999999999754
558,758.0,-0.004051500000002761
559,759.0,-0.003720000000001278
560,760.0,-0.003393499999997829
561,761.0,-0.0030730000000005475
562,762.0,-0.0027575000000013006
563,763.0,-0.0024464999999977977
564,764.0,-0.0021394999999984066
565,765.0,-0.0018375000000006025
566,766.0,-0.001539499999999805
567,767.0,-0.0012450000000008288
568,768.0,-0.0009545000000024118
569,769.0,-0.0006669999999999732
570,770.0,-0.0003829999999993561
571,771.0,-0.00010199999999827014
572,772.0,0.00017649999999846955
573,773.0,0.0004519999999992308
574,774.0,0.0007250000000027512
575,775.0,0.000996000000000663
576,776.0,0.0012644999999977813
577,777.0,0.0015314999999986867
578,778.0,0.001796500000001089
579,779.0,0.002059500000001435
580,780.0,0.002321999999999491
581,781.0,0.0025829999999977815
582,782.0,0.0028420000000011214
583,783.0,0.003100500000002171
584,784.0,0.00335850000000093
585,785.0,0.0036154999999986615
586,786.0,0.0038714999999989175
587,787.0,0.0041274999999991735
588,788.0,0.0043834999999994295
589,789.0,0.004639000000000948
590,790.0,0.004895000000001204
591,791.0,0.00515049999999917
592,792.0,0.005406499999999426
593,793.0,0.005663000000001972
594,794.0,0.005919500000000966
595,795.0,0.0061769999999974345
596,796.0,0.006435999999997222
597,797.0,0.006695500000002852
598,798.0,0.006955500000000114
599,799.0,0.007216999999997142
600,800.0,0.007480000000001041
601,801.0,0.007744500000001153
602,802.0,0.00801050000000103
603,803.0,0.008278499999999411
604,804.0,0.008547999999997558
605,805.0,0.008819500000001312
606,806.0,0.009093500000002308
607,807.0,0.009370000000000545
608,808.0,0.009648500000000837
609,809.0,0.009928999999999633
610,810.0,0.01021300000000025
611,811.0,0.010500000000000398
612,812.0,0.010789999999996525
613,813.0,0.011082499999996998
614,814.0,0.011378500000002845
615,815.0,0.011678500000002145
616,816.0,0.011981999999999715
617,817.0,0.012288999999999106
618,818.0,0.012599999999999056
619,819.0,0.012915500000001856
620,820.0,0.013235000000001662
621,821.0,0.013558499999998475
622,822.0,0.013886999999996874
623,823.0,0.014220999999999151
624,824.0,0.014559500000000725
625,825.0,0.014903500000002623
626,826.0,0.015252500000002556
627,827.0,0.01560699999999926
628,828.0,0.015967999999997318
629,829.0,0.01633499999999799
630,830.0,0.01670750000000254
631,831.0,0.017086500000001337
632,832.0,0.01747299999999896
633,833.0,0.01786650000000023
634,834.0,0.018266499999999297
635,835.0,0.018674000000000746
636,836.0,0.019089999999998497
637,837.0,0.01951349999999863
638,838.0,0.019945000000003432
639,839.0,0.020385499999999723
640,840.0,0.02083499999999816
641,841.0,0.021293000000000006
642,842.0,0.021760499999999183
643,843.0,0.022238500000000272
644,844.0,0.022726500000000982
645,845.0,0.023224500000001314
646,846.0,0.02373349999999874
647,847.0,0.02425399999999911
648,848.0,0.024786000000002417
649,849.0,0.025330499999999034
650,850.0,0.02588649999999859
651,851.0,0.026455500000000853
652,852.0,0.027038499999999743
653,853.0,0.027635000000000076
654,854.0,0.028245999999999327
655,855.0,0.02887099999999876
656,856.0,0.029512000000000427
657,857.0,0.03016850000000204
658,858.0,0.030841500000001076
659,859.0,0.03153199999999856
660,860.0,0.03223900000000057
661,861.0,0.0329650000000008
662,862.0,0.03370999999999924
663,863.0,0.03447449999999819
664,864.0,0.03525899999999993
665,865.0,0.03606450000000194
666,866.0,0.03689199999999815
667,867.0,0.037742500000000234
668,868.0,0.038616500000003384
669,869.0,0.03951400000000049
670,870.0,0.04043749999999946
671,871.0,0.04138749999999902
672,872.0,0.04236449999999792
673,873.0,0.04336950000000073
674,874.0,0.0444045000000024
675,875.0,0.04546999999999812
676,876.0,0.04656649999999729
677,877.0,0.047696999999999434
678,878.0,0.04886199999999974
679,879.0,0.050062000000000495
680,880.0,0.051299500000002496
681,881.0,0.052576000000001955
682,882.0,0.0538924999999999
683,883.0,0.055251500000000675
684,884.0,0.056653999999998206
685,885.0,0.0581019999999981
686,886.0,0.05959800000000115
687,887.0,0.06114350000000002
688,888.0,0.06274050000000031
689,889.0,0.06439200000000156
690,890.0,0.06609949999999998
691,891.0,0.06786549999999991
692,892.0,0.06969399999999837
693,893.0,0.07158649999999867
694,894.0,0.07354600000000033
695,895.0,0.07557600000000164
696,896.0,0.07768000000000086
697,897.0,0.07986099999999752
698,898.0,0.08212199999999825
699,899.0,0.0844680000000011
700,900.0,0.0869035000000018
701,901.0,0.08943149999999989
702,902.0,0.09205649999999821
703,903.0,0.09478400000000065
704,904.0,0.09761950000000041
705,905.0,0.1005679999999991
706,906.0,0.10363550000000288
707,907.0,0.10682750000000141
708,908.0,0.11015099999999833
709,909.0,0.11361349999999959
710,910.0,0.11722149999999942
711,911.0,0.12098299999999895
712,912.0,0.12490700000000032
713,913.0,0.12900249999999858
714,914.0,0.1332784999999994
715,915.0,0.13774500000000245
716,916.0,0.14241349999999997
717,917.0,0.14729549999999847
718,918.0,0.1524035000000019
719,919.0,0.15775149999999982
720,920.0,0.16335300000000075
721,921.0,0.16922399999999982
722,922.0,0.175380999999998
723,923.0,0.18184150000000088
724,924.0,0.18862449999999953
725,925.0,0.19575150000000008
726,926.0,0.20324450000000027
727,927.0,0.2111274999999999
728,928.0,0.21942600000000212
729,929.0,0.22816849999999889
730,930.0,0.2373859999999972
731,931.0,0.2471110000000003
732,932.0,0.25737900000000025
733,933.0,0.2682284999999993
734,934.0,0.27970300000000137
735,935.0,0.29184800000000166
736,936.0,0.3047134999999983
737,937.0,0.31835450000000165
738,938.0,0.3328310000000023
739,939.0,0.34820799999999963
740,940.0,0.3645575000000001
741,941.0,0.3819589999999984
742,942.0,0.40049849999999765
743,943.0,0.42027200000000065
744,944.0,0.4413845000000016
745,945.0,0.46395199999999903
746,946.0,0.48810399999999987
747,947.0,0.5139829999999996
748,948.0,0.5417464999999986
749,949.0,0.571571500000001
750,950.0,0.6036540000000024
751,951.0,0.6382130000000004
752,952.0,0.675494999999998
753,953.0,0.7157750000000007
754,954.0,0.7593615000000007
755,955.0,0.8066040000000001
756,956.0,0.857896499999999
757,957.0,0.9136834999999977
758,958.0,0.9744729999999997
759,959.0,1.0408400000000029
760,960.0,1.1134410000000017
761,961.0,1.1930295000000015
762,962.0,1.2804689999999965
763,963.0,1.3767539999999983
764,964.0,1.4830354999999997
765,965.0,1.6006454999999988
766,966.0,1.7311340000000044
767,967.0,1.876313500000002
768,968.0,2.038307500000002
769,969.0,2.2196165000000008
770,970.0,2.4231949999999998
771,971.0,2.6525524999999988
772,972.0,2.9118755000000007
773,973.0,3.206180499999995
774,974.0,3.541510499999994
775,975.0,3.9251840000000016
776,976.0,4.3661095
777,977.0,4.8751915
778,978.0,5.465856500000001
779,979.0,6.1547325000000015
780,980.0,6.962537999999995
781,981.0,7.915239
782,982.0,9.045572500000006
783,983.0,10.395047000000005
784,984.0,12.016555999999994
785,985.0,13.977778
786,986.0,16.365531500000003
787,987.0,19.29117199999999
788,988.0,22.896892500000007
789,989.0,27.362138000000016
790,990.0,32.907810999999995
791,991.0,39.792580999999984
792,992.0,48.28857500000001
793,993.0,58.61018200000001
794,994.0,70.74706950000001
795,995.0,84.12581549999999
796,996.0,97.03076949999996
797,997.0,105.87119100000001
798,998.0,104.88456250000002
799,999.0,87.62051749999995
800,1000.0,51.24163100000004
801,1001.0,1.3631160000001046
802,1002.0,-48.49923700000005
803,1003.0,-84.82918300000006
804,1004.0,-102.01012199999997
805,1005.0,-102.8770935
806,1006.0,-93.8769585
807,1007.0,-80.767428
808,1008.0,-67.13288450000002
809,1009.0,-54.680724
810,1010.0,-43.973750499999994
811,1011.0,-35.00869700000001
812,1012.0,-27.55377900000002
813,1013.0,-21.31458599999999
814,1014.0,-16.003850999999997
815,1015.0,-11.363902999999993
816,1016.0,-7.1679724999999905
817,1017.0,-3.213023000000007
818,1018.0,0.6901210000000049
819,1019.0,4.726591499999998
820,1020.0,9.085183999999998
821,1021.0,13.960673500000013
822,1022.0,19.543835
823,1023.0,25.984893999999997
824,1024.0,33.30367849999999
825,1025.0,41.20502349999998
826,1026.0,48.761394499999994
827,1027.0,54.010688000000016
828,1028.0,53.793717500000014
829,1029.0,44.570876
830,1030.0,24.787952500000017
831,1031.0,-2.4617455000000064
832,1032.0,-29.740819500000043
833,1033.0,-49.612694999999974
834,1034.0,-58.98658549999996
835,1035.0,-59.42104150000003
836,1036.0,-54.462042500000024
837,1037.0,-47.2775135
838,1038.0,-39.84111849999999
839,1039.0,-33.095400999999995
840,1040.0,-27.354829999999993
841,1041.0,-22.624300500000004
842,1042.0,-18.785218999999998
843,1043.0,-15.6873255
844,1044.0,-13.187838500000012
845,1045.0,-11.164812999999995
846,1046.0,-9.519162499999993
847,1047.0,-8.172336999999999
848,1048.0,-7.062787499999999
849,1049.0,-6.142496999999999
850,1050.0,-5.374005500000003
851,1051.0,-4.728011500000001
852,1052.0,-4.1815
853,1053.0,-3.7162989999999994
854,1054.0,-3.3179784999999953
855,1055.0,-2.975011500000001
856,1056.0,-2.678132500000004
857,1057.0,-2.4198510000000013
858,1058.0,-2.194072499999997
859,1059.0,-1.9958099999999988
860,1060.0,-1.820961000000004
861,1061.0,-1.6661295000000038
862,1062.0,-1.528492
863,1063.0,-1.4056864999999945
864,1064.0,-1.2957295000000002
865,1065.0,-1.1969475000000003
866,1066.0,-1.1079189999999954
867,1067.0,-1.027435000000004
868,1068.0,-0.954462000000003
869,1069.0,-0.8881119999999996
870,1070.0,-0.8276184999999998
871,1071.0,-0.7723189999999995
872,1072.0,-0.7216394999999984
873,1073.0,-0.6750784999999979
874,1074.0,-0.6321975000000002
875,1075.0,-0.5926125000000013
876,1076.0,-0.5559840000000023
877,1077.0,-0.5220134999999999
878,1078.0,-0.49043749999999875
879,1079.0,-0.461019499999999
880,1080.0,-0.4335500000000003
881,1081.0,-0.407842500000001
882,1082.0,-0.3837274999999991
883,1083.0,-0.3610545000000016
884,1084.0,-0.3396860000000004
885,1085.0,-0.3194979999999994
886,1086.0,-0.30037850000000077
887,1087.0,-0.2822235000000006
888,1088.0,-0.2649384999999995
889,1089.0,-0.24843699999999913
890,1090.0,-0.23263700000000043
891,1091.0,-0.21746350000000092
892,1092.0,-0.2028464999999997
893,1093.0,-0.18871850000000023
894,1094.0,-0.17501650000000168
895,1095.0,-0.1616794999999982
896,1096.0,-0.14864949999999766
897,1097.0,-0.13586950000000186
898,1098.0,-0.12328250000000196
899,1099.0,-0.11083299999999952
900,1100.0,-0.09846649999999713
901,1101.0,-0.08612499999999912
902,1102.0,-0.07375050000000272
903,1103.0,-0.0612844999999993
904,1104.0,-0.04866349999999997
905,1105.0,-0.035821999999999576
906,1106.0,-0.022690499999999503
907,1107.0,-0.009192999999999785
908,1108.0,0.00475150000000113
909,1109.0,0.019230999999997778
910,1110.0,0.03434349999999853
911,1111.0,0.05019749999999945
912,1112.0,0.06691149999999979
913,1113.0,0.08462000000000103
914,1114.0,0.10347499999999954
915,1115.0,0.12364700000000184
916,1116.0,0.14533150000000106
917,1117.0,0.1687499999999993
918,1118.0,0.19415899999999908
919,1119.0,0.22185449999999918
920,1120.0,0.2521765000000009
921,1121.0,0.28552549999999854
922,1122.0,0.32236750000000214
923,1123.0,0.363249500000002
924,1124.0,0.40881999999999863
925,1125.0,0.45984650000000116
926,1126.0,0.5172440000000016
927,1127.0,0.5821100000000001
928,1128.0,0.6557664999999986
929,1129.0,0.7398134999999968
930,1130.0,0.8361990000000006
931,1131.0,0.9473100000000017
932,1132.0,1.076084999999999
933,1133.0,1.2261644999999994
934,1134.0,1.4020870000000016
935,1135.0,1.609541
936,1136.0,1.8557039999999958
937,1137.0,2.1496780000000015
938,1138.0,2.5030649999999994
939,1139.0,2.9307159999999968
940,1140.0,3.451686500000001
941,1141.0,4.090425000000003
942,1142.0,4.878156500000003
943,1143.0,5.854292000000001
944,1144.0,7.067353499999996
945,1145.0,8.5741625
946,1146.0,10.434486000000007
947,1147.0,12.6953715
948,1148.0,15.354412499999995
949,1149.0,18.285298999999995
950,1150.0,21.110404000000003
951,1151.0,23.039550000000006
952,1152.0,22.804732
953,1153.0,18.986571499999997
954,1154.0,10.96048300000001
955,1155.0,-0.038604999999989786
956,1156.0,-11.03771900000001
957,1157.0,-19.063884500000015
958,1158.0,-22.882174000000006
959,1159.0,-23.117172999999994
960,1160.0,-21.18826
961,1161.0,-18.363440499999996
962,1162.0,-15.432892499999994
963,1163.0,-12.774243500000004
964,1164.0,-10.513804
965,1165.0,-8.653982499999998
966,1166.0,-7.147731
967,1167.0,-5.935283500000004
968,1168.0,-4.959820499999999
969,1169.0,-4.1728205
970,1170.0,-3.534874000000002
971,1171.0,-3.014756999999996
972,1172.0,-2.5880229999999997
973,1173.0,-2.2356180000000023
974,1174.0,-1.9426935000000007
975,1175.0,-1.697648000000001
976,1176.0,-1.4913820000000015
977,1177.0,-1.3167214999999999
978,1178.0,-1.167978999999999
979,1179.0,-1.0406194999999983
980,1180.0,-0.9310040000000015
981,1181.0,-0.8361975000000008
982,1182.0,-0.753816999999998
983,1183.0,-0.6819175000000008
984,1184.0,-0.6189014999999998
985,1185.0,-0.5634519999999981
986,1186.0,-0.5144754999999996
987,1187.0,-0.4710605000000001
988,1188.0,-0.43244450000000256
989,1189.0,-0.39798550000000077
990,1190.0,-0.36713999999999913
991,1191.0,-0.3394475000000021
992,1192.0,-0.31451549999999884
993,1193.0,-0.2920084999999979
994,1194.0,-0.2716390000000004
995,1195.0,-0.25315700000000163
996,1196.0,-0.2363490000000006
997,1197.0,-0.22102899999999792
998,1198.0,-0.20703400000000016
999,1199.0,-0.19422349999999966
1000,1200.0,-0.1824735000000004
1001,1201.0,-0.17167550000000276
1002,1202.0,-0.16173350000000042
1003,1203.0,-0.1525634999999994
1004,1204.0,-0.14409149999999826
1005,1205.0,-0.1362509999999979
1006,1206.0,-0.12898249999999933
1007,1207.0,-0.12223450000000113
1008,1208.0,-0.1159610000000022
1009,1209.0,-0.11011900000000097
1010,1210.0,-0.10467149999999847
1011,1211.0,-0.09958449999999885
1012,1212.0,-0.09482900000000072
1013,1213.0,-0.09037700000000015
1014,1214.0,-0.08620349999999988
1015,1215.0,-0.08228749999999962
1016,1216.0,-0.07860750000000039
1017,1217.0,-0.07514550000000142
1018,1218.0,-0.07188599999999923
1019,1219.0,-0.06881299999999868
1020,1220.0,-0.06591200000000086
1021,1221.0,-0.06317200000000156
1022,1222.0,-0.060581499999997845
1023,1223.0,-0.058128499999998695
1024,1224.0,-0.05580400000000196
1025,1225.0,-0.053599999999999426
1026,1226.0,-0.051507499999999595
1027,1227.0,-0.04951850000000135
1028,1228.0,-0.04762750000000082
1029,1229.0,-0.0458280000000002
1030,1230.0,-0.0441129999999994
1031,1231.0,-0.04247799999999913
1032,1232.0,-0.04091800000000134
1033,1233.0,-0.039427499999998616
1034,1234.0,-0.038003499999998525
1035,1235.0,-0.03664100000000303
1036,1236.0,-0.03533649999999966
1037,1237.0,-0.03408749999999827
1038,1238.0,-0.03288949999999957
1039,1239.0,-0.031739500000000476
1040,1240.0,-0.03063550000000248
1041,1241.0,-0.029575499999999977
1042,1242.0,-0.028555499999999512
1043,1243.0,-0.02757349999999903
1044,1244.0,-0.0266284999999975
1045,1245.0,-0.02571800000000124
1046,1246.0,-0.024839500000002346
1047,1247.0,-0.023991500000001054
1048,1248.0,-0.023172999999999888
1049,1249.0,-0.022381999999996793
1050,1250.0,-0.02161699999999911
1051,1251.0,-0.020876499999999965
1052,1252.0,-0.02015949999999833
1053,1253.0,-0.019465000000000288
1054,1254.0,-0.018791000000000224
1055,1255.0,-0.018137500000001694
1056,1256.0,-0.01750300000000138
1057,1257.0,-0.016885999999999513
1058,1258.0,-0.01628600000000091
1059,1259.0,-0.01570249999999973
1060,1260.0,-0.015134499999998496
1061,1261.0,-0.014580500000000995
1062,1262.0,-0.01404099999999886
1063,1263.0,-0.01351449999999943
1064,1264.0,-0.013000000000001677
1065,1265.0,-0.012497499999998496
1066,1266.0,-0.012005999999999517
1067,1267.0,-0.011525500000001188
1068,1268.0,-0.011054999999998927
1069,1269.0,-0.010594000000001103
1070,1270.0,-0.010141500000003134
1071,1271.0,-0.009698000000000206
1072,1272.0,-0.009262499999998397
1073,1273.0,-0.008834499999998968
1074,1274.0,-0.008413999999998367
1075,1275.0,-0.007999500000000381
1076,1276.0,-0.007591500000000195
1077,1277.0,-0.007190000000001362
1078,1278.0,-0.006793500000000563
1079,1279.0,-0.006401999999997798
1080,1280.0,-0.006016000000002464
1081,1281.0,-0.005634499999999321
1082,1282.0,-0.005256499999997999
1083,1283.0,-0.004882500000000789
1084,1284.0,-0.0045125000000005855
1085,1285.0,-0.0041450000000011755
1086,1286.0,-0.0037805000000012967
1087,1287.0,-0.003419000000000949
1088,1288.0,-0.0030599999999978422
1089,1289.0,-0.0027024999999980537
1090,1290.0,-0.0023465000000015834
1091,1291.0,-0.001992000000001326
1092,1292.0,-0.0016390000000008342
1093,1293.0,-0.001287500000000108
1094,1294.0,-0.0009359999999993818
1095,1295.0,-0.0005844999999986555
1096,1296.0,-0.00023350000000021964
1097,1297.0,0.00011800000000050659
1098,1298.0,0.0004695000000012328
1099,1299.0,0.0008215000000006967
1100,1300.0,0.0011754999999986637
1101,1301.0,0.0015299999999989211
1102,1302.0,0.0018855000000002065
1103,1303.0,0.0022434999999987326
1104,1304.0,0.002604000000001605
1105,1305.0,0.002966499999999428
1106,1306.0,0.0033309999999993067
1107,1307.0,0.0036985000000022694
1108,1308.0,0.004069499999999948
1109,1309.0,0.004444499999998186
1110,1310.0,0.004823000000001798
1111,1311.0,0.0052055000000024165
1112,1312.0,0.005592000000000041
1113,1313.0,0.005983499999999253
1114,1314.0,0.00638049999999879
1115,1315.0,0.006782499999999914
1116,1316.0,0.0071905000000001
1117,1317.0,0.007604499999999348
1118,1318.0,0.008024999999999949
1119,1319.0,0.00845250000000064
1120,1320.0,0.00888750000000016
1121,1321.0,0.009329999999998506
1122,1322.0,0.009780499999997971
1123,1323.0,0.010239500000000845
1124,1324.0,0.010707500000002312
1125,1325.0,0.01118500000000111
1126,1326.0,0.01167249999999953
1127,1327.0,0.0121709999999986
1128,1328.0,0.01267999999999958
1129,1329.0,0.013200499999999948
1130,1330.0,0.013733500000000731
1131,1331.0,0.014279000000001929
1132,1332.0,0.014838499999999755
1133,1333.0,0.01541199999999776
1134,1334.0,0.0159994999999995
1135,1335.0,0.016602999999999923
1136,1336.0,0.01722249999999903
1137,1337.0,0.01785950000000014
1138,1338.0,0.018514500000001988
1139,1339.0,0.019187500000001023
1140,1340.0,0.0198804999999993
1141,1341.0,0.020594500000001403
1142,1342.0,0.02133050000000125
1143,1343.0,0.022088999999997583
1144,1344.0,0.02287099999999853
1145,1345.0,0.023678499999999048
1146,1346.0,0.02451250000000016
1147,1347.0,0.025374000000002894
1148,1348.0,0.026264499999999913
1149,1349.0,0.027186000000000377
1150,1350.0,0.028140000000000498
1151,1351.0,0.029127499999997752
1152,1352.0,0.03015049999999775
1153,1353.0,0.03121150000000128
1154,1354.0,0.0323125000000033
1155,1355.0,0.03345449999999772
1156,1356.0,0.0346404999999983
1157,1357.0,0.035873000000002264
1158,1358.0,0.03715449999999976
1159,1359.0,0.038488000000000966
1160,1360.0,0.03987599999999958
1161,1361.0,0.04132099999999994
1162,1362.0,0.04282750000000135
1163,1363.0,0.044398499999999785
1164,1364.0,0.04603750000000062
1165,1365.0,0.0477489999999996
1166,1366.0,0.04953699999999728
1167,1367.0,0.05140600000000006
1168,1368.0,0.05336150000000117
1169,1369.0,0.05540949999999967
1170,1370.0,0.05755350000000092
1171,1371.0,0.059801000000000215
1172,1372.0,0.06215949999999992
1173,1373.0,0.06463499999999911
1174,1374.0,0.06723500000000016
1175,1375.0,0.06996799999999936
1176,1376.0,0.07284399999999991
1177,1377.0,0.07587200000000038
1178,1378.0,0.07906200000000041
1179,1379.0,0.0824265000000004
1180,1380.0,0.08597699999999975
1181,1381.0,0.08972699999999989
1182,1382.0,0.09369200000000077
1183,1383.0,0.0978874999999988
1184,1384.0,0.10233049999999722
1185,1385.0,0.10704000000000136
1186,1386.0,0.11203749999999957
1187,1387.0,0.11734500000000025
1188,1388.0,0.1229875000000007
1189,1389.0,0.12899249999999896
1190,1390.0,0.135390000000001
1191,1391.0,0.1422130000000017
1192,1392.0,0.14949800000000124
1193,1393.0,0.1572855000000004
1194,1394.0,0.16561949999999825
1195,1395.0,0.1745494999999977
1196,1396.0,0.1841310000000007
1197,1397.0,0.19442400000000148
1198,1398.0,0.20549600000000012
1199,1399.0,0.21742399999999762
1200,1400.0,0.2302919999999986
1201,1401.0,0.24419500000000127
1202,1402.0,0.2592390000000009
1203,1403.0,0.27554449999999875
1204,1404.0,0.29324749999999966
1205,1405.0,0.31249950000000126
1206,1406.0,0.33347499999999997
1207,1407.0,0.3563715000000016
1208,1408.0,0.3814124999999997
1209,1409.0,0.4088560000000001
1210,1410.0,0.43899550000000076
1211,1411.0,0.4721694999999997
1212,1412.0,0.5087684999999986
1213,1413.0,0.5492430000000006
1214,1414.0,0.5941170000000007
1215,1415.0,0.6440004999999971
1216,1416.0,0.699607499999999
1217,1417.0,0.7617740000000026
1218,1418.0,0.8314870000000028
1219,1419.0,0.909913999999997
1220,1420.0,0.9984419999999972
1221,1421.0,1.0987275000000025
1222,1422.0,1.2127575000000022
1223,1423.0,1.3429274999999983
1224,1424.0,1.4921404999999979
1225,1425.0,1.6639325000000014
1226,1426.0,1.8626350000000045
1227,1427.0,2.0935865000000007
1228,1428.0,2.363400999999996
1229,1429.0,2.6803230000000013
1230,1430.0,3.054693999999998
1231,1431.0,3.499556999999996
1232,1432.0,4.031456000000006
1233,1433.0,4.671483500000001
1234,1434.0,5.446635999999998
1235,1435.0,6.391557499999998
1236,1436.0,7.5506949999999975
1237,1437.0,8.9808175
1238,1438.0,10.753580500000005
1239,1439.0,12.957202500000008
1240,1440.0,15.694990500000003
1241,1441.0,19.075609999999998
1242,1442.0,23.184601999999998
1243,1443.0,28.017586499999993
1244,1444.0,33.34490650000001
1245,1445.0,38.47996599999999
1246,1446.0,41.986076999999995
1247,1447.0,41.557773500000025
1248,1448.0,34.61436699999999
1249,1449.0,20.02024499999999
1250,1450.0,0.020729500000015832
1251,1451.0,-19.978771999999992
1252,1452.0,-34.572854500000005
1253,1453.0,-41.51619600000001
1254,1454.0,-41.944406500000014
1255,1455.0,-38.438176
1256,1456.0,-33.30297049999999
1257,1457.0,-27.975477499999997
1258,1458.0,-23.142293500000008
1259,1459.0,-19.0330735
1260,1460.0,-15.6521975
1261,1461.0,-12.914125000000006
1262,1462.0,-10.710189999999997
1263,1463.0,-8.937084999999996
1264,1464.0,-7.506589999999996
1265,1465.0,-6.347050000000003
1266,1466.0,-5.401695000000004
1267,1467.0,-4.626077000000002
1268,1468.0,-3.9855519999999984
1269,1469.0,-3.4531214999999946
1270,1470.0,-3.007693500000002
1271,1471.0,-2.6327225
1272,1472.0,-2.315163499999997
1273,1473.0,-2.0446760000000026
1274,1474.0,-1.813013000000005
1275,1475.0,-1.6135585
1276,1476.0,-1.4409749999999981
1277,1477.0,-1.2909284999999997
1278,1478.0,-1.1598804999999999
1279,1479.0,-1.0449275
1280,1480.0,-0.9436730000000004
1281,1481.0,-0.8541269999999983
1282,1482.0,-0.7746309999999994
1283,1483.0,-0.7037970000000016
1284,1484.0,-0.6404554999999981
1285,1485.0,-0.5836170000000003
1286,1486.0,-0.5324415000000009
1287,1487.0,-0.4862144999999991
1288,1488.0,-0.4443230000000007
1289,1489.0,-0.40623950000000164
1290,1490.0,-0.3715100000000007
1291,1491.0,-0.33974199999999755
1292,1492.0,-0.31059299999999723
1293,1493.0,-0.2837645000000002
1294,1494.0,-0.2589975000000031
1295,1495.0,-0.23606200000000044
1296,1496.0,-0.214755499999999
1297,1497.0,-0.19490150000000028
1298,1498.0,-0.17634100000000075
1299,1499.0,-0.1589324999999988
1300,1500.0,-0.14255099999999743
1301,1501.0,-0.12708400000000353
1302,1502.0,-0.11242950000000107
1303,1503.0,-0.09849549999999851
1304,1504.0,-0.08519899999999936
1305,1505.0,-0.07246400000000008
1306,1506.0,-0.06022000000000105
1307,1507.0,-0.04840300000000042
1308,1508.0,-0.03695450000000022
1309,1509.0,-0.025817499999998716
1310,1510.0,-0.014941000000000315
1311,1511.0,-0.004276000000000835
1312,1512.0,0.006225499999999329
1313,1513.0,0.01660749999999922
1314,1514.0,0.026914000000001437
1315,1515.0,0.03718650000000068
1316,1516.0,0.047467000000001036
1317,1517.0,0.057797000000000764
1318,1518.0,0.06821700000000064
1319,1519.0,0.0787690000000012
1320,1520.0,0.08949449999999715
1321,1521.0,0.10043799999999692
1322,1522.0,0.11164349999999956
1323,1523.0,0.12315700000000263
1324,1524.0,0.13502850000000066
1325,1525.0,0.1473089999999999
1326,1526.0,0.16005300000000133
1327,1527.0,0.1733185000000006
1328,1528.0,0.1871690000000008
1329,1529.0,0.20167299999999955
1330,1530.0,0.2169029999999985
1331,1531.0,0.23293899999999823
1332,1532.0,0.2498685000000016
1333,1533.0,0.26778850000000176
1334,1534.0,0.2868054999999998
1335,1535.0,0.3070360000000001
1336,1536.0,0.3286099999999976
1337,1537.0,0.35167399999999915
1338,1538.0,0.37638950000000193
1339,1539.0,0.4029379999999989
1340,1540.0,0.4315250000000006
1341,1541.0,0.46238050000000186
1342,1542.0,0.4957659999999997
1343,1543.0,0.5319789999999998
1344,1544.0,0.571356999999999
1345,1545.0,0.6142854999999976
1346,1546.0,0.6612089999999995
1347,1547.0,0.7126385000000006
1348,1548.0,0.7691635000000012
1349,1549.0,0.8314684999999997
1350,1550.0,0.9003504999999983
1351,1551.0,0.9767430000000026
1352,1552.0,1.0617415000000001
1353,1553.0,1.1566384999999997
1354,1554.0,1.262967500000002
1355,1555.0,1.3825544999999977
1356,1556.0,1.5175865000000002
1357,1557.0,1.6706964999999983
1358,1558.0,1.845071499999996
1359,1559.0,2.0445925000000003
1360,1560.0,2.2740115000000003
1361,1561.0,2.539184000000006
1362,1562.0,2.8473690000000005
1363,1563.0,3.2076224999999994
1364,1564.0,3.631310500000005
1365,1565.0,4.132780999999994
1366,1566.0,4.730247499999997
1367,1567.0,5.446929000000004
1368,1568.0,6.312511999999998
1369,1569.0,7.364962999999996
1370,1570.0,8.652645999999997
1371,1571.0,10.236485500000008
1372,1572.0,12.191413000000011
1373,1573.0,14.605224499999991
1374,1574.0,17.57064849999999
1375,1575.0,21.161969
1376,1576.0,25.380070500000002
1377,1577.0,30.040969000000004
1378,1578.0,34.584937499999995
1379,1579.0,37.83498
1380,1580.0,37.899339499999996
1381,1581.0,32.66172750000001
1382,1582.0,21.201291999999995
1383,1583.0,5.3906399999999906
1384,1584.0,-10.285124499999995
1385,1585.0,-21.333850000000012
1386,1586.0,-25.8613
1387,1587.0,-24.75065699999999
1388,1588.0,-20.062097499999993
1389,1589.0,-13.609638499999988
1390,1590.0,-6.467484500000012
1391,1591.0,0.9346634999999992
1392,1592.0,8.5674645
1393,1593.0,16.595733999999993
1394,1594.0,25.222632000000004
1395,1595.0,34.53101649999999
1396,1596.0,44.250147999999996
1397,1597.0,53.38858449999998
1398,1598.0,59.778572500000024
1399,1599.0,59.89347300000003
1400,1600.0,49.76988699999998
1401,1601.0,27.676196500000003
1402,1602.0,-2.8850759999999696
1403,1603.0,-33.518152999999984
1404,1604.0,-55.831006
1405,1605.0,-66.33262400000004
1406,1606.0,-66.77467650000003
1407,1607.0,-61.150428999999974
1408,1608.0,-53.02789849999999
1409,1609.0,-44.629549500000024
1410,1610.0,-37.0160305
1411,1611.0,-30.54039249999998
1412,1612.0,-25.207031999999998
1413,1613.0,-20.881383500000013
1414,1614.0,-17.3933775
1415,1615.0,-14.58152299999999
1416,1616.0,-12.3079355
1417,1617.0,-10.460587000000004
1418,1618.0,-8.950672000000004
1419,1619.0,-7.708607999999998
1420,1620.0,-6.680109000000002
1421,1621.0,-5.822826500000005
1422,1622.0,-5.103636000000002
1423,1623.0,-4.496521999999999
1424,1624.0,-3.980945999999996
1425,1625.0,-3.540602
1426,1626.0,-3.1624669999999995
1427,1627.0,-2.836076999999996
1428,1628.0,-2.552974500000005
1429,1629.0,-2.306282000000003
1430,1630.0,-2.0903755000000004
1431,1631.0,-1.9006295000000009
1432,1632.0,-1.7332205000000016
1433,1633.0,-1.584969000000001
1434,1634.0,-1.453219499999996
1435,1635.0,-1.335745499999998
1436,1636.0,-1.2306670000000004
1437,1637.0,-1.1363920000000007
1438,1638.0,-1.051568500000002
1439,1639.0,-0.9750404999999986
1440,1640.0,-0.9058165000000002
1441,1641.0,-0.843045
1442,1642.0,-0.7859904999999969
1443,1643.0,-0.7340145000000007
1444,1644.0,-0.6865630000000031
1445,1645.0,-0.6431535000000004
1446,1646.0,-0.6033629999999981
1447,1647.0,-0.5668199999999999
1448,1648.0,-0.5331994999999985
1449,1649.0,-0.5022144999999973
1450,1650.0,-0.4736090000000033
1451,1651.0,-0.44715900000000275
1452,1652.0,-0.4226644999999998
1453,1653.0,-0.39994649999999865
1454,1654.0,-0.3788469999999968
1455,1655.0,-0.35922300000000007
1456,1656.0,-0.34094650000000115
1457,1657.0,-0.32390450000000115
1458,1658.0,-0.30799400000000077
1459,1659.0,-0.29312050000000056
1460,1660.0,-0.2792014999999992
1461,1661.0,-0.2661619999999978
1462,1662.0,-0.25393199999999894
1463,1663.0,-0.24244900000000058
1464,1664.0,-0.23165750000000074
1465,1665.0,-0.22150549999999924
1466,1666.0,-0.21194600000000108
1467,1667.0,-0.20293649999999985
1468,1668.0,-0.19443700000000064
1469,1669.0,-0.18641249999999943
1470,1670.0,-0.17882999999999782
1471,1671.0,-0.17165850000000304
1472,1672.0,-0.16487100000000154
1473,1673.0,-0.15844149999999857
1474,1674.0,-0.1523469999999989
1475,1675.0,-0.1465664999999987
1476,1676.0,-0.14107850000000255
1477,1677.0,-0.13586500000000257
1478,1678.0,-0.13090899999999905
1479,1679.0,-0.12619499999999917
1480,1680.0,-0.12170899999999918
1481,1681.0,-0.11743549999999914
1482,1682.0,-0.11336299999999966
1483,1683.0,-0.10947949999999906
1484,1684.0,-0.105774499999999
1485,1685.0,-0.10223750000000109
1486,1686.0,-0.09885850000000218
1487,1687.0,-0.09562999999999988
1488,1688.0,-0.09254250000000042
1489,1689.0,-0.08958900000000014
1490,1690.0,-0.08676149999999794
1491,1691.0,-0.08405400000000185
1492,1692.0,-0.08145999999999987
1493,1693.0,-0.07897299999999774
1494,1694.0,-0.07658849999999973
1495,1695.0,-0.07430100000000195
1496,1696.0,-0.07210500000000053
1497,1697.0,-0.06999549999999743
1498,1698.0,-0.06796950000000024
1499,1699.0,-0.06602300000000128
1500,1700.0,-0.06415099999999896
1501,1701.0,-0.06234999999999857
1502,1702.0,-0.06061750000000288
1503,1703.0,-0.058950000000002944
1504,1704.0,-0.057343499999998215
1505,1705.0,-0.05579649999999958
1506,1706.0,-0.05430600000000041
1507,1707.0,-0.052868499999998875
1508,1708.0,-0.051482499999998765
1509,1709.0,-0.05014549999999929
1510,1710.0,-0.04885550000000194
1511,1711.0,-0.04761050000000111
1512,1712.0,-0.04640750000000082
1513,1713.0,-0.04524550000000005
1514,1714.0,-0.04412349999999776
1515,1715.0,-0.04303900000000027
1516,1716.0,-0.04199000000000197
1517,1717.0,-0.04097549999999828
1518,1718.0,-0.03999449999999882
1519,1719.0,-0.03904550000000029
1520,1720.0,-0.03812650000000062
1521,1721.0,-0.03723600000000005
1522,1722.0,-0.036374500000000864
1523,1723.0,-0.035540000000001015
1524,1724.0,-0.03473099999999718
1525,1725.0,-0.03394750000000002
1526,1726.0,-0.03318750000000037
1527,1727.0,-0.032450000000000756
1528,1728.0,-0.03173549999999992
1529,1729.0,-0.031041999999999348
1530,1730.0,-0.030369000000000312
1531,1731.0,-0.02971600000000052
1532,1732.0,-0.029081500000000204
1533,1733.0,-0.028465499999999366
1534,1734.0,-0.027867499999999268
1535,1735.0,-0.02728649999999888
1536,1736.0,-0.02672200000000302
1537,1737.0,-0.026173000000000002
1538,1738.0,-0.02563899999999819
1539,1739.0,-0.02512049999999988
1540,1740.0,-0.024616000000001748
1541,1741.0,-0.024125000000001506
1542,1742.0,-0.023647499999999155
1543,1743.0,-0.023182500000000772
1544,1744.0,-0.02273049999999799
1545,1745.0,-0.022290500000000435
1546,1746.0,-0.02186100000000124
1547,1747.0,-0.021443499999996618
1548,1748.0,-0.021037499999998488
1549,1749.0,-0.02064100000000124
1550,1750.0,-0.020254500000000064
1551,1751.0,-0.0198785000000008
1552,1752.0,-0.019512000000002416
1553,1753.0,-0.019154000000000337
1554,1754.0,-0.018805499999999142
1555,1755.0,-0.018465499999997803
1556,1756.0,-0.018133999999999872
1557,1757.0,-0.01781050000000306
1558,1758.0,-0.017494500000001523
1559,1759.0,-0.01718649999999755
1560,1760.0,-0.016885999999999513
1561,1761.0,-0.016592500000001564
1562,1762.0,-0.016305499999997863
1563,1763.0,-0.016026000000000096
1564,1764.0,-0.015753000000000128
1565,1765.0,-0.015485999999999223
1566,1766.0,-0.015225000000000932
1567,1767.0,-0.014970000000001704
1568,1768.0,-0.014721000000001538
1569,1769.0,-0.014477999999996882
1570,1770.0,-0.014239999999997366
1571,1771.0,-0.014007500000001727
1572,1772.0,-0.01378050000000286
1573,1773.0,-0.013557999999999737
1574,1774.0,-0.013340499999998201
1575,1775.0,-0.013127999999998252
1576,1776.0,-0.012920000000001153
1577,1777.0,-0.01271600000000106
1578,1778.0,-0.012516999999999001
1579,1779.0,-0.012322499999999792
1580,1780.0,-0.012131499999998852
1581,1781.0,-0.01194500000000076
1582,1782.0,-0.011762000000000938
1583,1783.0,-0.011583000000001675
1584,1784.0,-0.011407999999999419
1585,1785.0,-0.011236499999998983
1586,1786.0,-0.01106850000000037
1587,1787.0,-0.010903499999997734
1588,1788.0,-0.010742000000000473
1589,1789.0,-0.010584000000001481
1590,1790.0,-0.010429500000000758
1591,1791.0,-0.010277999999999565
1592,1792.0,-0.010128999999999166
1593,1793.0,-0.009983000000001852
1594,1794.0,-0.009840499999999253
1595,1795.0,-0.009700499999997447
1596,1796.0,-0.00956250000000125
1597,1797.0,-0.00942799999999977
1598,1798.0,-0.009295999999999083
1599,1799.0,-0.009166500000002742
1600,1800.0,-0.009039500000000089
1601,1801.0,-0.008914499999999492
1602,1802.0,-0.00879250000000198
1603,1803.0,-0.00867200000000068
1604,1804.0,-0.00855399999999662
1605,1805.0,-0.008438999999999197
1606,1806.0,-0.00832550000000154
1607,1807.0,-0.008213999999998833
1608,1808.0,-0.008105000000000473
1609,1809.0,-0.007997500000001878
1610,1810.0,-0.007891999999998234
1611,1811.0,-0.007788500000000198
1612,1812.0,-0.0076870000000006655
1613,1813.0,-0.007587499999999636
1614,1814.0,-0.007489500000001925
1615,1815.0,-0.007393000000000427
1616,1816.0,-0.007297999999998694
1617,1817.0,-0.007205499999997755
1618,1818.0,-0.007114500000000135
1619,1819.0,-0.007024499999999989
1620,1820.0,-0.006936499999998347
1621,1821.0,-0.006849500000001285
1622,1822.0,-0.006764500000002727
1623,1823.0,-0.006681000000000381
1624,1824.0,-0.0065984999999990634
1625,1825.0,-0.006517999999999802
1626,1826.0,-0.006438500000001568
1627,1827.0,-0.0063600000000008095
1628,1828.0,-0.0062829999999998165
1629,1829.0,-0.006207499999998589
1630,1830.0,-0.006133499999997127
1631,1831.0,-0.006060500000000246
1632,1832.0,-0.00598850000000084
1633,1833.0,-0.00591749999999891
1634,1834.0,-0.005848000000000297
1635,1835.0,-0.00577949999999916
1636,1836.0,-0.005711999999999051
1637,1837.0,-0.00564600000000226
1638,1838.0,-0.005580500000000654
1639,1839.0,-0.005516499999998814
1640,1840.0,-0.005453500000001554
1641,1841.0,-0.0053909999999994795
1642,1842.0,-0.005330000000000723
1643,1843.0,-0.005269999999999442
1644,1844.0,-0.005210499999996898
1645,1845.0,-0.005152000000002488
1646,1846.0,-0.005094500000002
1647,1847.0,-0.005037999999998988
1648,1848.0,-0.004981999999998266
1649,1849.0,-0.004926999999998571
1650,1850.0,-0.0048735000000021955
1651,1851.0,-0.0048205000000010045
1652,1852.0,-0.0047674999999998136
1653,1853.0,-0.004716000000001941
1654,1854.0,-0.004665499999997991
1655,1855.0,-0.004614999999997593
1656,1856.0,-0.0045655000000017765
1657,1857.0,-0.004516999999999882
1658,1858.0,-0.004469000000000278
1659,1859.0,-0.004422000000001702
1660,1860.0,-0.004375499999998311
1661,1861.0,-0.004329500000000763
1662,1862.0,-0.004284000000001953
1663,1863.0,-0.004239499999997065
1664,1864.0,-0.004196000000000311
1665,1865.0,-0.004152500000000003
1666,1866.0,-0.0041099999999971715
1667,1867.0,-0.004068000000000183
1668,1868.0,-0.004026500000001931
1669,1869.0,-0.003985500000002418
1670,1870.0,-0.003944999999998089
1671,1871.0,-0.003905499999998341
1672,1872.0,-0.003866500000000883
1673,1873.0,-0.0038274999999998727
1674,1874.0,-0.00378949999999989
1675,1875.0,-0.003752000000002198
1676,1876.0,-0.003714500000000953
1677,1877.0,-0.003678499999999474
1678,1878.0,-0.0036424999999979946
1679,1879.0,-0.003606500000000068
1680,1880.0,-0.0035715000000031694
1681,1881.0,-0.003536999999997903
1682,1882.0,-0.0035029999999984796
1683,1883.0,-0.003469000000002609
1684,1884.0,-0.0034354999999983704
1685,1885.0,-0.0034029999999987126
1686,1886.0,-0.0033705000000026075
1687,1887.0,-0.0033384999999981346
1688,1888.0,-0.0033074999999982424
1689,1889.0,-0.0032760000000031653
1690,1890.0,-0.0032449999999997203
1691,1891.0,-0.0032149999999973033
1692,1892.0,-0.003185000000001992
1693,1893.0,-0.003155500000001865
1694,1894.0,-0.003126500000000476
1695,1895.0,-0.003097499999999087
1696,1896.0,-0.0030689999999999884
1697,1897.0,-0.0030409999999996273
1698,1898.0,-0.003013499999998004
1699,1899.0,-0.002985999999999933
1700,1900.0,-0.0029590000000006
1701,1901.0,-0.0029325000000000045
1702,1902.0,-0.002905999999999409
1703,1903.0,-0.002880000000001104
1704,1904.0,-0.002853999999999246
1705,1905.0,-0.0028284999999996785
1706,1906.0,-0.002804000000001139
1707,1907.0,-0.002779000000000309
1708,1908.0,-0.0027545000000017694
1709,1909.0,-0.0027304999999984148
1710,1910.0,-0.002706499999998613
1711,1911.0,-0.002683000000001101
1712,1912.0,-0.0026599999999987745
1713,1913.0,-0.0026370000000000005
1714,1914.0,-0.0026140000000012265
1715,1915.0,-0.00259150000000119
1716,1916.0,-0.0025690000000011537
1717,1917.0,-0.0025474999999985926
1718,1918.0,-0.002525999999999584
1719,1919.0,-0.002504000000001838
1720,1920.0,-0.0024829999999980146
1721,1921.0,-0.002462500000000034
1722,1922.0,-0.0024414999999997633
1723,1923.0,-0.00242099999999823
1724,1924.0,-0.00240100000000254
1725,1925.0,-0.002381499999998482
1726,1926.0,-0.002361499999999239
1727,1927.0,-0.0023414999999999964
1728,1928.0,-0.0023224999999982288
1729,1929.0,-0.002303500000000014
1730,1930.0,-0.002284500000001799
1731,1931.0,-0.0022660000000023217
1732,1932.0,-0.0022479999999980294
1733,1933.0,-0.002229499999998552
1734,1934.0,-0.002211500000001365
1735,1935.0,-0.0021935000000006255
1736,1936.0,-0.0021759999999986235
1737,1937.0,-0.002158999999998912
1738,1938.0,-0.002141000000001725
1739,1939.0,-0.002124000000002013
1740,1940.0,-0.002107500000001039
1741,1941.0,-0.002091000000000065
1742,1942.0,-0.002074499999999091
1743,1943.0,-0.002057999999998117
1744,1944.0,-0.002041999999999433
1745,1945.0,-0.002026499999999487
1746,1946.0,-0.0020105000000008033
1747,1947.0,-0.0019945000000021196
1748,1948.0,-0.001979500000000911
1749,1949.0,-0.001964000000000965
1750,1950.0,-0.0019489999999997565
1751,1951.0,-0.001933999999998548
1752,1952.0,-0.0019189999999973395
1753,1953.0,-0.0019050000000007117
1754,1954.0,-0.0018905000000017935
1755,1955.0,-0.0018759999999993227
1756,1956.0,-0.0018615000000004045
1757,1957.0,-0.001847500000000224
1758,1958.0,-0.001833999999998781
1759,1959.0,-0.0018199999999986005
1760,1960.0,-0.0018065000000007103
1761,1961.0,-0.0017935000000015577
1762,1962.0,-0.0017800000000001148
1763,1963.0,-0.001766499999998672
1764,1964.0,-0.0017534999999995193
1765,1965.0,-0.0017409999999991044
1766,1966.0,-0.0017279999999999518
1767,1967.0,-0.0017150000000007992
1768,1968.0,-0.0017029999999991219
1769,1969.0,-0.0016910000000009973
1770,1970.0,-0.0016785000000005823
1771,1971.0,-0.0016660000000001673
1772,1972.0,-0.0016540000000020427
1773,1973.0,-0.0016420000000003654
1774,1974.0,-0.0016304999999974257
1775,1975.0,-0.0016189999999980387
1776,1976.0,-0.0016075000000022044
1777,1977.0,-0.0015960000000028174
1778,1978.0,-0.0015844999999998777
1779,1979.0,-0.0015734999999992283
1780,1980.0,-0.001562499999998579
1781,1981.0,-0.0015514999999979295
1782,1982.0,-0.0015405000000008329
1783,1983.0,-0.0015295000000001835
1784,1984.0,-0.0015189999999982717
1785,1985.0,-0.0015084999999999127
1786,1986.0,-0.0014980000000015536
1787,1987.0,-0.0014880000000019322
1788,1988.0,-0.0014775000000000205
1789,1989.0,-0.001467500000000399
1790,1990.0,-0.0014575000000007776
1791,1991.0,-0.0014469999999988659
1792,1992.0,-0.001437499999997982
1793,1993.0,-0.001428000000000651
1794,1994.0,-0.0014180000000010295
1795,1995.0,-0.0014079999999978554
1796,1996.0,-0.001398999999999262
1797,1997.0,-0.0013900000000006685
1798,1998.0,-0.001380000000001047
1799,1999.0,-0.0013710000000024536
1800,2000.0,-0.0013670000000018945
