raman_shift_cm-1,intensity
200.0000,16.136915
201.0000,6.057316
202.0000,-1.284927
203.0000,2.185284
204.0000,-0.111954
205.0000,4.898662
206.0000,-4.875613
207.0000,2.571262
208.0000,-4.302584
209.0000,-3.032661
210.0000,-1.837017
211.0000,1.061360
212.0000,-7.753314
213.0000,1.881824
214.0000,5.637994
215.0000,-3.733036
216.0000,18.462171
217.0000,9.347032
218.0000,-2.529703
219.0000,-5.269469
220.0000,-0.681754
221.0000,2.021320
222.0000,-0.345802
223.0000,0.877258
224.0000,-12.493753
225.0000,-7.913136
226.0000,-3.581650
227.0000,-4.130541
228.0000,-5.831107
229.0000,5.256601
230.0000,-6.102985
231.0000,-0.930675
232.0000,-1.164140
233.0000,6.127308
234.0000,-0.216868
235.0000,-4.244491
236.0000,-3.406672
237.0000,12.105584
238.0000,-0.174796
239.0000,-1.323674
240.0000,1.485315
241.0000,-0.411094
242.0000,1.969313
243.0000,14.355823
244.0000,0.727670
245.0000,4.103396
246.0000,-4.837048
247.0000,3.932414
248.0000,-11.819570
249.0000,7.735553
250.0000,0.123539
251.0000,-2.140827
252.0000,-5.838154
253.0000,-1.764861
254.0000,-3.552650
255.0000,3.700749
256.0000,-1.069492
257.0000,-1.656477
258.0000,1.981140
259.0000,-7.371957
260.0000,-5.784761
261.0000,-7.168289
262.0000,-1.034483
263.0000,0.464029
264.0000,4.253037
265.0000,1.289673
266.0000,-4.234068
267.0000,-0.928302
268.0000,0.763435
269.0000,-4.665169
270.0000,-2.183876
271.0000,-3.429781
272.0000,-1.084295
273.0000,-1.758404
274.0000,-1.278650
275.0000,2.615639
276.0000,2.850881
277.0000,4.288321
278.0000,-3.227089
279.0000,-6.388932
280.0000,4.484887
281.0000,3.586102
282.0000,-1.604176
283.0000,-7.095677
284.0000,7.359151
285.0000,6.107417
286.0000,3.534952
287.0000,3.566038
288.0000,-17.148050
289.0000,-2.542450
290.0000,0.096966
291.0000,-0.816299
292.0000,1.581011
293.0000,-7.340896
294.0000,-3.118697
295.0000,-4.541575
296.0000,-6.736730
297.0000,-7.177704
298.0000,-2.154592
299.0000,-4.334746
300.0000,0.799627
301.0000,-1.486893
302.0000,3.202901
303.0000,-5.047994
304.0000,-2.841986
305.0000,2.499463
306.0000,-8.489019
307.0000,-7.198023
308.0000,-5.299780
309.0000,-4.662621
310.0000,9.588637
311.0000,-0.329071
312.0000,-2.871525
313.0000,-6.051194
314.0000,-4.357192
315.0000,-3.387175
316.0000,-4.679609
317.0000,1.503115
318.0000,-2.171474
319.0000,-1.160653
320.0000,-5.053725
321.0000,4.849179
322.0000,-6.441391
323.0000,-0.565312
324.0000,10.802766
325.0000,2.943891
326.0000,-3.901599
327.0000,-2.497221
328.0000,3.171299
329.0000,2.398571
330.0000,4.867367
331.0000,-3.598447
332.0000,-2.436692
333.0000,11.365045
334.0000,-5.975767
335.0000,2.685761
336.0000,-2.082824
337.0000,2.693166
338.0000,6.917104
339.0000,-3.012573
340.0000,3.743986
341.0000,-7.289878
342.0000,-1.337689
343.0000,9.451496
344.0000,-5.726673
345.0000,2.595594
346.0000,-5.033940
347.0000,6.158634
348.0000,7.590066
349.0000,-0.937191
350.0000,-3.272562
351.0000,3.953807
352.0000,-0.172128
353.0000,6.085572
354.0000,8.485993
355.0000,-0.452837
356.0000,5.284964
357.0000,3.487310
358.0000,6.616927
359.0000,7.900366
360.0000,-5.046204
361.0000,0.854386
362.0000,3.408270
363.0000,9.372116
364.0000,-8.962711
365.0000,-2.298718
366.0000,3.954904
367.0000,2.463513
368.0000,-0.246111
369.0000,4.579035
370.0000,16.630470
371.0000,11.164448
372.0000,-0.733479
373.0000,4.093898
374.0000,10.496920
375.0000,4.842991
376.0000,2.037504
377.0000,-3.497017
378.0000,5.230536
379.0000,2.840358
380.0000,-6.922054
381.0000,-3.749863
382.0000,-2.710565
383.0000,-6.792406
384.0000,-11.514139
385.0000,-0.900087
386.0000,-6.410021
387.0000,-1.148354
388.0000,-1.172005
389.0000,8.892895
390.0000,-11.258860
391.0000,-3.735091
392.0000,11.563593
393.0000,3.818619
394.0000,-4.219293
395.0000,0.482455
396.0000,2.719981
397.0000,0.392363
398.0000,1.309509
399.0000,-3.763143
400.0000,-8.628292
401.0000,-5.340117
402.0000,-12.785886
403.0000,0.565612
404.0000,1.351638
405.0000,0.197928
406.0000,-5.540464
407.0000,4.348510
408.0000,0.259030
409.0000,4.724258
410.0000,2.571258
411.0000,-2.214595
412.0000,9.636157
413.0000,8.532554
414.0000,9.028729
415.0000,14.936144
416.0000,6.261953
417.0000,11.216703
418.0000,-0.587147
419.0000,4.447498
420.0000,1.621634
421.0000,-8.648821
422.0000,-7.686204
423.0000,-10.623639
424.0000,10.819043
425.0000,-1.573257
426.0000,-7.164572
427.0000,-0.160724
428.0000,10.559368
429.0000,0.914427
430.0000,2.671551
431.0000,0.334255
432.0000,-8.401727
433.0000,6.601695
434.0000,1.573422
435.0000,8.923128
436.0000,-2.606624
437.0000,4.328954
438.0000,9.616064
439.0000,0.287865
440.0000,10.200844
441.0000,-9.151566
442.0000,2.687731
443.0000,3.524306
444.0000,5.383856
445.0000,-8.088995
446.0000,-3.444089
447.0000,5.818600
448.0000,-2.390830
449.0000,4.184550
450.0000,-3.142907
451.0000,8.959123
452.0000,1.449591
453.0000,-0.726995
454.0000,-12.789102
455.0000,8.005549
456.0000,-0.898547
457.0000,-9.006102
458.0000,-7.000439
459.0000,3.859286
460.0000,-0.558391
461.0000,1.664637
462.0000,-9.630250
463.0000,6.708290
464.0000,-2.853047
465.0000,-9.406746
466.0000,-13.272251
467.0000,-3.318529
468.0000,5.950080
469.0000,3.718886
470.0000,1.527514
471.0000,-3.559052
472.0000,-4.640788
473.0000,-0.052145
474.0000,-2.124570
475.0000,11.975458
476.0000,0.983844
477.0000,0.182251
478.0000,2.655325
479.0000,1.911926
480.0000,-5.028284
481.0000,-7.346502
482.0000,3.383704
483.0000,-3.806647
484.0000,-2.229494
485.0000,-2.206465
486.0000,5.275662
487.0000,-3.686676
488.0000,-9.963995
489.0000,-7.695393
490.0000,-0.667589
491.0000,11.140238
492.0000,-10.125924
493.0000,6.857517
494.0000,5.722683
495.0000,-2.749505
496.0000,-7.678048
497.0000,9.275746
498.0000,1.548532
499.0000,3.383967
500.0000,2.608406
501.0000,10.844461
502.0000,2.952803
503.0000,1.191242
504.0000,0.111871
505.0000,0.414554
506.0000,2.422366
507.0000,6.938376
508.0000,11.255243
509.0000,-4.979032
510.0000,1.642541
511.0000,-0.424071
512.0000,4.160972
513.0000,6.677921
514.0000,6.358629
515.0000,-4.053894
516.0000,7.993157
517.0000,0.069836
518.0000,-1.866134
519.0000,6.964527
520.0000,4.115164
521.0000,-2.319327
522.0000,0.801362
523.0000,4.688236
524.0000,3.055038
525.0000,2.784227
526.0000,13.778135
527.0000,5.539874
528.0000,5.597677
529.0000,-7.511237
530.0000,8.162044
531.0000,-3.787239
532.0000,-1.034992
533.0000,8.196190
534.0000,4.264819
535.0000,8.535434
536.0000,3.519325
537.0000,-0.770294
538.0000,-4.336254
539.0000,-4.059787
540.0000,0.673094
541.0000,2.346149
542.0000,3.701075
543.0000,-3.053232
544.0000,14.179914
545.0000,0.332741
546.0000,-1.169485
547.0000,1.067506
548.0000,11.654732
549.0000,-5.345925
550.0000,-4.398188
551.0000,3.751435
552.0000,4.629264
553.0000,4.411031
554.0000,-4.554473
555.0000,-0.561159
556.0000,15.005309
557.0000,0.210279
558.0000,9.781209
559.0000,-4.352883
560.0000,10.608176
561.0000,7.025441
562.0000,11.025052
563.0000,12.603387
564.0000,10.728855
565.0000,1.039670
566.0000,4.216559
567.0000,4.746204
568.0000,10.802325
569.0000,9.188616
570.0000,0.778825
571.0000,12.936014
572.0000,3.354549
573.0000,13.217106
574.0000,16.545783
575.0000,0.682871
576.0000,12.062076
577.0000,3.117789
578.0000,14.746162
579.0000,10.615431
580.0000,11.482265
581.0000,6.950882
582.0000,11.723418
583.0000,10.923049
584.0000,16.052076
585.0000,22.365276
586.0000,22.274890
587.0000,22.513171
588.0000,36.729315
589.0000,46.681244
590.0000,40.653076
591.0000,40.962293
592.0000,55.289088
593.0000,69.723756
594.0000,83.053178
595.0000,103.458502
596.0000,135.524008
597.0000,139.755334
598.0000,173.604618
599.0000,208.678469
600.0000,245.220851
601.0000,230.904283
602.0000,235.065951
603.0000,212.830465
604.0000,177.891767
605.0000,139.847154
606.0000,124.415457
607.0000,106.887873
608.0000,87.334847
609.0000,76.154719
610.0000,60.310205
611.0000,39.028046
612.0000,42.987601
613.0000,30.611343
614.0000,34.609688
615.0000,35.439684
616.0000,21.441042
617.0000,24.589199
618.0000,30.323532
619.0000,18.884481
620.0000,16.242565
621.0000,21.530384
622.0000,9.074689
623.0000,13.484729
624.0000,16.663140
625.0000,10.576986
626.0000,19.363789
627.0000,8.026980
628.0000,2.986520
629.0000,-6.311167
630.0000,5.650993
631.0000,10.924430
632.0000,11.371900
633.0000,7.509092
634.0000,11.323799
635.0000,2.326228
636.0000,2.422542
637.0000,3.677791
638.0000,9.910399
639.0000,1.807553
640.0000,20.085671
641.0000,-3.825258
642.0000,19.872370
643.0000,11.495490
644.0000,3.099355
645.0000,14.455767
646.0000,0.674980
647.0000,3.287860
648.0000,-5.914299
649.0000,6.396233
650.0000,-2.012108
651.0000,-1.072887
652.0000,0.702792
653.0000,-3.100543
654.0000,-3.127953
655.0000,7.444857
656.0000,-3.003318
657.0000,-2.298531
658.0000,8.936268
659.0000,-0.831200
660.0000,3.947488
661.0000,-3.467903
662.0000,4.567061
663.0000,11.864455
664.0000,8.807601
665.0000,12.376243
666.0000,-2.136529
667.0000,2.596567
668.0000,13.522183
669.0000,-2.809176
670.0000,6.327591
671.0000,-3.603506
672.0000,4.516880
673.0000,1.324295
674.0000,-0.916343
675.0000,4.177050
676.0000,-3.811678
677.0000,-2.034259
678.0000,3.714455
679.0000,-3.308373
680.0000,-0.831918
681.0000,-0.784027
682.0000,-1.063306
683.0000,11.790703
684.0000,5.172352
685.0000,4.648956
686.0000,-6.969299
687.0000,6.282600
688.0000,-11.096706
689.0000,0.123425
690.0000,4.962206
691.0000,3.008972
692.0000,0.390535
693.0000,5.840879
694.0000,-4.141070
695.0000,-3.065148
696.0000,4.732811
697.0000,-2.651573
698.0000,2.324156
699.0000,-0.983013
700.0000,11.038363
701.0000,11.387607
702.0000,1.951079
703.0000,5.338121
704.0000,9.321152
705.0000,7.795907
706.0000,-4.282111
707.0000,2.966904
708.0000,14.265905
709.0000,4.288487
710.0000,-4.146644
711.0000,6.088470
712.0000,10.898601
713.0000,-3.682765
714.0000,0.745014
715.0000,14.446873
716.0000,0.102311
717.0000,-0.040804
718.0000,0.006745
719.0000,7.551316
720.0000,1.495786
721.0000,2.635618
722.0000,2.583542
723.0000,4.342960
724.0000,-4.585946
725.0000,0.298162
726.0000,-1.267313
727.0000,5.282508
728.0000,12.737988
729.0000,-1.184056
730.0000,-0.182142
731.0000,2.229706
732.0000,10.374433
733.0000,8.624431
734.0000,2.291771
735.0000,8.151127
736.0000,5.381241
737.0000,3.969676
738.0000,11.318412
739.0000,4.034381
740.0000,9.133374
741.0000,3.150720
742.0000,-3.584676
743.0000,3.779305
744.0000,6.210192
745.0000,8.806975
746.0000,9.779086
747.0000,4.485043
748.0000,2.342944
749.0000,7.676194
750.0000,3.022796
751.0000,5.147301
752.0000,5.050436
753.0000,7.776559
754.0000,-3.871954
755.0000,9.712986
756.0000,12.755675
757.0000,25.959331
758.0000,2.767650
759.0000,12.968216
760.0000,11.124676
761.0000,4.557642
762.0000,11.671300
763.0000,7.033280
764.0000,-2.563208
765.0000,5.601515
766.0000,15.739303
767.0000,4.154055
768.0000,11.012578
769.0000,16.770753
770.0000,20.127437
771.0000,13.657317
772.0000,22.615423
773.0000,15.950045
774.0000,19.313948
775.0000,7.640428
776.0000,24.653832
777.0000,23.904489
778.0000,21.114629
779.0000,22.242895
780.0000,23.223830
781.0000,26.547886
782.0000,18.675192
783.0000,24.656418
784.0000,34.571793
785.0000,16.638394
786.0000,31.338773
787.0000,29.952011
788.0000,28.270804
789.0000,48.096809
790.0000,38.216194
791.0000,37.621906
792.0000,50.616747
793.0000,53.763816
794.0000,63.144077
795.0000,71.616241
796.0000,78.478316
797.0000,71.893892
798.0000,80.440842
799.0000,112.321485
800.0000,127.144680
801.0000,139.604707
802.0000,183.160388
803.0000,200.032561
804.0000,241.438639
805.0000,284.954028
806.0000,365.542154
807.0000,443.172757
808.0000,565.778118
809.0000,701.097068
810.0000,831.805781
811.0000,962.062875
812.0000,1008.557797
813.0000,952.253636
814.0000,830.706137
815.0000,692.469296
816.0000,560.766201
817.0000,445.612696
818.0000,362.633964
819.0000,289.194851
820.0000,242.180654
821.0000,205.537514
822.0000,172.024475
823.0000,148.911631
824.0000,123.394637
825.0000,107.860383
826.0000,95.865701
827.0000,77.722110
828.0000,71.459305
829.0000,54.572488
830.0000,52.756696
831.0000,40.933796
832.0000,64.348293
833.0000,51.658694
834.0000,43.154251
835.0000,47.978526
836.0000,33.584329
837.0000,34.404837
838.0000,39.553160
839.0000,31.602430
840.0000,21.849540
841.0000,29.245942
842.0000,23.490402
843.0000,19.011463
844.0000,22.451156
845.0000,12.459084
846.0000,17.250172
847.0000,11.133604
848.0000,8.396742
849.0000,17.344484
850.0000,25.978344
851.0000,0.344104
852.0000,12.866076
853.0000,7.846707
854.0000,13.125598
855.0000,4.578888
856.0000,9.844462
857.0000,17.518212
858.0000,6.613810
859.0000,15.353139
860.0000,12.828607
861.0000,11.982050
862.0000,13.235270
863.0000,17.226845
864.0000,6.058671
865.0000,17.029044
866.0000,23.797949
867.0000,9.910448
868.0000,17.584921
869.0000,6.379190
870.0000,-3.181201
871.0000,8.273207
872.0000,2.445646
873.0000,4.906474
874.0000,15.248884
875.0000,3.132794
876.0000,9.594822
877.0000,13.244586
878.0000,4.285266
879.0000,16.927138
880.0000,3.795971
881.0000,-1.204825
882.0000,5.675694
883.0000,8.071119
884.0000,7.399907
885.0000,4.107890
886.0000,7.256802
887.0000,0.906783
888.0000,2.073417
889.0000,1.189148
890.0000,14.351898
891.0000,1.630170
892.0000,7.917675
893.0000,4.875204
894.0000,-2.169879
895.0000,-0.058627
896.0000,2.312870
897.0000,1.628366
898.0000,12.804687
899.0000,-13.540959
900.0000,11.522656
901.0000,-6.485484
902.0000,13.143843
903.0000,12.058535
904.0000,1.197208
905.0000,0.422434
906.0000,1.878653
907.0000,13.497054
908.0000,14.873071
909.0000,8.400881
910.0000,6.361252
911.0000,9.018530
912.0000,1.301689
913.0000,12.235946
914.0000,3.785877
915.0000,-5.324450
916.0000,5.822815
917.0000,6.754502
918.0000,-4.767484
919.0000,17.472225
920.0000,-2.298216
921.0000,12.368122
922.0000,9.888565
923.0000,5.405887
924.0000,18.174971
925.0000,11.904658
926.0000,4.393724
927.0000,1.774685
928.0000,13.933600
929.0000,9.269855
930.0000,10.731832
931.0000,7.558843
932.0000,9.000444
933.0000,12.108463
934.0000,21.973502
935.0000,4.635448
936.0000,3.330305
937.0000,4.214267
938.0000,14.874932
939.0000,12.131998
940.0000,12.066431
941.0000,3.388696
942.0000,17.647143
943.0000,20.415938
944.0000,15.799201
945.0000,8.727462
946.0000,14.443963
947.0000,15.755514
948.0000,15.285709
949.0000,26.951003
950.0000,27.259168
951.0000,46.164970
952.0000,36.026420
953.0000,36.361868
954.0000,51.084998
955.0000,50.585949
956.0000,53.449521
957.0000,79.332263
958.0000,85.403984
959.0000,95.310514
960.0000,124.039305
961.0000,153.339089
962.0000,196.714006
963.0000,221.342780
964.0000,259.601114
965.0000,283.934934
966.0000,299.328950
967.0000,284.919218
968.0000,256.164246
969.0000,219.210776
970.0000,190.866334
971.0000,148.998651
972.0000,122.812816
973.0000,94.409596
974.0000,93.185922
975.0000,73.907793
976.0000,69.110878
977.0000,51.245302
978.0000,30.085718
979.0000,47.286848
980.0000,38.292786
981.0000,38.405288
982.0000,29.221078
983.0000,20.231316
984.0000,13.700524
985.0000,22.457887
986.0000,31.728862
987.0000,14.844102
988.0000,8.121812
989.0000,20.272551
990.0000,12.820390
991.0000,5.795482
992.0000,12.161101
993.0000,15.858895
994.0000,8.745394
995.0000,8.677733
996.0000,7.610924
997.0000,9.894656
998.0000,11.544318
999.0000,17.568211
1000.0000,9.045656
1001.0000,23.297099
1002.0000,8.489106
1003.0000,11.514302
1004.0000,2.692995
1005.0000,-4.387838
1006.0000,14.465982
1007.0000,12.349281
1008.0000,-0.966990
1009.0000,3.775772
1010.0000,-1.691929
1011.0000,5.096586
1012.0000,6.244167
1013.0000,6.988063
1014.0000,4.723726
1015.0000,13.153832
1016.0000,14.600683
1017.0000,6.785500
1018.0000,0.159210
1019.0000,3.307054
1020.0000,0.491906
1021.0000,8.740931
1022.0000,3.585991
1023.0000,6.508061
1024.0000,5.644885
1025.0000,11.725683
1026.0000,13.279355
1027.0000,7.530379
1028.0000,3.029506
1029.0000,2.363517
1030.0000,-9.440965
1031.0000,2.112938
1032.0000,4.203344
1033.0000,3.844429
1034.0000,-1.341975
1035.0000,9.157095
1036.0000,5.808134
1037.0000,6.035869
1038.0000,6.596445
1039.0000,-0.155609
1040.0000,6.040726
1041.0000,11.613146
1042.0000,9.071523
1043.0000,-4.292426
1044.0000,15.018683
1045.0000,-0.952894
1046.0000,-5.910236
1047.0000,11.660175
1048.0000,-4.953906
1049.0000,0.078449
1050.0000,9.810919
1051.0000,0.371966
1052.0000,-0.079190
1053.0000,5.380409
1054.0000,5.811010
1055.0000,9.142096
1056.0000,-0.867096
1057.0000,0.613411
1058.0000,10.559598
1059.0000,1.398224
1060.0000,2.777014
1061.0000,-2.080252
1062.0000,11.712109
1063.0000,6.441315
1064.0000,1.254663
1065.0000,5.845719
1066.0000,-5.606386
1067.0000,-1.465170
1068.0000,1.717995
1069.0000,5.612525
1070.0000,-0.292601
1071.0000,6.177046
1072.0000,7.322331
1073.0000,13.698167
1074.0000,6.502748
1075.0000,10.716058
1076.0000,10.515981
1077.0000,4.133737
1078.0000,8.037001
1079.0000,10.504517
1080.0000,5.630945
1081.0000,14.768376
1082.0000,4.668980
1083.0000,13.370210
1084.0000,16.215636
1085.0000,13.791200
1086.0000,20.424261
1087.0000,7.259267
1088.0000,-0.429572
1089.0000,6.677111
1090.0000,21.212859
1091.0000,6.402862
1092.0000,8.569366
1093.0000,16.329855
1094.0000,17.565253
1095.0000,12.961345
1096.0000,13.114993
1097.0000,13.967358
1098.0000,12.685394
1099.0000,10.666542
1100.0000,18.756012
1101.0000,31.098116
1102.0000,10.636109
1103.0000,29.740953
1104.0000,18.848496
1105.0000,15.891550
1106.0000,34.833960
1107.0000,48.929763
1108.0000,40.250877
1109.0000,45.627453
1110.0000,46.046994
1111.0000,65.565376
1112.0000,76.262686
1113.0000,75.615122
1114.0000,97.929847
1115.0000,113.757111
1116.0000,137.579070
1117.0000,150.450726
1118.0000,195.099661
1119.0000,214.416374
1120.0000,248.001682
1121.0000,277.163532
1122.0000,273.083762
1123.0000,267.621479
1124.0000,251.556710
1125.0000,215.576304
1126.0000,183.930652
1127.0000,144.228406
1128.0000,126.177986
1129.0000,105.928852
1130.0000,94.630498
1131.0000,76.025583
1132.0000,75.904797
1133.0000,54.047854
1134.0000,42.149463
1135.0000,63.844531
1136.0000,47.865590
1137.0000,43.040850
1138.0000,38.287246
1139.0000,27.924789
1140.0000,26.574630
1141.0000,23.881128
1142.0000,14.621381
1143.0000,23.933033
1144.0000,12.047496
1145.0000,15.399879
1146.0000,20.671210
1147.0000,18.446107
1148.0000,10.593316
1149.0000,31.893152
1150.0000,15.312714
1151.0000,1.202949
1152.0000,21.645243
1153.0000,16.625860
1154.0000,23.894996
1155.0000,13.096458
1156.0000,23.456884
1157.0000,29.675972
1158.0000,17.621259
1159.0000,6.978102
1160.0000,6.980785
1161.0000,16.804583
1162.0000,14.808607
1163.0000,21.530005
1164.0000,18.763962
1165.0000,21.593700
1166.0000,17.499586
1167.0000,32.452698
1168.0000,40.092328
1169.0000,42.923523
1170.0000,34.351156
1171.0000,33.605847
1172.0000,42.228394
1173.0000,38.871585
1174.0000,37.459506
1175.0000,57.090089
1176.0000,62.609945
1177.0000,69.917470
1178.0000,80.291417
1179.0000,99.144032
1180.0000,101.408250
1181.0000,136.898301
1182.0000,170.821746
1183.0000,191.938335
1184.0000,220.562502
1185.0000,263.064317
1186.0000,301.911345
1187.0000,330.398199
1188.0000,338.868370
1189.0000,333.132805
1190.0000,300.731247
1191.0000,255.157401
1192.0000,227.691478
1193.0000,194.479647
1194.0000,154.401847
1195.0000,136.098652
1196.0000,121.879437
1197.0000,100.708798
1198.0000,83.133356
1199.0000,64.787011
1200.0000,57.928754
1201.0000,40.889572
1202.0000,40.048509
1203.0000,29.623213
1204.0000,45.372151
1205.0000,33.619213
1206.0000,23.625407
1207.0000,18.592649
1208.0000,22.219694
1209.0000,34.570529
1210.0000,28.083040
1211.0000,17.676792
1212.0000,13.996143
1213.0000,3.947492
1214.0000,12.708016
1215.0000,12.546299
1216.0000,23.407632
1217.0000,13.427739
1218.0000,19.694753
1219.0000,10.750418
1220.0000,11.831855
1221.0000,10.936234
1222.0000,3.098246
1223.0000,8.971590
1224.0000,10.335795
1225.0000,14.057929
1226.0000,14.844694
1227.0000,13.579144
1228.0000,11.809084
1229.0000,2.311631
1230.0000,13.233176
1231.0000,1.354465
1232.0000,-0.098595
1233.0000,1.036033
1234.0000,12.281402
1235.0000,8.221682
1236.0000,0.876368
1237.0000,-1.425106
1238.0000,7.312811
1239.0000,5.939907
1240.0000,13.491561
1241.0000,13.501265
1242.0000,0.204069
1243.0000,10.463581
1244.0000,1.953787
1245.0000,14.707126
1246.0000,11.539088
1247.0000,0.618931
1248.0000,4.434473
1249.0000,13.685225
1250.0000,8.735594
1251.0000,-2.008512
1252.0000,0.581322
1253.0000,11.186493
1254.0000,-1.569169
1255.0000,14.783758
1256.0000,0.340114
1257.0000,3.730678
1258.0000,-0.209629
1259.0000,13.267029
1260.0000,7.546966
1261.0000,-1.412504
1262.0000,-2.549580
1263.0000,-4.484124
1264.0000,9.416744
1265.0000,0.662204
1266.0000,-3.594788
1267.0000,1.975632
1268.0000,-10.441091
1269.0000,0.454101
1270.0000,5.118623
1271.0000,1.165634
1272.0000,2.708294
1273.0000,7.263809
1274.0000,1.538251
1275.0000,3.565544
1276.0000,5.033485
1277.0000,2.126371
1278.0000,-2.752062
1279.0000,-0.394308
1280.0000,2.663912
1281.0000,0.859486
1282.0000,-1.294800
1283.0000,3.989772
1284.0000,9.094122
1285.0000,13.141042
1286.0000,0.592285
1287.0000,9.967813
1288.0000,-1.520482
1289.0000,11.629240
1290.0000,2.990790
1291.0000,7.997286
1292.0000,5.891454
1293.0000,-6.014643
1294.0000,2.662214
1295.0000,-2.328271
1296.0000,5.099405
1297.0000,1.922932
1298.0000,-0.059120
1299.0000,-3.519208
1300.0000,-0.637462
1301.0000,10.258340
1302.0000,4.932760
1303.0000,16.415098
1304.0000,2.259375
1305.0000,5.859088
1306.0000,-2.961708
1307.0000,3.605564
1308.0000,7.137563
1309.0000,-1.366106
1310.0000,7.443320
1311.0000,3.948866
1312.0000,7.366521
1313.0000,7.809720
1314.0000,8.384016
1315.0000,3.498290
1316.0000,6.182292
1317.0000,0.304935
1318.0000,1.661949
1319.0000,8.957638
1320.0000,10.834578
1321.0000,2.294534
1322.0000,-6.893470
1323.0000,6.053349
1324.0000,-4.677725
1325.0000,2.657854
1326.0000,8.657740
1327.0000,13.148614
1328.0000,-1.712982
1329.0000,-7.953247
1330.0000,3.370338
1331.0000,-5.206421
1332.0000,1.113305
1333.0000,9.424842
1334.0000,3.394803
1335.0000,11.521879
1336.0000,-5.577998
1337.0000,10.147413
1338.0000,7.526508
1339.0000,4.247432
1340.0000,-0.514449
1341.0000,7.317439
1342.0000,13.197094
1343.0000,8.685503
1344.0000,0.031626
1345.0000,-6.903484
1346.0000,1.621866
1347.0000,9.122701
1348.0000,2.607557
1349.0000,-3.920844
1350.0000,12.315696
1351.0000,4.223491
1352.0000,-1.459443
1353.0000,0.165429
1354.0000,4.874230
1355.0000,9.442611
1356.0000,4.146057
1357.0000,10.587182
1358.0000,5.200497
1359.0000,11.242468
1360.0000,12.830660
1361.0000,12.655902
1362.0000,8.005826
1363.0000,5.422090
1364.0000,7.290418
1365.0000,0.785761
1366.0000,3.476103
1367.0000,12.765890
1368.0000,3.665331
1369.0000,20.386540
1370.0000,7.424939
1371.0000,-4.928807
1372.0000,2.023268
1373.0000,12.762464
1374.0000,7.287948
1375.0000,3.098388
1376.0000,0.422707
1377.0000,2.660403
1378.0000,7.914011
1379.0000,9.582688
1380.0000,11.038193
1381.0000,7.295519
1382.0000,8.738437
1383.0000,-4.441488
1384.0000,7.694844
1385.0000,13.217722
1386.0000,9.639016
1387.0000,5.821948
1388.0000,6.675160
1389.0000,7.094904
1390.0000,16.297037
1391.0000,2.347651
1392.0000,13.590570
1393.0000,5.505841
1394.0000,11.032847
1395.0000,3.736638
1396.0000,-1.537344
1397.0000,11.823186
1398.0000,24.506027
1399.0000,28.513696
1400.0000,10.784821
1401.0000,16.986505
1402.0000,10.890553
1403.0000,-0.458658
1404.0000,6.057902
1405.0000,3.456680
1406.0000,18.098237
1407.0000,9.445863
1408.0000,18.042483
1409.0000,18.766069
1410.0000,17.757826
1411.0000,19.608974
1412.0000,30.798381
1413.0000,23.726628
1414.0000,20.059821
1415.0000,28.769397
1416.0000,30.729265
1417.0000,19.216203
1418.0000,10.975187
1419.0000,34.816517
1420.0000,31.157422
1421.0000,30.389529
1422.0000,30.887890
1423.0000,33.946493
1424.0000,41.998122
1425.0000,44.441434
1426.0000,51.110620
1427.0000,35.942697
1428.0000,51.857739
1429.0000,64.694148
1430.0000,67.378219
1431.0000,74.260748
1432.0000,80.089981
1433.0000,75.075624
1434.0000,98.388041
1435.0000,112.007647
1436.0000,130.163014
1437.0000,140.665401
1438.0000,164.203981
1439.0000,170.702250
1440.0000,195.863761
1441.0000,224.203427
1442.0000,271.019083
1443.0000,303.335374
1444.0000,337.930773
1445.0000,392.620593
1446.0000,449.247694
1447.0000,508.933641
1448.0000,553.573490
1449.0000,593.808210
1450.0000,601.371044
1451.0000,581.172056
1452.0000,564.341539
1453.0000,500.286527
1454.0000,459.863340
1455.0000,387.550894
1456.0000,338.047564
1457.0000,291.209541
1458.0000,264.351249
1459.0000,211.057358
1460.0000,203.097573
1461.0000,165.474320
1462.0000,162.224761
1463.0000,121.747902
1464.0000,112.599451
1465.0000,114.996203
1466.0000,95.942812
1467.0000,74.075454
1468.0000,75.338704
1469.0000,63.652524
1470.0000,60.515160
1471.0000,59.017248
1472.0000,40.487044
1473.0000,55.329600
1474.0000,36.290355
1475.0000,45.779731
1476.0000,45.745212
1477.0000,30.097998
1478.0000,32.482095
1479.0000,40.431833
1480.0000,28.864934
1481.0000,26.035994
1482.0000,22.609079
1483.0000,33.522223
1484.0000,31.623964
1485.0000,19.955483
1486.0000,26.122406
1487.0000,17.840236
1488.0000,24.647095
1489.0000,25.624738
1490.0000,15.003046
1491.0000,14.796298
1492.0000,12.760730
1493.0000,28.814590
1494.0000,13.081703
1495.0000,1.578702
1496.0000,14.131491
1497.0000,15.763627
1498.0000,-1.269635
1499.0000,9.458492
1500.0000,7.647384
1501.0000,16.993433
1502.0000,8.673771
1503.0000,9.578319
1504.0000,7.981204
1505.0000,11.604843
1506.0000,8.608255
1507.0000,13.128735
1508.0000,10.799414
1509.0000,5.214806
1510.0000,10.392953
1511.0000,7.216287
1512.0000,18.172310
1513.0000,8.786958
1514.0000,12.556036
1515.0000,20.110634
1516.0000,16.858199
1517.0000,-6.128927
1518.0000,9.055404
1519.0000,-2.422188
1520.0000,21.821215
1521.0000,13.274182
1522.0000,7.096523
1523.0000,3.202528
1524.0000,9.090897
1525.0000,0.030482
1526.0000,4.620720
1527.0000,2.163066
1528.0000,-5.444922
1529.0000,1.782376
1530.0000,4.829815
1531.0000,-1.572959
1532.0000,0.315822
1533.0000,7.658170
1534.0000,1.263935
1535.0000,10.475202
1536.0000,11.591105
1537.0000,2.854149
1538.0000,-4.130071
1539.0000,12.606820
1540.0000,9.781048
1541.0000,-1.451548
1542.0000,7.815794
1543.0000,-4.277165
1544.0000,4.450724
1545.0000,3.804896
1546.0000,5.134361
1547.0000,-0.364327
1548.0000,0.339692
1549.0000,8.932531
1550.0000,4.406159
1551.0000,-0.034189
1552.0000,4.749619
1553.0000,1.869493
1554.0000,1.869341
1555.0000,-1.149024
1556.0000,0.328537
1557.0000,5.760214
1558.0000,9.834722
1559.0000,5.391773
1560.0000,17.398037
1561.0000,4.932728
1562.0000,10.199992
1563.0000,4.028919
1564.0000,7.483245
1565.0000,-4.307908
1566.0000,0.651733
1567.0000,7.149067
1568.0000,-1.067109
1569.0000,0.251915
1570.0000,-1.626456
1571.0000,4.943526
1572.0000,2.725637
1573.0000,6.977854
1574.0000,-4.717413
1575.0000,2.984125
1576.0000,-2.167360
1577.0000,10.882515
1578.0000,9.655004
1579.0000,3.993883
1580.0000,6.087144
1581.0000,-2.446264
1582.0000,-3.362713
1583.0000,9.015333
1584.0000,7.810610
1585.0000,2.460130
1586.0000,-4.684701
1587.0000,0.660605
1588.0000,-0.092397
1589.0000,-5.224807
1590.0000,6.549893
1591.0000,10.322836
1592.0000,2.966609
1593.0000,1.042101
1594.0000,11.278695
1595.0000,-1.474428
1596.0000,9.503391
1597.0000,5.712101
1598.0000,0.586227
1599.0000,5.484403
1600.0000,-13.129626
1601.0000,4.464267
1602.0000,-2.284622
1603.0000,-3.091758
1604.0000,7.140412
1605.0000,2.010211
1606.0000,6.691795
1607.0000,3.078548
1608.0000,-3.355386
1609.0000,4.306725
1610.0000,2.632672
1611.0000,2.492910
1612.0000,1.369781
1613.0000,12.719284
1614.0000,0.707434
1615.0000,3.881259
1616.0000,-0.802073
1617.0000,13.592150
1618.0000,-2.238746
1619.0000,5.885556
1620.0000,1.504917
1621.0000,-3.754752
1622.0000,14.488067
1623.0000,-2.407836
1624.0000,-4.627367
1625.0000,13.227749
1626.0000,1.150057
1627.0000,2.583134
1628.0000,-2.406025
1629.0000,1.063303
1630.0000,-1.799912
1631.0000,4.199301
1632.0000,2.800247
1633.0000,3.821669
1634.0000,0.524959
1635.0000,2.963576
1636.0000,-0.538461
1637.0000,-3.337096
1638.0000,9.058221
1639.0000,5.393143
1640.0000,3.398659
1641.0000,-6.489472
1642.0000,6.382502
1643.0000,-3.846597
1644.0000,1.287706
1645.0000,2.378244
1646.0000,5.744750
1647.0000,2.465811
1648.0000,5.950765
1649.0000,-0.419479
1650.0000,-7.884688
1651.0000,-4.170786
1652.0000,5.374071
1653.0000,3.397288
1654.0000,3.613932
1655.0000,-1.216688
1656.0000,2.667193
1657.0000,3.823866
1658.0000,6.718980
1659.0000,9.117498
1660.0000,3.388598
1661.0000,1.449789
1662.0000,1.705165
1663.0000,13.807545
1664.0000,-0.038246
1665.0000,4.525102
1666.0000,14.122004
1667.0000,-4.674665
1668.0000,7.746236
1669.0000,10.553230
1670.0000,6.275350
1671.0000,12.240947
1672.0000,4.289830
1673.0000,8.832309
1674.0000,6.393724
1675.0000,-2.955551
1676.0000,7.671604
1677.0000,-0.535162
1678.0000,12.800128
1679.0000,18.007527
1680.0000,6.611583
1681.0000,13.523154
1682.0000,3.324636
1683.0000,17.596525
1684.0000,16.709442
1685.0000,3.723078
1686.0000,25.447856
1687.0000,10.911190
1688.0000,14.956817
1689.0000,30.461853
1690.0000,0.906371
1691.0000,19.994359
1692.0000,15.336974
1693.0000,13.113708
1694.0000,8.759893
1695.0000,11.396475
1696.0000,30.191578
1697.0000,19.834401
1698.0000,26.924472
1699.0000,25.317587
1700.0000,23.987481
1701.0000,23.322453
1702.0000,36.670717
1703.0000,37.593711
1704.0000,28.968554
1705.0000,39.194365
1706.0000,40.417884
1707.0000,30.031306
1708.0000,40.433966
1709.0000,46.338841
1710.0000,45.595071
1711.0000,56.390185
1712.0000,61.969343
1713.0000,67.823316
1714.0000,73.067135
1715.0000,98.271942
1716.0000,89.418996
1717.0000,110.502164
1718.0000,115.083758
1719.0000,123.574721
1720.0000,151.014366
1721.0000,175.611829
1722.0000,195.425001
1723.0000,224.017912
1724.0000,265.254928
1725.0000,293.988875
1726.0000,345.273118
1727.0000,400.452783
1728.0000,426.775811
1729.0000,452.444136
1730.0000,453.568181
1731.0000,455.766672
1732.0000,421.887062
1733.0000,386.607620
1734.0000,358.303057
1735.0000,296.976567
1736.0000,258.332116
1737.0000,231.452951
1738.0000,209.828995
1739.0000,170.177905
1740.0000,155.245127
1741.0000,128.935443
1742.0000,119.707649
1743.0000,96.251604
1744.0000,100.465145
1745.0000,78.074018
1746.0000,63.990274
1747.0000,66.065793
1748.0000,67.637865
1749.0000,50.337420
1750.0000,47.230040
1751.0000,55.277813
1752.0000,48.363906
1753.0000,27.859882
1754.0000,42.178908
1755.0000,30.140365
1756.0000,22.606466
1757.0000,30.060015
1758.0000,37.740663
1759.0000,24.455076
1760.0000,25.438895
1761.0000,25.091005
1762.0000,21.359856
1763.0000,26.430161
1764.0000,12.665694
1765.0000,19.265244
1766.0000,23.123938
1767.0000,18.014089
1768.0000,23.338219
1769.0000,21.230766
1770.0000,19.808783
1771.0000,29.711268
1772.0000,8.436550
1773.0000,1.049069
1774.0000,23.962004
1775.0000,8.048865
1776.0000,11.990136
1777.0000,8.810163
1778.0000,9.450096
1779.0000,6.723411
1780.0000,8.432935
1781.0000,7.562530
1782.0000,-2.170297
1783.0000,9.232404
1784.0000,-0.105788
1785.0000,12.164837
1786.0000,11.708345
1787.0000,-2.906499
1788.0000,17.852438
1789.0000,9.125851
1790.0000,9.872467
1791.0000,19.568265
1792.0000,5.214238
1793.0000,12.951461
1794.0000,10.749926
1795.0000,9.580125
1796.0000,1.943554
1797.0000,7.297205
1798.0000,7.183421
1799.0000,13.542002
1800.0000,10.458258
1801.0000,7.152223
1802.0000,2.993124
1803.0000,9.530211
1804.0000,4.382880
1805.0000,14.009756
1806.0000,8.683391
1807.0000,10.317580
1808.0000,-3.532960
1809.0000,9.755688
1810.0000,-0.634338
1811.0000,4.032258
1812.0000,-5.778906
1813.0000,9.044027
1814.0000,6.712815
1815.0000,1.361897
1816.0000,3.214876
1817.0000,10.301592
1818.0000,-0.398903
1819.0000,10.950173
1820.0000,6.654780
1821.0000,-7.887539
1822.0000,8.379767
1823.0000,-3.051360
1824.0000,0.031554
1825.0000,7.969702
1826.0000,4.501887
1827.0000,6.506240
1828.0000,4.809493
1829.0000,9.809625
1830.0000,4.289752
1831.0000,10.137781
1832.0000,18.024717
1833.0000,6.102389
1834.0000,-9.739621
1835.0000,5.325500
1836.0000,2.429808
1837.0000,2.311847
1838.0000,-4.082110
1839.0000,-2.955699
1840.0000,-1.387057
1841.0000,4.896184
1842.0000,0.435031
1843.0000,5.090827
1844.0000,-5.693496
1845.0000,8.884133
1846.0000,2.811163
1847.0000,-3.234390
1848.0000,-6.991738
1849.0000,-4.074378
1850.0000,4.946676
1851.0000,7.921820
1852.0000,1.656728
1853.0000,-0.248657
1854.0000,-10.895110
1855.0000,-0.482559
1856.0000,6.548380
1857.0000,-4.353848
1858.0000,9.276727
1859.0000,-2.446316
1860.0000,1.987550
1861.0000,-8.189613
1862.0000,11.809147
1863.0000,-2.303172
1864.0000,1.490223
1865.0000,8.998528
1866.0000,-3.551912
1867.0000,7.002408
1868.0000,6.250874
1869.0000,9.066995
1870.0000,10.263063
1871.0000,-1.775148
1872.0000,-7.412813
1873.0000,-5.014196
1874.0000,7.077889
1875.0000,-3.948022
1876.0000,7.832662
1877.0000,-8.055232
1878.0000,-4.403417
1879.0000,11.157034
1880.0000,-1.168922
1881.0000,1.199214
1882.0000,17.857266
1883.0000,5.053291
1884.0000,-6.060286
1885.0000,4.785633
1886.0000,-2.418411
1887.0000,4.914083
1888.0000,1.308454
1889.0000,7.846083
1890.0000,2.265011
1891.0000,2.950892
1892.0000,7.184732
1893.0000,4.194300
1894.0000,4.664890
1895.0000,0.304773
1896.0000,1.150631
1897.0000,9.449141
1898.0000,5.485220
1899.0000,2.085260
1900.0000,7.021621
1901.0000,-0.601820
1902.0000,6.893214
1903.0000,2.252238
1904.0000,-9.766290
1905.0000,4.781537
1906.0000,2.510358
1907.0000,-0.481340
1908.0000,-6.736533
1909.0000,2.494590
1910.0000,5.157138
1911.0000,-4.671955
1912.0000,-6.421820
1913.0000,-1.571488
1914.0000,-2.401949
1915.0000,-3.118779
1916.0000,5.396649
1917.0000,-3.643673
1918.0000,-5.008086
1919.0000,8.699060
1920.0000,-1.895116
1921.0000,0.218590
1922.0000,7.702894
1923.0000,0.542484
1924.0000,2.127602
1925.0000,-2.847512
1926.0000,-10.276685
1927.0000,-1.628174
1928.0000,-5.168261
1929.0000,10.648489
1930.0000,-6.752195
1931.0000,12.403358
1932.0000,1.103815
1933.0000,0.190544
1934.0000,-7.668986
1935.0000,-0.598088
1936.0000,0.863137
1937.0000,7.752129
1938.0000,10.388545
1939.0000,11.853170
1940.0000,2.414032
1941.0000,8.895125
1942.0000,-1.154998
1943.0000,2.414853
1944.0000,6.266283
1945.0000,3.542331
1946.0000,-0.546981
1947.0000,6.314709
1948.0000,5.923723
1949.0000,1.013734
1950.0000,-4.719110
1951.0000,3.212562
1952.0000,6.227715
1953.0000,-5.463842
1954.0000,-3.618428
1955.0000,4.257276
1956.0000,-2.435014
1957.0000,-1.613481
1958.0000,-1.690367
1959.0000,-11.552310
1960.0000,-2.024644
1961.0000,5.981933
1962.0000,-2.262296
1963.0000,-5.066307
1964.0000,-2.168581
1965.0000,-2.302506
1966.0000,-7.111494
1967.0000,3.055927
1968.0000,-0.733204
1969.0000,-1.415232
1970.0000,0.540331
1971.0000,-6.511817
1972.0000,8.273454
1973.0000,-1.199408
1974.0000,-6.582343
1975.0000,-4.516621
1976.0000,7.315841
1977.0000,-2.416673
1978.0000,-2.567620
1979.0000,-16.115693
1980.0000,6.156063
1981.0000,2.086785
1982.0000,3.780384
1983.0000,-3.442171
1984.0000,-0.411826
1985.0000,9.627743
1986.0000,0.377051
1987.0000,14.113876
1988.0000,-12.328313
1989.0000,-0.960697
1990.0000,3.779343
1991.0000,-4.658289
1992.0000,3.275655
1993.0000,7.396628
1994.0000,10.833040
1995.0000,0.565184
1996.0000,4.738529
1997.0000,-0.363441
1998.0000,0.656284
1999.0000,-8.468014
2000.0000,9.367421
