raman_shift_cm-1,intensity
200.0000,11.756708
201.0000,0.506600
202.0000,1.544494
203.0000,1.237847
204.0000,-8.618461
205.0000,-3.687164
206.0000,-3.489870
207.0000,-3.490596
208.0000,3.452458
209.0000,-8.444092
210.0000,10.853813
211.0000,7.069170
212.0000,1.187349
213.0000,12.226482
214.0000,-1.926008
215.0000,-0.253031
216.0000,1.567931
217.0000,-10.591359
218.0000,-2.215880
219.0000,4.111451
220.0000,-0.595984
221.0000,10.794444
222.0000,13.337170
223.0000,1.974649
224.0000,-3.365922
225.0000,3.129003
226.0000,3.590327
227.0000,-6.154220
228.0000,2.851371
229.0000,5.979664
230.0000,5.804592
231.0000,-1.749038
232.0000,8.559459
233.0000,6.207121
234.0000,10.237139
235.0000,8.450638
236.0000,3.854238
237.0000,-6.728147
238.0000,6.257102
239.0000,8.482773
240.0000,-4.092380
241.0000,-2.736385
242.0000,-4.680541
243.0000,11.725272
244.0000,11.778210
245.0000,-0.835276
246.0000,-4.181145
247.0000,5.485190
248.0000,-2.275288
249.0000,-5.336079
250.0000,-3.795856
251.0000,2.953719
252.0000,10.837283
253.0000,7.206547
254.0000,6.393708
255.0000,3.830092
256.0000,-6.669074
257.0000,7.805472
258.0000,14.933971
259.0000,5.381519
260.0000,6.501434
261.0000,11.888878
262.0000,9.007391
263.0000,11.694294
264.0000,7.075278
265.0000,8.718792
266.0000,18.624989
267.0000,3.526943
268.0000,-7.352963
269.0000,4.436577
270.0000,6.656343
271.0000,7.189742
272.0000,5.185368
273.0000,-0.867836
274.0000,-5.199803
275.0000,9.522859
276.0000,7.286903
277.0000,2.313977
278.0000,9.374084
279.0000,3.563971
280.0000,9.351362
281.0000,14.557148
282.0000,1.166252
283.0000,4.948898
284.0000,11.532700
285.0000,0.554539
286.0000,5.632468
287.0000,7.926631
288.0000,12.140817
289.0000,20.238364
290.0000,1.349225
291.0000,3.607154
292.0000,0.222611
293.0000,-2.250855
294.0000,10.438377
295.0000,2.126698
296.0000,-9.842669
297.0000,6.234148
298.0000,11.294303
299.0000,1.868004
300.0000,-5.010731
301.0000,3.339427
302.0000,13.944437
303.0000,9.969628
304.0000,11.457250
305.0000,-2.278853
306.0000,20.473083
307.0000,2.810079
308.0000,2.185284
309.0000,8.522226
310.0000,1.924748
311.0000,3.326267
312.0000,16.047339
313.0000,15.848399
314.0000,4.490297
315.0000,2.407304
316.0000,6.149375
317.0000,5.954794
318.0000,-0.267873
319.0000,-4.927601
320.0000,8.207615
321.0000,14.500884
322.0000,11.529636
323.0000,12.335178
324.0000,9.650744
325.0000,9.452461
326.0000,1.081081
327.0000,3.919109
328.0000,8.822157
329.0000,11.669702
330.0000,3.681802
331.0000,2.156216
332.0000,5.767910
333.0000,10.468715
334.0000,13.638716
335.0000,9.222544
336.0000,6.144387
337.0000,14.737602
338.0000,5.541566
339.0000,10.882161
340.0000,14.900087
341.0000,6.012217
342.0000,8.423742
343.0000,11.924210
344.0000,3.006337
345.0000,10.109261
346.0000,4.870291
347.0000,-1.110643
348.0000,-3.101963
349.0000,1.823421
350.0000,4.007123
351.0000,23.229375
352.0000,3.342255
353.0000,5.902985
354.0000,0.816866
355.0000,18.980481
356.0000,12.090112
357.0000,9.205454
358.0000,10.401283
359.0000,3.669185
360.0000,5.458317
361.0000,16.605507
362.0000,7.180570
363.0000,7.561468
364.0000,13.573290
365.0000,7.128171
366.0000,10.182327
367.0000,14.784674
368.0000,6.382257
369.0000,-4.200583
370.0000,-4.010787
371.0000,-2.516951
372.0000,17.482820
373.0000,5.888524
374.0000,-0.509920
375.0000,9.550824
376.0000,15.477009
377.0000,5.950276
378.0000,12.459551
379.0000,7.546778
380.0000,2.390373
381.0000,6.284142
382.0000,3.501228
383.0000,15.190710
384.0000,6.244706
385.0000,3.126051
386.0000,6.184821
387.0000,1.182601
388.0000,-1.545328
389.0000,18.326467
390.0000,15.765869
391.0000,13.261763
392.0000,-1.891656
393.0000,7.804046
394.0000,16.726343
395.0000,10.415474
396.0000,6.063673
397.0000,14.684563
398.0000,5.632686
399.0000,10.492365
400.0000,17.031405
401.0000,15.767196
402.0000,4.053017
403.0000,14.985676
404.0000,15.780118
405.0000,7.527348
406.0000,26.006778
407.0000,-1.899187
408.0000,15.347321
409.0000,8.295863
410.0000,19.612687
411.0000,10.272883
412.0000,2.203085
413.0000,2.009262
414.0000,4.702285
415.0000,5.641681
416.0000,10.391637
417.0000,23.205938
418.0000,11.484404
419.0000,8.686474
420.0000,22.062121
421.0000,24.371556
422.0000,24.148530
423.0000,1.695359
424.0000,9.424341
425.0000,9.979009
426.0000,11.953001
427.0000,7.051570
428.0000,16.553437
429.0000,7.004629
430.0000,15.347524
431.0000,16.770726
432.0000,18.188184
433.0000,15.010756
434.0000,17.902701
435.0000,7.552303
436.0000,9.063424
437.0000,12.387612
438.0000,11.609248
439.0000,10.580712
440.0000,14.070972
441.0000,10.680583
442.0000,7.755758
443.0000,13.062578
444.0000,21.012847
445.0000,14.950478
446.0000,24.973850
447.0000,17.544268
448.0000,11.158159
449.0000,19.742603
450.0000,13.253249
451.0000,16.074069
452.0000,20.836298
453.0000,11.508345
454.0000,11.936586
455.0000,16.053487
456.0000,18.010263
457.0000,4.987317
458.0000,19.380496
459.0000,19.269647
460.0000,7.106343
461.0000,14.366470
462.0000,15.576713
463.0000,6.907635
464.0000,14.594139
465.0000,9.262622
466.0000,19.838569
467.0000,18.592285
468.0000,9.031650
469.0000,14.589114
470.0000,13.664212
471.0000,15.432528
472.0000,22.672450
473.0000,16.313517
474.0000,14.209259
475.0000,11.221910
476.0000,17.900533
477.0000,21.953652
478.0000,14.794335
479.0000,20.276355
480.0000,18.407911
481.0000,23.747679
482.0000,19.568427
483.0000,24.764901
484.0000,22.830710
485.0000,18.979650
486.0000,8.642884
487.0000,13.803453
488.0000,23.831861
489.0000,27.330352
490.0000,26.373149
491.0000,28.574974
492.0000,18.287299
493.0000,19.331041
494.0000,23.154308
495.0000,27.313203
496.0000,22.042452
497.0000,34.746803
498.0000,24.749299
499.0000,33.308348
500.0000,30.351648
501.0000,39.400660
502.0000,25.664434
503.0000,18.717999
504.0000,19.577134
505.0000,13.474999
506.0000,14.925659
507.0000,22.997309
508.0000,26.696802
509.0000,29.954704
510.0000,33.881101
511.0000,21.816216
512.0000,26.750614
513.0000,27.190245
514.0000,23.440323
515.0000,21.401198
516.0000,30.630503
517.0000,28.431238
518.0000,25.026006
519.0000,21.995213
520.0000,32.362211
521.0000,31.715649
522.0000,40.197250
523.0000,31.158129
524.0000,41.811072
525.0000,30.787030
526.0000,33.388630
527.0000,34.881497
528.0000,34.881385
529.0000,35.564028
530.0000,30.864257
531.0000,35.363052
532.0000,32.944935
533.0000,51.539546
534.0000,48.517081
535.0000,21.287478
536.0000,35.156438
537.0000,33.434301
538.0000,37.530286
539.0000,35.327828
540.0000,38.925228
541.0000,37.526014
542.0000,46.961832
543.0000,34.012340
544.0000,35.374568
545.0000,36.895564
546.0000,52.299757
547.0000,41.156983
548.0000,40.555463
549.0000,51.363471
550.0000,51.493414
551.0000,49.508754
552.0000,54.912278
553.0000,51.327990
554.0000,51.882888
555.0000,57.069238
556.0000,52.369559
557.0000,48.137615
558.0000,51.074997
559.0000,62.533023
560.0000,61.527309
561.0000,62.389518
562.0000,62.225198
563.0000,52.908285
564.0000,52.657494
565.0000,54.458942
566.0000,72.576087
567.0000,66.706181
568.0000,73.541902
569.0000,68.993552
570.0000,67.810304
571.0000,69.463402
572.0000,74.785009
573.0000,76.014108
574.0000,66.321420
575.0000,73.543222
576.0000,83.409827
577.0000,63.642479
578.0000,69.226676
579.0000,85.558874
580.0000,80.287979
581.0000,92.361552
582.0000,82.711359
583.0000,96.886358
584.0000,95.146897
585.0000,90.331983
586.0000,93.787331
587.0000,91.144359
588.0000,103.855885
589.0000,99.486505
590.0000,100.560286
591.0000,105.876173
592.0000,104.082629
593.0000,123.224757
594.0000,113.458751
595.0000,111.203531
596.0000,118.731546
597.0000,126.501588
598.0000,127.923845
599.0000,109.747402
600.0000,125.044501
601.0000,125.471355
602.0000,130.436176
603.0000,123.501767
604.0000,133.790279
605.0000,143.562551
606.0000,128.714784
607.0000,146.570405
608.0000,147.040716
609.0000,135.222904
610.0000,146.436127
611.0000,149.612125
612.0000,160.788897
613.0000,155.254194
614.0000,161.754527
615.0000,144.775330
616.0000,150.605888
617.0000,148.702047
618.0000,142.485172
619.0000,167.742724
620.0000,151.647715
621.0000,154.233159
622.0000,162.661815
623.0000,154.711938
624.0000,157.341741
625.0000,152.912026
626.0000,150.872143
627.0000,157.978935
628.0000,150.378749
629.0000,162.149679
630.0000,157.295461
631.0000,152.303887
632.0000,161.043935
633.0000,145.471914
634.0000,154.001808
635.0000,147.541097
636.0000,136.506135
637.0000,137.364755
638.0000,129.688548
639.0000,134.483305
640.0000,143.601414
641.0000,124.775104
642.0000,123.766948
643.0000,119.744470
644.0000,119.949056
645.0000,129.010122
646.0000,128.979023
647.0000,115.444249
648.0000,111.655996
649.0000,118.749895
650.0000,110.795813
651.0000,105.927921
652.0000,112.747358
653.0000,107.145504
654.0000,102.680970
655.0000,103.044782
656.0000,101.824622
657.0000,91.743340
658.0000,108.801871
659.0000,98.034198
660.0000,86.882333
661.0000,104.062164
662.0000,100.987229
663.0000,91.365537
664.0000,75.178464
665.0000,90.040300
666.0000,78.747607
667.0000,82.139252
668.0000,78.253944
669.0000,84.608006
670.0000,75.858532
671.0000,87.678920
672.0000,78.265743
673.0000,75.491735
674.0000,85.092418
675.0000,77.879057
676.0000,82.232977
677.0000,76.862055
678.0000,69.016735
679.0000,82.079184
680.0000,71.700375
681.0000,71.369769
682.0000,72.774656
683.0000,68.567662
684.0000,67.043992
685.0000,69.352618
686.0000,62.788951
687.0000,63.975745
688.0000,56.451762
689.0000,67.654070
690.0000,70.097899
691.0000,65.755942
692.0000,63.801999
693.0000,63.244320
694.0000,59.839301
695.0000,61.341087
696.0000,67.648048
697.0000,59.793886
698.0000,48.969431
699.0000,60.061624
700.0000,69.390461
701.0000,61.816022
702.0000,72.206567
703.0000,71.159006
704.0000,64.072255
705.0000,54.789109
706.0000,53.612594
707.0000,59.295484
708.0000,54.840635
709.0000,65.739200
710.0000,65.889683
711.0000,61.317076
712.0000,64.367007
713.0000,57.443475
714.0000,69.780302
715.0000,65.956827
716.0000,61.909572
717.0000,57.526195
718.0000,52.514093
719.0000,57.842486
720.0000,68.421600
721.0000,57.188644
722.0000,64.648662
723.0000,57.214215
724.0000,55.405674
725.0000,78.928983
726.0000,60.233567
727.0000,66.272106
728.0000,54.697270
729.0000,68.078733
730.0000,64.606156
731.0000,63.317072
732.0000,62.249147
733.0000,63.677715
734.0000,69.725027
735.0000,58.098444
736.0000,69.229559
737.0000,72.177799
738.0000,63.101722
739.0000,70.987588
740.0000,68.224930
741.0000,64.806368
742.0000,81.256350
743.0000,84.379402
744.0000,66.281552
745.0000,78.487381
746.0000,74.178674
747.0000,76.350248
748.0000,69.627310
749.0000,79.517522
750.0000,75.559572
751.0000,82.885504
752.0000,79.819137
753.0000,75.778397
754.0000,91.704715
755.0000,96.020272
756.0000,84.270231
757.0000,87.736233
758.0000,83.798694
759.0000,81.894575
760.0000,91.168066
761.0000,84.206601
762.0000,91.495071
763.0000,89.380769
764.0000,96.429235
765.0000,87.011150
766.0000,94.646158
767.0000,79.452862
768.0000,95.275338
769.0000,107.599497
770.0000,101.940275
771.0000,98.030033
772.0000,102.445903
773.0000,101.226804
774.0000,105.608901
775.0000,92.990668
776.0000,106.227710
777.0000,97.381959
778.0000,108.958459
779.0000,105.267334
780.0000,102.568406
781.0000,104.957270
782.0000,111.535378
783.0000,102.435868
784.0000,108.900331
785.0000,109.519790
786.0000,110.984465
787.0000,111.527638
788.0000,113.569643
789.0000,112.106943
790.0000,105.894225
791.0000,111.170562
792.0000,117.084707
793.0000,107.967129
794.0000,109.215542
795.0000,119.141362
796.0000,109.067407
797.0000,105.930630
798.0000,113.733749
799.0000,108.653746
800.0000,116.999264
801.0000,104.733914
802.0000,106.208112
803.0000,116.169026
804.0000,107.693472
805.0000,105.308461
806.0000,110.239598
807.0000,110.563495
808.0000,122.474657
809.0000,111.876268
810.0000,104.624654
811.0000,112.969007
812.0000,99.030810
813.0000,107.504374
814.0000,105.300672
815.0000,104.875077
816.0000,95.401541
817.0000,98.068899
818.0000,114.876724
819.0000,109.111140
820.0000,107.361357
821.0000,100.057391
822.0000,97.950744
823.0000,101.453055
824.0000,100.835140
825.0000,95.027075
826.0000,92.232252
827.0000,97.569680
828.0000,96.313034
829.0000,86.787073
830.0000,106.339646
831.0000,95.607014
832.0000,94.967798
833.0000,96.045700
834.0000,96.169998
835.0000,94.767742
836.0000,88.981533
837.0000,93.822494
838.0000,92.865868
839.0000,101.240606
840.0000,95.047958
841.0000,83.832960
842.0000,87.320442
843.0000,75.532013
844.0000,86.392938
845.0000,78.966615
846.0000,84.662002
847.0000,75.493640
848.0000,90.439699
849.0000,83.301372
850.0000,90.964114
851.0000,77.813682
852.0000,94.555572
853.0000,76.744785
854.0000,90.020305
855.0000,88.523973
856.0000,85.974484
857.0000,85.501658
858.0000,85.607588
859.0000,89.228560
860.0000,76.982137
861.0000,77.546225
862.0000,80.010547
863.0000,92.933011
864.0000,79.193804
865.0000,78.620618
866.0000,93.831507
867.0000,76.588337
868.0000,93.290085
869.0000,85.770784
870.0000,83.423999
871.0000,86.881792
872.0000,90.088312
873.0000,86.392550
874.0000,76.596453
875.0000,91.896430
876.0000,81.350616
877.0000,89.300140
878.0000,80.776987
879.0000,86.340109
880.0000,88.155476
881.0000,80.309195
882.0000,75.107091
883.0000,99.926502
884.0000,78.476290
885.0000,79.730640
886.0000,90.746820
887.0000,83.263988
888.0000,97.780699
889.0000,82.901432
890.0000,90.568794
891.0000,103.579219
892.0000,90.357509
893.0000,96.556630
894.0000,91.547429
895.0000,91.446121
896.0000,85.078651
897.0000,97.995315
898.0000,102.198615
899.0000,94.459947
900.0000,100.690231
901.0000,106.377275
902.0000,95.194855
903.0000,97.833723
904.0000,93.779443
905.0000,103.176843
906.0000,101.711948
907.0000,108.157369
908.0000,104.457677
909.0000,110.701663
910.0000,114.938464
911.0000,116.980785
912.0000,119.873770
913.0000,122.223303
914.0000,121.266895
915.0000,113.242631
916.0000,128.852244
917.0000,122.659900
918.0000,122.669758
919.0000,133.099807
920.0000,129.641515
921.0000,134.004116
922.0000,130.011565
923.0000,138.329682
924.0000,127.926551
925.0000,138.472169
926.0000,146.422517
927.0000,142.409507
928.0000,146.297870
929.0000,156.960813
930.0000,142.134891
931.0000,149.252610
932.0000,156.083765
933.0000,155.991403
934.0000,171.240800
935.0000,167.414049
936.0000,173.379515
937.0000,178.110311
938.0000,189.965891
939.0000,193.504781
940.0000,198.060660
941.0000,187.854959
942.0000,177.283000
943.0000,211.938605
944.0000,209.531990
945.0000,211.626962
946.0000,222.898522
947.0000,221.306599
948.0000,228.325062
949.0000,235.517201
950.0000,252.110892
951.0000,244.334717
952.0000,248.941644
953.0000,255.214929
954.0000,259.028604
955.0000,279.853315
956.0000,273.514631
957.0000,290.885692
958.0000,299.372689
959.0000,311.172910
960.0000,321.184501
961.0000,321.656326
962.0000,340.176861
963.0000,339.615628
964.0000,359.494407
965.0000,365.019308
966.0000,379.073190
967.0000,396.273837
968.0000,407.198041
969.0000,419.817483
970.0000,436.419359
971.0000,443.216603
972.0000,461.662027
973.0000,470.523726
974.0000,502.374970
975.0000,510.673475
976.0000,531.986960
977.0000,559.949426
978.0000,563.328430
979.0000,592.117028
980.0000,615.104102
981.0000,630.170243
982.0000,650.353950
983.0000,662.083772
984.0000,703.245409
985.0000,710.986838
986.0000,746.284925
987.0000,752.956548
988.0000,792.711635
989.0000,809.837224
990.0000,833.292948
991.0000,849.034593
992.0000,867.217511
993.0000,890.023933
994.0000,921.589505
995.0000,920.227888
996.0000,940.103766
997.0000,963.366312
998.0000,963.879159
999.0000,983.282966
1000.0000,978.908286
1001.0000,985.200621
1002.0000,998.949386
1003.0000,1004.272068
1004.0000,992.854494
1005.0000,990.696312
1006.0000,998.633200
1007.0000,995.765524
1008.0000,989.989682
1009.0000,973.812713
1010.0000,957.329817
1011.0000,966.636731
1012.0000,940.320154
1013.0000,944.357529
1014.0000,930.434033
1015.0000,912.526862
1016.0000,905.349065
1017.0000,896.849418
1018.0000,894.987960
1019.0000,875.805058
1020.0000,849.307665
1021.0000,837.424031
1022.0000,827.900930
1023.0000,820.892673
1024.0000,809.551303
1025.0000,799.679197
1026.0000,778.443032
1027.0000,767.854192
1028.0000,752.307512
1029.0000,744.340345
1030.0000,728.977511
1031.0000,711.841995
1032.0000,709.930985
1033.0000,691.307314
1034.0000,684.146027
1035.0000,657.486012
1036.0000,654.726146
1037.0000,642.303502
1038.0000,630.123402
1039.0000,607.258020
1040.0000,602.335739
1041.0000,587.709791
1042.0000,583.016945
1043.0000,560.130053
1044.0000,543.942746
1045.0000,525.198984
1046.0000,519.822680
1047.0000,518.230497
1048.0000,495.463650
1049.0000,469.161155
1050.0000,471.386455
1051.0000,454.327241
1052.0000,436.694109
1053.0000,436.867013
1054.0000,413.430547
1055.0000,399.942940
1056.0000,402.275363
1057.0000,390.624622
1058.0000,374.862819
1059.0000,365.692190
1060.0000,357.372086
1061.0000,348.321828
1062.0000,325.647170
1063.0000,333.300852
1064.0000,320.791338
1065.0000,314.245326
1066.0000,313.482449
1067.0000,307.832647
1068.0000,295.825727
1069.0000,281.297482
1070.0000,287.439622
1071.0000,280.577128
1072.0000,271.934124
1073.0000,252.377951
1074.0000,262.438454
1075.0000,258.229172
1076.0000,245.172869
1077.0000,240.367768
1078.0000,246.217371
1079.0000,238.496808
1080.0000,220.128184
1081.0000,237.577410
1082.0000,223.706381
1083.0000,231.984253
1084.0000,221.946661
1085.0000,216.139745
1086.0000,216.066510
1087.0000,214.953422
1088.0000,201.365544
1089.0000,212.764734
1090.0000,205.117474
1091.0000,200.807469
1092.0000,203.087912
1093.0000,202.647982
1094.0000,196.644818
1095.0000,202.153549
1096.0000,193.542088
1097.0000,184.616398
1098.0000,188.060041
1099.0000,191.319728
1100.0000,188.216373
1101.0000,184.397869
1102.0000,179.003058
1103.0000,181.730738
1104.0000,192.351876
1105.0000,184.791014
1106.0000,180.117704
1107.0000,182.321038
1108.0000,176.840465
1109.0000,187.887024
1110.0000,185.109269
1111.0000,178.674485
1112.0000,186.814031
1113.0000,186.353632
1114.0000,179.968425
1115.0000,179.817489
1116.0000,189.860313
1117.0000,179.410358
1118.0000,188.380842
1119.0000,183.085735
1120.0000,185.474898
1121.0000,193.241245
1122.0000,196.576093
1123.0000,186.052508
1124.0000,198.642169
1125.0000,191.007961
1126.0000,195.221007
1127.0000,195.377330
1128.0000,193.518894
1129.0000,194.863552
1130.0000,198.523416
1131.0000,201.317619
1132.0000,195.596877
1133.0000,206.419835
1134.0000,200.910696
1135.0000,209.252048
1136.0000,197.643930
1137.0000,214.961525
1138.0000,210.172238
1139.0000,211.533833
1140.0000,209.771428
1141.0000,207.451771
1142.0000,222.639311
1143.0000,219.777129
1144.0000,214.161643
1145.0000,219.557153
1146.0000,217.532484
1147.0000,214.827861
1148.0000,222.308586
1149.0000,229.768509
1150.0000,216.031103
1151.0000,239.831219
1152.0000,222.920257
1153.0000,225.328193
1154.0000,236.095470
1155.0000,234.873181
1156.0000,229.496699
1157.0000,235.511445
1158.0000,241.625617
1159.0000,245.063199
1160.0000,244.610815
1161.0000,240.268241
1162.0000,230.961016
1163.0000,248.124548
1164.0000,243.911416
1165.0000,250.658188
1166.0000,234.951563
1167.0000,250.832020
1168.0000,235.816244
1169.0000,229.766426
1170.0000,228.675687
1171.0000,242.131283
1172.0000,236.776820
1173.0000,237.580756
1174.0000,240.035690
1175.0000,224.492392
1176.0000,235.084667
1177.0000,222.226318
1178.0000,227.350291
1179.0000,244.349742
1180.0000,223.211072
1181.0000,218.595024
1182.0000,227.727762
1183.0000,223.108254
1184.0000,216.580220
1185.0000,213.075253
1186.0000,212.973300
1187.0000,219.607155
1188.0000,215.265353
1189.0000,202.875369
1190.0000,211.922715
1191.0000,212.071617
1192.0000,194.152832
1193.0000,197.534256
1194.0000,203.195440
1195.0000,190.633277
1196.0000,185.999199
1197.0000,196.111721
1198.0000,178.921794
1199.0000,182.849088
1200.0000,178.515506
1201.0000,174.394200
1202.0000,174.767437
1203.0000,173.172158
1204.0000,168.844822
1205.0000,176.252712
1206.0000,158.749947
1207.0000,164.780962
1208.0000,158.375214
1209.0000,149.949766
1210.0000,157.944325
1211.0000,166.515264
1212.0000,135.672156
1213.0000,141.779821
1214.0000,140.870224
1215.0000,137.778259
1216.0000,133.446754
1217.0000,142.622872
1218.0000,128.948363
1219.0000,126.011962
1220.0000,123.439688
1221.0000,115.335464
1222.0000,133.778029
1223.0000,126.771575
1224.0000,113.305131
1225.0000,119.762207
1226.0000,116.805924
1227.0000,112.958153
1228.0000,116.304520
1229.0000,113.282017
1230.0000,105.157645
1231.0000,116.842612
1232.0000,100.509929
1233.0000,105.413477
1234.0000,97.823786
1235.0000,98.639623
1236.0000,107.298247
1237.0000,94.921534
1238.0000,93.288965
1239.0000,97.049168
1240.0000,102.586858
1241.0000,93.025379
1242.0000,94.933745
1243.0000,100.894599
1244.0000,100.401692
1245.0000,86.195149
1246.0000,86.726920
1247.0000,90.670271
1248.0000,92.351767
1249.0000,87.446667
1250.0000,79.512827
1251.0000,93.226392
1252.0000,85.067774
1253.0000,87.481409
1254.0000,83.115837
1255.0000,83.584548
1256.0000,72.737976
1257.0000,73.453250
1258.0000,85.204462
1259.0000,77.405003
1260.0000,84.473585
1261.0000,67.642352
1262.0000,87.941237
1263.0000,68.031768
1264.0000,68.163764
1265.0000,81.974727
1266.0000,83.425515
1267.0000,72.030526
1268.0000,73.970659
1269.0000,70.258337
1270.0000,74.882929
1271.0000,69.115255
1272.0000,83.548457
1273.0000,68.652799
1274.0000,82.512107
1275.0000,58.029207
1276.0000,66.340165
1277.0000,81.344103
1278.0000,62.881738
1279.0000,75.574714
1280.0000,67.054938
1281.0000,57.546394
1282.0000,69.071858
1283.0000,80.412882
1284.0000,76.286275
1285.0000,71.088953
1286.0000,66.604342
1287.0000,70.396651
1288.0000,72.245040
1289.0000,62.309940
1290.0000,80.676528
1291.0000,61.781101
1292.0000,65.154312
1293.0000,82.416494
1294.0000,64.610684
1295.0000,69.033581
1296.0000,63.927821
1297.0000,67.558939
1298.0000,60.840294
1299.0000,68.725511
1300.0000,61.249823
1301.0000,63.004224
1302.0000,67.665029
1303.0000,75.758180
1304.0000,66.162540
1305.0000,72.035713
1306.0000,67.997661
1307.0000,59.555350
1308.0000,85.560094
1309.0000,62.235566
1310.0000,67.184534
1311.0000,64.435326
1312.0000,72.597337
1313.0000,64.202067
1314.0000,72.900245
1315.0000,76.974920
1316.0000,71.799816
1317.0000,72.188438
1318.0000,70.687738
1319.0000,70.051327
1320.0000,71.191081
1321.0000,72.749228
1322.0000,79.036728
1323.0000,80.527576
1324.0000,76.019086
1325.0000,70.051822
1326.0000,85.714789
1327.0000,74.934312
1328.0000,71.022674
1329.0000,75.827349
1330.0000,77.151258
1331.0000,74.043759
1332.0000,74.850471
1333.0000,78.715901
1334.0000,76.847499
1335.0000,83.128641
1336.0000,84.994345
1337.0000,78.053331
1338.0000,81.379312
1339.0000,77.331016
1340.0000,71.170272
1341.0000,88.541378
1342.0000,86.555674
1343.0000,92.989863
1344.0000,86.607399
1345.0000,77.994538
1346.0000,84.726208
1347.0000,76.158621
1348.0000,79.972324
1349.0000,88.254599
1350.0000,75.645833
1351.0000,88.770982
1352.0000,82.587538
1353.0000,90.573880
1354.0000,82.467287
1355.0000,79.731739
1356.0000,92.099523
1357.0000,90.058075
1358.0000,93.193462
1359.0000,94.204216
1360.0000,95.096206
1361.0000,88.482240
1362.0000,99.078818
1363.0000,101.447590
1364.0000,91.520451
1365.0000,91.463252
1366.0000,103.807527
1367.0000,98.341078
1368.0000,101.448178
1369.0000,103.822006
1370.0000,101.101113
1371.0000,103.911654
1372.0000,99.600045
1373.0000,114.444954
1374.0000,101.996823
1375.0000,104.391892
1376.0000,118.128566
1377.0000,110.551743
1378.0000,103.265947
1379.0000,122.340009
1380.0000,110.792221
1381.0000,107.023885
1382.0000,118.032017
1383.0000,114.975700
1384.0000,122.284606
1385.0000,122.529231
1386.0000,122.417530
1387.0000,134.848485
1388.0000,130.201313
1389.0000,123.420656
1390.0000,130.045993
1391.0000,123.495100
1392.0000,122.327103
1393.0000,137.719292
1394.0000,135.178196
1395.0000,130.394115
1396.0000,133.053543
1397.0000,131.296887
1398.0000,136.965245
1399.0000,135.786476
1400.0000,149.818827
1401.0000,151.537367
1402.0000,149.593004
1403.0000,152.972894
1404.0000,155.675383
1405.0000,144.981308
1406.0000,149.515035
1407.0000,145.595772
1408.0000,172.017146
1409.0000,165.070677
1410.0000,157.214179
1411.0000,163.563499
1412.0000,163.953711
1413.0000,183.466084
1414.0000,172.999329
1415.0000,172.784089
1416.0000,180.599051
1417.0000,188.075694
1418.0000,178.382826
1419.0000,176.746532
1420.0000,185.899333
1421.0000,194.510625
1422.0000,193.731733
1423.0000,193.046220
1424.0000,196.001126
1425.0000,205.956347
1426.0000,204.486271
1427.0000,195.805858
1428.0000,206.346970
1429.0000,204.631321
1430.0000,201.343165
1431.0000,211.123068
1432.0000,211.879370
1433.0000,204.265346
1434.0000,207.621902
1435.0000,206.623523
1436.0000,210.141285
1437.0000,220.469857
1438.0000,205.962445
1439.0000,217.522719
1440.0000,219.686410
1441.0000,219.822118
1442.0000,224.706899
1443.0000,209.990415
1444.0000,225.459246
1445.0000,227.824118
1446.0000,210.896620
1447.0000,227.403576
1448.0000,206.376967
1449.0000,231.511281
1450.0000,228.534468
1451.0000,232.767059
1452.0000,220.083306
1453.0000,220.082202
1454.0000,218.382741
1455.0000,219.927849
1456.0000,221.985528
1457.0000,210.448212
1458.0000,229.840556
1459.0000,237.441244
1460.0000,219.841765
1461.0000,222.019114
1462.0000,226.580713
1463.0000,232.896279
1464.0000,229.312661
1465.0000,220.927936
1466.0000,238.186216
1467.0000,226.965237
1468.0000,222.683439
1469.0000,227.141692
1470.0000,225.668180
1471.0000,227.042496
1472.0000,219.774426
1473.0000,211.329675
1474.0000,212.526171
1475.0000,214.342444
1476.0000,232.809141
1477.0000,208.784022
1478.0000,215.759182
1479.0000,220.447735
1480.0000,216.181532
1481.0000,210.789556
1482.0000,212.586595
1483.0000,216.470243
1484.0000,221.762052
1485.0000,212.325631
1486.0000,220.747636
1487.0000,212.099780
1488.0000,202.558593
1489.0000,204.090634
1490.0000,206.915155
1491.0000,198.062866
1492.0000,206.115509
1493.0000,212.763971
1494.0000,207.673082
1495.0000,208.737551
1496.0000,204.492306
1497.0000,204.659846
1498.0000,207.103134
1499.0000,191.828327
1500.0000,204.706335
1501.0000,207.557572
1502.0000,205.832178
1503.0000,212.901542
1504.0000,213.212612
1505.0000,202.441563
1506.0000,208.567078
1507.0000,208.653286
1508.0000,202.100497
1509.0000,210.797301
1510.0000,209.327422
1511.0000,210.687948
1512.0000,202.541165
1513.0000,212.232519
1514.0000,220.470556
1515.0000,209.764637
1516.0000,218.437188
1517.0000,212.854068
1518.0000,208.862391
1519.0000,216.293953
1520.0000,211.758404
1521.0000,213.872282
1522.0000,219.079910
1523.0000,220.331673
1524.0000,235.099085
1525.0000,227.908440
1526.0000,226.947325
1527.0000,227.772953
1528.0000,227.959306
1529.0000,240.393950
1530.0000,229.101860
1531.0000,248.463798
1532.0000,240.632179
1533.0000,242.142078
1534.0000,242.522088
1535.0000,248.614487
1536.0000,264.733745
1537.0000,255.848786
1538.0000,264.745487
1539.0000,265.097075
1540.0000,261.156204
1541.0000,281.778844
1542.0000,280.149395
1543.0000,285.483065
1544.0000,291.510774
1545.0000,294.795718
1546.0000,304.092318
1547.0000,294.305127
1548.0000,296.033055
1549.0000,308.618960
1550.0000,317.559649
1551.0000,325.590752
1552.0000,334.065421
1553.0000,337.245160
1554.0000,344.460488
1555.0000,354.985281
1556.0000,358.745562
1557.0000,354.163758
1558.0000,373.218008
1559.0000,380.281558
1560.0000,381.135474
1561.0000,394.308165
1562.0000,397.182976
1563.0000,408.592592
1564.0000,415.752654
1565.0000,422.117679
1566.0000,427.208897
1567.0000,429.695735
1568.0000,449.873127
1569.0000,444.646477
1570.0000,460.908301
1571.0000,474.334270
1572.0000,475.730531
1573.0000,489.503725
1574.0000,506.338396
1575.0000,517.604695
1576.0000,513.768205
1577.0000,530.505067
1578.0000,536.456541
1579.0000,535.402819
1580.0000,554.550175
1581.0000,577.541085
1582.0000,567.619303
1583.0000,576.057875
1584.0000,589.020870
1585.0000,594.315583
1586.0000,613.535499
1587.0000,609.252661
1588.0000,618.802500
1589.0000,630.001464
1590.0000,636.243953
1591.0000,627.856585
1592.0000,645.707266
1593.0000,661.213550
1594.0000,653.614703
1595.0000,658.841601
1596.0000,662.111950
1597.0000,652.759946
1598.0000,664.643832
1599.0000,664.906196
1600.0000,649.932461
1601.0000,654.797706
1602.0000,661.314693
1603.0000,649.519434
1604.0000,646.957509
1605.0000,654.088603
1606.0000,632.504368
1607.0000,636.490757
1608.0000,631.255601
1609.0000,620.455411
1610.0000,604.838997
1611.0000,615.605720
1612.0000,595.628690
1613.0000,590.207631
1614.0000,576.793517
1615.0000,566.100980
1616.0000,562.939448
1617.0000,543.373765
1618.0000,537.294927
1619.0000,524.997317
1620.0000,516.164480
1621.0000,499.013662
1622.0000,491.617023
1623.0000,481.798281
1624.0000,474.832406
1625.0000,457.652532
1626.0000,445.314135
1627.0000,441.149230
1628.0000,426.099459
1629.0000,405.186875
1630.0000,403.796304
1631.0000,395.433074
1632.0000,387.543248
1633.0000,377.439655
1634.0000,359.520066
1635.0000,349.439443
1636.0000,351.186601
1637.0000,337.103197
1638.0000,330.713685
1639.0000,324.415793
1640.0000,316.786424
1641.0000,308.127631
1642.0000,301.236371
1643.0000,286.515214
1644.0000,283.505252
1645.0000,285.929032
1646.0000,269.020066
1647.0000,269.127122
1648.0000,267.309780
1649.0000,243.550008
1650.0000,247.576316
1651.0000,241.148324
1652.0000,237.897646
1653.0000,228.946936
1654.0000,221.766177
1655.0000,208.496526
1656.0000,225.538430
1657.0000,214.135431
1658.0000,206.997736
1659.0000,196.804618
1660.0000,194.804979
1661.0000,180.159816
1662.0000,194.782550
1663.0000,174.224914
1664.0000,181.464794
1665.0000,178.722312
1666.0000,166.617734
1667.0000,173.947800
1668.0000,156.634991
1669.0000,163.705106
1670.0000,157.660926
1671.0000,154.364592
1672.0000,152.777781
1673.0000,152.126603
1674.0000,153.329359
1675.0000,147.442781
1676.0000,143.124924
1677.0000,134.012923
1678.0000,119.409172
1679.0000,136.355706
1680.0000,135.816099
1681.0000,118.793665
1682.0000,120.627383
1683.0000,131.566967
1684.0000,117.592559
1685.0000,120.668570
1686.0000,106.884919
1687.0000,113.863830
1688.0000,110.238914
1689.0000,110.365520
1690.0000,108.011478
1691.0000,98.258626
1692.0000,105.002025
1693.0000,107.935162
1694.0000,109.703518
1695.0000,97.331118
1696.0000,91.824364
1697.0000,108.272078
1698.0000,95.743357
1699.0000,104.471328
1700.0000,96.194098
1701.0000,82.457550
1702.0000,87.092956
1703.0000,93.572599
1704.0000,91.111276
1705.0000,88.178560
1706.0000,84.469423
1707.0000,71.006333
1708.0000,78.688362
1709.0000,96.865407
1710.0000,84.206670
1711.0000,81.865984
1712.0000,80.729651
1713.0000,77.130121
1714.0000,80.817751
1715.0000,74.885305
1716.0000,67.375237
1717.0000,82.847951
1718.0000,70.729807
1719.0000,76.705016
1720.0000,73.956155
1721.0000,74.956700
1722.0000,61.500924
1723.0000,62.978841
1724.0000,70.334216
1725.0000,54.555594
1726.0000,60.572909
1727.0000,67.318081
1728.0000,65.434051
1729.0000,67.114953
1730.0000,57.007288
1731.0000,59.688561
1732.0000,68.709922
1733.0000,62.644884
1734.0000,59.298402
1735.0000,65.894324
1736.0000,54.966480
1737.0000,56.888073
1738.0000,50.146931
1739.0000,55.930633
1740.0000,51.141061
1741.0000,54.595078
1742.0000,51.707770
1743.0000,48.919055
1744.0000,53.224615
1745.0000,42.920597
1746.0000,47.160601
1747.0000,57.440136
1748.0000,54.056811
1749.0000,50.136269
1750.0000,52.709668
1751.0000,44.431068
1752.0000,41.536090
1753.0000,36.329485
1754.0000,43.275843
1755.0000,32.891886
1756.0000,44.390641
1757.0000,51.408278
1758.0000,40.421793
1759.0000,47.223102
1760.0000,37.542545
1761.0000,44.542367
1762.0000,52.563103
1763.0000,55.237912
1764.0000,52.620245
1765.0000,44.428203
1766.0000,36.163859
1767.0000,43.470874
1768.0000,39.961430
1769.0000,38.457801
1770.0000,48.164104
1771.0000,34.908120
1772.0000,42.800563
1773.0000,43.068716
1774.0000,36.310704
1775.0000,34.321540
1776.0000,38.088499
1777.0000,38.256499
1778.0000,35.710301
1779.0000,39.641746
1780.0000,37.287025
1781.0000,35.778422
1782.0000,36.689269
1783.0000,40.775938
1784.0000,39.575459
1785.0000,42.252083
1786.0000,46.767502
1787.0000,34.121112
1788.0000,35.258733
1789.0000,29.063149
1790.0000,33.680256
1791.0000,26.525344
1792.0000,39.668876
1793.0000,22.704610
1794.0000,24.285450
1795.0000,26.874329
1796.0000,25.558729
1797.0000,24.311721
1798.0000,28.760227
1799.0000,35.631069
1800.0000,22.790861
1801.0000,33.454843
1802.0000,28.414658
1803.0000,25.032833
1804.0000,26.654922
1805.0000,35.095573
1806.0000,46.172172
1807.0000,32.128325
1808.0000,28.296218
1809.0000,31.614227
1810.0000,30.488829
1811.0000,21.769105
1812.0000,29.648643
1813.0000,23.955058
1814.0000,33.632469
1815.0000,38.131677
1816.0000,28.220963
1817.0000,29.652607
1818.0000,23.372301
1819.0000,38.147118
1820.0000,31.233796
1821.0000,43.108891
1822.0000,28.321147
1823.0000,16.561835
1824.0000,36.027161
1825.0000,19.091015
1826.0000,31.951375
1827.0000,25.447943
1828.0000,23.239643
1829.0000,32.368495
1830.0000,10.461650
1831.0000,13.892308
1832.0000,20.520128
1833.0000,16.091871
1834.0000,16.307893
1835.0000,26.750872
1836.0000,21.765994
1837.0000,23.305686
1838.0000,13.088226
1839.0000,26.901677
1840.0000,29.871798
1841.0000,16.084261
1842.0000,15.157767
1843.0000,21.757867
1844.0000,28.525286
1845.0000,24.813373
1846.0000,25.458570
1847.0000,14.014008
1848.0000,17.833045
1849.0000,18.311513
1850.0000,36.560512
1851.0000,20.932027
1852.0000,24.203984
1853.0000,18.693664
1854.0000,26.272875
1855.0000,13.991940
1856.0000,16.586547
1857.0000,12.426861
1858.0000,13.998306
1859.0000,24.095617
1860.0000,2.673022
1861.0000,10.132404
1862.0000,20.787572
1863.0000,20.185266
1864.0000,24.231452
1865.0000,24.323975
1866.0000,9.319522
1867.0000,23.974533
1868.0000,21.061207
1869.0000,11.510735
1870.0000,20.386772
1871.0000,16.168114
1872.0000,21.688371
1873.0000,16.509228
1874.0000,16.752896
1875.0000,21.323230
1876.0000,18.220319
1877.0000,17.999954
1878.0000,14.032187
1879.0000,15.782711
1880.0000,12.497515
1881.0000,19.370749
1882.0000,24.484548
1883.0000,10.226681
1884.0000,23.217455
1885.0000,9.913047
1886.0000,20.961322
1887.0000,17.147450
1888.0000,22.013089
1889.0000,13.681135
1890.0000,17.505148
1891.0000,10.394224
1892.0000,19.004549
1893.0000,21.443276
1894.0000,24.732198
1895.0000,16.107702
1896.0000,16.513659
1897.0000,22.984105
1898.0000,24.811030
1899.0000,10.906540
1900.0000,18.867858
1901.0000,17.680989
1902.0000,20.730953
1903.0000,8.832334
1904.0000,13.448310
1905.0000,17.371473
1906.0000,9.663913
1907.0000,15.314860
1908.0000,8.258772
1909.0000,13.276172
1910.0000,14.458457
1911.0000,14.795352
1912.0000,12.164073
1913.0000,18.714383
1914.0000,15.568705
1915.0000,4.691835
1916.0000,18.241343
1917.0000,14.511851
1918.0000,20.292670
1919.0000,12.340904
1920.0000,7.761064
1921.0000,15.043898
1922.0000,8.010592
1923.0000,23.615406
1924.0000,19.647723
1925.0000,14.269151
1926.0000,14.334017
1927.0000,18.072762
1928.0000,18.255488
1929.0000,13.013324
1930.0000,21.528292
1931.0000,9.761518
1932.0000,5.881264
1933.0000,16.835571
1934.0000,11.714408
1935.0000,20.788553
1936.0000,15.908264
1937.0000,21.626460
1938.0000,12.595233
1939.0000,12.088268
1940.0000,13.988665
1941.0000,10.456030
1942.0000,7.691486
1943.0000,22.983952
1944.0000,12.179044
1945.0000,16.264365
1946.0000,12.052281
1947.0000,19.052502
1948.0000,28.468659
1949.0000,25.114558
1950.0000,11.860873
1951.0000,7.038836
1952.0000,16.063362
1953.0000,17.493517
1954.0000,3.305569
1955.0000,9.719473
1956.0000,7.360798
1957.0000,19.286199
1958.0000,3.023228
1959.0000,8.523727
1960.0000,14.861388
1961.0000,11.005928
1962.0000,22.558291
1963.0000,7.796072
1964.0000,4.120805
1965.0000,8.418294
1966.0000,9.272641
1967.0000,21.581627
1968.0000,11.485232
1969.0000,19.139087
1970.0000,5.976218
1971.0000,13.341756
1972.0000,13.332413
1973.0000,17.727584
1974.0000,7.594082
1975.0000,19.591961
1976.0000,12.875411
1977.0000,7.285912
1978.0000,11.203853
1979.0000,16.273670
1980.0000,12.202287
1981.0000,12.174099
1982.0000,11.905748
1983.0000,13.645743
1984.0000,7.513730
1985.0000,8.886602
1986.0000,13.014961
1987.0000,9.698646
1988.0000,9.068842
1989.0000,8.630295
1990.0000,17.996859
1991.0000,3.015516
1992.0000,4.441142
1993.0000,3.977999
1994.0000,9.367958
1995.0000,22.438679
1996.0000,10.168989
1997.0000,9.269072
1998.0000,8.956951
1999.0000,9.766450
2000.0000,18.471431
