raman_shift_cm-1,intensity
200.0000,487.155164
201.0000,481.697591
202.0000,483.129198
203.0000,470.519983
204.0000,485.334888
205.0000,480.743144
206.0000,489.278422
207.0000,477.562296
208.0000,480.179103
209.0000,477.530860
210.0000,477.920271
211.0000,486.748483
212.0000,490.336163
213.0000,479.021120
214.0000,499.476814
215.0000,491.021690
216.0000,490.020244
217.0000,490.336323
218.0000,499.566622
219.0000,489.391491
220.0000,492.596397
221.0000,493.734402
222.0000,500.015267
223.0000,500.472114
224.0000,493.882884
225.0000,509.129194
226.0000,506.407096
227.0000,502.145769
228.0000,511.088095
229.0000,512.757369
230.0000,509.464048
231.0000,510.314756
232.0000,519.179322
233.0000,520.516066
234.0000,515.184859
235.0000,515.662824
236.0000,521.733494
237.0000,509.177051
238.0000,520.675232
239.0000,518.022285
240.0000,530.127453
241.0000,538.516678
242.0000,528.644830
243.0000,547.978102
244.0000,532.082349
245.0000,545.133054
246.0000,530.813547
247.0000,539.735044
248.0000,541.798125
249.0000,533.850513
250.0000,549.887600
251.0000,552.267193
252.0000,541.193726
253.0000,555.663801
254.0000,552.208445
255.0000,551.005880
256.0000,562.371881
257.0000,563.622442
258.0000,568.869972
259.0000,557.974601
260.0000,577.024426
261.0000,565.855245
262.0000,586.338089
263.0000,584.806464
264.0000,588.887462
265.0000,589.048149
266.0000,601.473296
267.0000,606.482870
268.0000,607.669371
269.0000,624.960745
270.0000,615.202474
271.0000,647.068706
272.0000,658.175367
273.0000,672.446757
274.0000,695.094352
275.0000,731.332749
276.0000,746.466458
277.0000,779.487913
278.0000,809.299068
279.0000,845.518144
280.0000,885.199686
281.0000,896.039757
282.0000,907.490472
283.0000,913.976317
284.0000,885.489335
285.0000,857.419670
286.0000,831.010976
287.0000,780.732529
288.0000,763.549035
289.0000,739.690991
290.0000,717.669213
291.0000,702.163479
292.0000,694.149244
293.0000,668.434839
294.0000,662.143013
295.0000,660.914391
296.0000,649.048304
297.0000,650.519536
298.0000,640.922698
299.0000,630.773831
300.0000,644.818806
301.0000,623.232093
302.0000,618.375181
303.0000,645.365704
304.0000,646.096074
305.0000,620.254357
306.0000,622.933399
307.0000,636.207583
308.0000,621.730671
309.0000,627.042305
310.0000,630.720403
311.0000,625.196151
312.0000,624.238945
313.0000,620.942664
314.0000,628.677977
315.0000,634.230666
316.0000,629.424804
317.0000,635.888786
318.0000,643.954501
319.0000,628.332763
320.0000,639.653367
321.0000,630.738199
322.0000,637.025169
323.0000,640.397371
324.0000,636.097826
325.0000,642.311282
326.0000,637.970757
327.0000,642.247806
328.0000,653.511076
329.0000,655.172193
330.0000,647.930442
331.0000,647.301819
332.0000,654.478724
333.0000,659.133132
334.0000,649.422044
335.0000,646.867997
336.0000,651.826548
337.0000,654.081079
338.0000,665.774749
339.0000,659.367408
340.0000,647.738990
341.0000,659.386540
342.0000,665.165057
343.0000,664.850264
344.0000,662.993379
345.0000,663.110251
346.0000,654.275104
347.0000,664.620450
348.0000,681.692933
349.0000,677.942420
350.0000,665.692316
351.0000,663.536936
352.0000,662.295781
353.0000,678.248212
354.0000,677.955853
355.0000,682.254742
356.0000,691.479704
357.0000,680.387202
358.0000,679.975288
359.0000,681.833458
360.0000,682.758977
361.0000,683.430044
362.0000,685.330070
363.0000,690.756821
364.0000,694.962180
365.0000,704.914124
366.0000,682.138403
367.0000,694.348393
368.0000,693.476928
369.0000,706.666109
370.0000,698.281127
371.0000,698.115167
372.0000,701.019145
373.0000,709.217529
374.0000,714.768281
375.0000,709.456670
376.0000,711.909428
377.0000,707.899010
378.0000,716.570239
379.0000,720.657142
380.0000,718.941890
381.0000,719.794555
382.0000,716.809754
383.0000,720.496877
384.0000,716.605323
385.0000,719.708740
386.0000,715.768886
387.0000,725.626528
388.0000,711.164333
389.0000,736.116549
390.0000,730.888921
391.0000,736.428084
392.0000,738.516727
393.0000,732.056829
394.0000,750.042061
395.0000,743.291876
396.0000,734.695347
397.0000,740.144737
398.0000,735.349475
399.0000,738.161669
400.0000,743.829641
401.0000,742.572537
402.0000,745.489079
403.0000,744.273632
404.0000,756.605560
405.0000,765.881770
406.0000,751.968192
407.0000,749.432486
408.0000,757.328711
409.0000,760.286960
410.0000,761.159115
411.0000,747.834571
412.0000,772.281772
413.0000,768.307206
414.0000,765.509527
415.0000,774.169352
416.0000,762.423020
417.0000,781.665953
418.0000,774.410342
419.0000,775.854769
420.0000,787.522649
421.0000,788.344513
422.0000,793.099607
423.0000,785.005320
424.0000,791.201571
425.0000,788.992417
426.0000,791.975795
427.0000,783.459610
428.0000,792.222381
429.0000,795.330739
430.0000,793.939648
431.0000,802.714217
432.0000,796.896110
433.0000,800.858599
434.0000,785.550301
435.0000,793.057454
436.0000,805.247150
437.0000,798.052864
438.0000,802.406030
439.0000,808.629737
440.0000,816.449925
441.0000,803.377150
442.0000,810.441283
443.0000,823.494955
444.0000,810.091156
445.0000,823.039449
446.0000,819.138254
447.0000,820.186846
448.0000,814.753970
449.0000,825.110338
450.0000,827.619648
451.0000,829.289874
452.0000,821.809467
453.0000,831.679172
454.0000,832.291940
455.0000,836.924948
456.0000,836.806717
457.0000,828.648840
458.0000,832.827089
459.0000,834.750307
460.0000,847.565217
461.0000,847.581322
462.0000,838.726236
463.0000,832.156072
464.0000,849.341384
465.0000,848.036805
466.0000,857.922934
467.0000,852.852976
468.0000,848.521973
469.0000,856.358450
470.0000,858.845614
471.0000,864.672724
472.0000,857.541103
473.0000,861.421306
474.0000,869.136245
475.0000,859.199857
476.0000,872.156697
477.0000,880.108948
478.0000,862.843849
479.0000,872.752613
480.0000,870.504244
481.0000,873.211533
482.0000,885.931132
483.0000,892.524849
484.0000,887.274514
485.0000,885.331910
486.0000,886.028228
487.0000,875.225169
488.0000,894.881874
489.0000,875.741628
490.0000,890.917285
491.0000,901.847471
492.0000,903.532137
493.0000,904.704200
494.0000,894.394276
495.0000,893.632922
496.0000,891.884828
497.0000,910.942586
498.0000,910.465223
499.0000,902.407272
500.0000,917.688550
501.0000,905.183403
502.0000,902.195247
503.0000,912.664106
504.0000,919.763858
505.0000,913.695427
506.0000,923.706996
507.0000,915.254999
508.0000,908.602776
509.0000,922.829785
510.0000,923.808541
511.0000,927.861315
512.0000,929.249273
513.0000,938.499387
514.0000,928.022929
515.0000,925.587776
516.0000,936.106184
517.0000,937.556367
518.0000,943.488988
519.0000,950.793572
520.0000,944.064436
521.0000,943.753884
522.0000,944.941534
523.0000,956.963350
524.0000,951.209952
525.0000,962.160539
526.0000,945.359165
527.0000,961.343979
528.0000,961.631338
529.0000,954.106035
530.0000,960.507057
531.0000,957.995453
532.0000,979.039056
533.0000,957.312420
534.0000,972.816699
535.0000,973.998862
536.0000,970.210070
537.0000,975.208050
538.0000,980.429359
539.0000,962.965335
540.0000,983.821635
541.0000,968.036854
542.0000,979.892099
543.0000,994.282186
544.0000,977.710912
545.0000,986.070589
546.0000,994.284629
547.0000,983.463128
548.0000,995.703326
549.0000,990.568641
550.0000,995.425616
551.0000,995.269700
552.0000,999.780411
553.0000,1006.322485
554.0000,1014.473579
555.0000,1002.985831
556.0000,1002.712173
557.0000,1001.256099
558.0000,1012.864279
559.0000,1013.885326
560.0000,1018.042355
561.0000,1010.132896
562.0000,1012.521417
563.0000,1026.227619
564.0000,1029.087292
565.0000,1030.739594
566.0000,1014.688956
567.0000,1029.240535
568.0000,1032.006640
569.0000,1033.538715
570.0000,1032.145284
571.0000,1042.236094
572.0000,1028.140971
573.0000,1035.989917
574.0000,1032.898615
575.0000,1040.251340
576.0000,1048.691280
577.0000,1046.413465
578.0000,1040.927690
579.0000,1053.357563
580.0000,1051.189657
581.0000,1047.818796
582.0000,1075.116483
583.0000,1060.799539
584.0000,1057.279719
585.0000,1055.209924
586.0000,1060.438684
587.0000,1064.373517
588.0000,1062.457674
589.0000,1059.650792
590.0000,1072.858503
591.0000,1064.775363
592.0000,1080.125316
593.0000,1073.257639
594.0000,1075.123502
595.0000,1075.371821
596.0000,1078.321183
597.0000,1082.439362
598.0000,1085.758696
599.0000,1089.770418
600.0000,1095.406508
601.0000,1087.476573
602.0000,1087.331498
603.0000,1091.751889
604.0000,1098.351555
605.0000,1096.217656
606.0000,1086.017574
607.0000,1094.466648
608.0000,1098.292379
609.0000,1105.180896
610.0000,1100.390849
611.0000,1107.904900
612.0000,1105.079022
613.0000,1108.840268
614.0000,1118.340793
615.0000,1122.484208
616.0000,1116.560399
617.0000,1108.666981
618.0000,1108.958746
619.0000,1123.926167
620.0000,1123.620807
621.0000,1119.209688
622.0000,1124.522278
623.0000,1132.953331
624.0000,1133.954587
625.0000,1134.485116
626.0000,1134.393844
627.0000,1142.476215
628.0000,1152.109486
629.0000,1137.543912
630.0000,1142.172590
631.0000,1144.193272
632.0000,1151.076332
633.0000,1152.966407
634.0000,1144.083683
635.0000,1152.838510
636.0000,1160.094327
637.0000,1154.702536
638.0000,1155.948685
639.0000,1157.734065
640.0000,1163.606428
641.0000,1164.373942
642.0000,1171.251543
643.0000,1171.591402
644.0000,1177.467692
645.0000,1157.453172
646.0000,1168.976651
647.0000,1167.807636
648.0000,1171.701356
649.0000,1182.203220
650.0000,1178.126878
651.0000,1180.466313
652.0000,1188.204853
653.0000,1185.476455
654.0000,1183.733889
655.0000,1199.766868
656.0000,1190.472810
657.0000,1190.462068
658.0000,1196.174313
659.0000,1201.774278
660.0000,1197.687346
661.0000,1205.937785
662.0000,1194.762174
663.0000,1205.687192
664.0000,1212.059201
665.0000,1209.970509
666.0000,1220.776256
667.0000,1204.939868
668.0000,1217.894409
669.0000,1213.179533
670.0000,1209.113750
671.0000,1217.692800
672.0000,1230.220530
673.0000,1219.331343
674.0000,1225.332333
675.0000,1225.548535
676.0000,1234.693832
677.0000,1227.828791
678.0000,1233.514299
679.0000,1248.471824
680.0000,1240.747678
681.0000,1241.013400
682.0000,1234.674180
683.0000,1248.316761
684.0000,1258.575580
685.0000,1246.679160
686.0000,1248.960772
687.0000,1256.889318
688.0000,1251.282207
689.0000,1258.946199
690.0000,1263.013442
691.0000,1271.010551
692.0000,1274.069316
693.0000,1271.714793
694.0000,1265.303227
695.0000,1290.703921
696.0000,1280.864209
697.0000,1283.986059
698.0000,1284.189925
699.0000,1301.508954
700.0000,1308.572277
701.0000,1308.873817
702.0000,1314.871571
703.0000,1324.730801
704.0000,1318.377578
705.0000,1345.170786
706.0000,1352.675881
707.0000,1381.818306
708.0000,1404.596997
709.0000,1425.424355
710.0000,1472.931647
711.0000,1504.126825
712.0000,1514.975750
713.0000,1507.022539
714.0000,1475.335421
715.0000,1443.549388
716.0000,1415.127624
717.0000,1391.028771
718.0000,1375.524795
719.0000,1364.758288
720.0000,1356.763066
721.0000,1340.843031
722.0000,1346.371074
723.0000,1350.944323
724.0000,1349.111232
725.0000,1336.580796
726.0000,1335.824763
727.0000,1342.147338
728.0000,1344.410931
729.0000,1345.006376
730.0000,1330.317037
731.0000,1347.289129
732.0000,1352.175117
733.0000,1356.522676
734.0000,1347.302570
735.0000,1353.176512
736.0000,1347.577611
737.0000,1357.975960
738.0000,1344.678840
739.0000,1351.971394
740.0000,1349.953956
741.0000,1360.084991
742.0000,1356.977361
743.0000,1357.284155
744.0000,1370.930904
745.0000,1360.154274
746.0000,1372.142087
747.0000,1363.754492
748.0000,1362.928632
749.0000,1358.182698
750.0000,1372.861363
751.0000,1377.718796
752.0000,1374.642750
753.0000,1385.325256
754.0000,1383.517046
755.0000,1383.467173
756.0000,1387.467433
757.0000,1389.991561
758.0000,1401.821878
759.0000,1385.287914
760.0000,1386.256426
761.0000,1398.072058
762.0000,1396.057605
763.0000,1392.091158
764.0000,1400.824976
765.0000,1399.202213
766.0000,1396.283435
767.0000,1409.328100
768.0000,1402.402793
769.0000,1412.251148
770.0000,1408.365303
771.0000,1421.683952
772.0000,1417.332724
773.0000,1418.810677
774.0000,1420.051940
775.0000,1426.371719
776.0000,1411.504466
777.0000,1415.225717
778.0000,1432.296318
779.0000,1430.717200
780.0000,1420.444287
781.0000,1428.811128
782.0000,1431.296280
783.0000,1447.184963
784.0000,1432.570998
785.0000,1446.991855
786.0000,1436.479658
787.0000,1440.783549
788.0000,1448.323724
789.0000,1442.421700
790.0000,1450.665724
791.0000,1451.995019
792.0000,1457.751866
793.0000,1453.246850
794.0000,1455.140558
795.0000,1454.335788
796.0000,1445.760948
797.0000,1457.634001
798.0000,1462.178518
799.0000,1478.839811
800.0000,1456.788795
801.0000,1462.908754
802.0000,1479.803804
803.0000,1471.259049
804.0000,1487.707024
805.0000,1480.259629
806.0000,1475.945520
807.0000,1480.585217
808.0000,1486.007356
809.0000,1488.311116
810.0000,1489.859674
811.0000,1487.838652
812.0000,1500.327074
813.0000,1497.635208
814.0000,1492.182171
815.0000,1495.693567
816.0000,1495.023563
817.0000,1502.786243
818.0000,1507.887712
819.0000,1505.690066
820.0000,1504.637853
821.0000,1502.292535
822.0000,1511.187020
823.0000,1508.854062
824.0000,1515.585704
825.0000,1521.909038
826.0000,1524.998012
827.0000,1535.916373
828.0000,1526.910760
829.0000,1513.079913
830.0000,1531.011848
831.0000,1521.092466
832.0000,1524.636182
833.0000,1527.510337
834.0000,1520.551093
835.0000,1535.387951
836.0000,1534.561514
837.0000,1542.423671
838.0000,1547.423846
839.0000,1546.426863
840.0000,1542.580801
841.0000,1549.219503
842.0000,1547.574073
843.0000,1544.394606
844.0000,1549.048997
845.0000,1548.508102
846.0000,1550.505628
847.0000,1554.869541
848.0000,1566.471421
849.0000,1566.761700
850.0000,1574.405229
851.0000,1569.786395
852.0000,1563.948565
853.0000,1557.932801
854.0000,1579.844536
855.0000,1575.904292
856.0000,1563.427685
857.0000,1585.468698
858.0000,1586.343686
859.0000,1574.241542
860.0000,1570.892766
861.0000,1585.250915
862.0000,1581.788031
863.0000,1583.848853
864.0000,1585.685342
865.0000,1586.447790
866.0000,1593.475094
867.0000,1602.621160
868.0000,1596.039786
869.0000,1607.653390
870.0000,1593.373737
871.0000,1606.936347
872.0000,1608.123122
873.0000,1605.239076
874.0000,1614.455137
875.0000,1602.312132
876.0000,1609.858934
877.0000,1618.528798
878.0000,1625.913440
879.0000,1620.413432
880.0000,1621.513500
881.0000,1616.643990
882.0000,1624.134922
883.0000,1619.963820
884.0000,1613.654825
885.0000,1629.699287
886.0000,1624.724184
887.0000,1636.472801
888.0000,1630.425978
889.0000,1632.140820
890.0000,1641.807486
891.0000,1633.678934
892.0000,1653.505366
893.0000,1643.895502
894.0000,1639.027219
895.0000,1654.084126
896.0000,1641.310824
897.0000,1657.929071
898.0000,1660.053642
899.0000,1659.012294
900.0000,1650.184272
901.0000,1664.485834
902.0000,1666.957693
903.0000,1662.118507
904.0000,1666.156846
905.0000,1655.799937
906.0000,1670.710778
907.0000,1665.808559
908.0000,1674.242663
909.0000,1671.159490
910.0000,1680.193461
911.0000,1676.225533
912.0000,1683.288996
913.0000,1676.943437
914.0000,1674.838034
915.0000,1676.699964
916.0000,1683.218434
917.0000,1690.216323
918.0000,1684.114753
919.0000,1696.652400
920.0000,1685.247052
921.0000,1696.358546
922.0000,1706.415119
923.0000,1706.764071
924.0000,1702.962981
925.0000,1695.991795
926.0000,1699.162432
927.0000,1701.521304
928.0000,1704.364955
929.0000,1702.760667
930.0000,1716.037325
931.0000,1713.489139
932.0000,1707.878718
933.0000,1715.738468
934.0000,1725.410773
935.0000,1716.151054
936.0000,1729.726663
937.0000,1718.672115
938.0000,1717.026973
939.0000,1728.907709
940.0000,1739.482701
941.0000,1729.843526
942.0000,1722.507843
943.0000,1729.351923
944.0000,1738.862235
945.0000,1740.713065
946.0000,1737.026747
947.0000,1741.670561
948.0000,1742.309516
949.0000,1739.028691
950.0000,1745.077861
951.0000,1750.143598
952.0000,1753.324960
953.0000,1761.587750
954.0000,1754.852290
955.0000,1746.367465
956.0000,1748.323776
957.0000,1755.088967
958.0000,1760.185026
959.0000,1757.403048
960.0000,1772.410182
961.0000,1757.253652
962.0000,1766.039994
963.0000,1760.620550
964.0000,1771.638027
965.0000,1778.083987
966.0000,1769.217103
967.0000,1773.699875
968.0000,1776.817527
969.0000,1787.362318
970.0000,1769.296260
971.0000,1780.346867
972.0000,1794.247518
973.0000,1790.824357
974.0000,1780.895246
975.0000,1797.548691
976.0000,1799.622787
977.0000,1793.658565
978.0000,1801.701952
979.0000,1809.395773
980.0000,1802.998298
981.0000,1812.958293
982.0000,1802.470667
983.0000,1811.546982
984.0000,1807.136370
985.0000,1799.594122
986.0000,1807.723693
987.0000,1811.532193
988.0000,1818.106635
989.0000,1820.171725
990.0000,1811.692265
991.0000,1819.970737
992.0000,1820.624554
993.0000,1826.525834
994.0000,1828.217831
995.0000,1817.732704
996.0000,1827.072324
997.0000,1822.922881
998.0000,1835.324384
999.0000,1818.001728
1000.0000,1829.635320
1001.0000,1832.717718
1002.0000,1840.247786
1003.0000,1837.298955
1004.0000,1838.743419
1005.0000,1847.739393
1006.0000,1842.499041
1007.0000,1852.324679
1008.0000,1851.266579
1009.0000,1842.784328
1010.0000,1849.212812
1011.0000,1853.718031
1012.0000,1859.677942
1013.0000,1853.609124
1014.0000,1857.542454
1015.0000,1862.872001
1016.0000,1870.522805
1017.0000,1875.776503
1018.0000,1869.745308
1019.0000,1873.285209
1020.0000,1883.425865
1021.0000,1863.781206
1022.0000,1872.442206
1023.0000,1871.242004
1024.0000,1885.349070
1025.0000,1875.744650
1026.0000,1876.733331
1027.0000,1875.150506
1028.0000,1878.254508
1029.0000,1887.127255
1030.0000,1890.791546
1031.0000,1886.264730
1032.0000,1899.482507
1033.0000,1882.174255
1034.0000,1892.863372
1035.0000,1900.092575
1036.0000,1895.397131
1037.0000,1902.593876
1038.0000,1902.910519
1039.0000,1910.606982
1040.0000,1902.554975
1041.0000,1904.940886
1042.0000,1912.453044
1043.0000,1914.402523
1044.0000,1916.558591
1045.0000,1907.205188
1046.0000,1917.786358
1047.0000,1921.175261
1048.0000,1916.913955
1049.0000,1924.898931
1050.0000,1938.842326
1051.0000,1925.034388
1052.0000,1932.611981
1053.0000,1919.539009
1054.0000,1938.341600
1055.0000,1929.519060
1056.0000,1948.083930
1057.0000,1935.129769
1058.0000,1938.189083
1059.0000,1939.195338
1060.0000,1948.697530
1061.0000,1955.892530
1062.0000,1959.241994
1063.0000,1956.859111
1064.0000,1970.308628
1065.0000,1967.581415
1066.0000,1973.651360
1067.0000,1979.690250
1068.0000,1974.246243
1069.0000,1980.468462
1070.0000,1992.353272
1071.0000,1995.588903
1072.0000,2003.914028
1073.0000,2020.667157
1074.0000,2028.841791
1075.0000,2037.598513
1076.0000,2058.993299
1077.0000,2085.698703
1078.0000,2120.208352
1079.0000,2146.752851
1080.0000,2203.353101
1081.0000,2282.389936
1082.0000,2395.582637
1083.0000,2532.695111
1084.0000,2726.534739
1085.0000,2883.655562
1086.0000,2963.414957
1087.0000,2897.403180
1088.0000,2714.559468
1089.0000,2539.752799
1090.0000,2413.926510
1091.0000,2303.636663
1092.0000,2235.982827
1093.0000,2180.349681
1094.0000,2136.078132
1095.0000,2112.753683
1096.0000,2099.664903
1097.0000,2080.882701
1098.0000,2065.308321
1099.0000,2056.740673
1100.0000,2051.545276
1101.0000,2047.413513
1102.0000,2033.827771
1103.0000,2031.833077
1104.0000,2026.271994
1105.0000,2031.992685
1106.0000,2035.559376
1107.0000,2029.712700
1108.0000,2025.494864
1109.0000,2020.379354
1110.0000,2023.614295
1111.0000,2025.279623
1112.0000,2031.941571
1113.0000,2025.154582
1114.0000,2034.349276
1115.0000,2024.069311
1116.0000,2034.505554
1117.0000,2027.238636
1118.0000,2018.493128
1119.0000,2024.432022
1120.0000,2030.431125
1121.0000,2029.413169
1122.0000,2032.921455
1123.0000,2036.825565
1124.0000,2031.685923
1125.0000,2040.573536
1126.0000,2026.806809
1127.0000,2036.012168
1128.0000,2042.544258
1129.0000,2033.954255
1130.0000,2037.247818
1131.0000,2037.992766
1132.0000,2044.414638
1133.0000,2043.791811
1134.0000,2040.257439
1135.0000,2048.405673
1136.0000,2059.191682
1137.0000,2050.886442
1138.0000,2058.339516
1139.0000,2041.427813
1140.0000,2053.318393
1141.0000,2045.734886
1142.0000,2044.602924
1143.0000,2055.911263
1144.0000,2058.975570
1145.0000,2067.983895
1146.0000,2049.706556
1147.0000,2074.656616
1148.0000,2060.909152
1149.0000,2057.313335
1150.0000,2064.247823
1151.0000,2070.989887
1152.0000,2066.315646
1153.0000,2054.864469
1154.0000,2067.495187
1155.0000,2065.556125
1156.0000,2071.396659
1157.0000,2074.273416
1158.0000,2082.274376
1159.0000,2085.109148
1160.0000,2080.471791
1161.0000,2072.636286
1162.0000,2091.034264
1163.0000,2088.326929
1164.0000,2075.588460
1165.0000,2088.400652
1166.0000,2081.631107
1167.0000,2076.511739
1168.0000,2086.575477
1169.0000,2087.500531
1170.0000,2091.834876
1171.0000,2086.829625
1172.0000,2086.297850
1173.0000,2095.414564
1174.0000,2092.568850
1175.0000,2098.140626
1176.0000,2095.066454
1177.0000,2091.585676
1178.0000,2112.908562
1179.0000,2107.289217
1180.0000,2095.249658
1181.0000,2097.051260
1182.0000,2107.738247
1183.0000,2109.132564
1184.0000,2096.553971
1185.0000,2106.388130
1186.0000,2107.808732
1187.0000,2115.119927
1188.0000,2112.970519
1189.0000,2113.330325
1190.0000,2112.120182
1191.0000,2111.013436
1192.0000,2110.533857
1193.0000,2115.197618
1194.0000,2111.014260
1195.0000,2126.647638
1196.0000,2118.385654
1197.0000,2125.471900
1198.0000,2119.967905
1199.0000,2121.288178
1200.0000,2122.543437
1201.0000,2124.794314
1202.0000,2126.897831
1203.0000,2126.035352
1204.0000,2121.820765
1205.0000,2135.383168
1206.0000,2129.511813
1207.0000,2127.841608
1208.0000,2131.529894
1209.0000,2136.443509
1210.0000,2140.919940
1211.0000,2125.103843
1212.0000,2150.859742
1213.0000,2135.886528
1214.0000,2140.814405
1215.0000,2146.291979
1216.0000,2145.208849
1217.0000,2144.518667
1218.0000,2140.612984
1219.0000,2142.814659
1220.0000,2141.211229
1221.0000,2141.894702
1222.0000,2156.436734
1223.0000,2148.621191
1224.0000,2151.799551
1225.0000,2148.550279
1226.0000,2146.011799
1227.0000,2160.519360
1228.0000,2156.687565
1229.0000,2160.612563
1230.0000,2160.945770
1231.0000,2146.617591
1232.0000,2168.059189
1233.0000,2163.557831
1234.0000,2161.219605
1235.0000,2161.474935
1236.0000,2169.721993
1237.0000,2169.192719
1238.0000,2155.798991
1239.0000,2164.416263
1240.0000,2175.151074
1241.0000,2165.273178
1242.0000,2168.290013
1243.0000,2167.905390
1244.0000,2178.144574
1245.0000,2172.755300
1246.0000,2173.429694
1247.0000,2170.583274
1248.0000,2173.795743
1249.0000,2171.024867
1250.0000,2169.415040
1251.0000,2184.446800
1252.0000,2183.344686
1253.0000,2183.381284
1254.0000,2196.443086
1255.0000,2184.999659
1256.0000,2180.606785
1257.0000,2183.086086
1258.0000,2180.427748
1259.0000,2189.662476
1260.0000,2183.957974
1261.0000,2185.180619
1262.0000,2188.929740
1263.0000,2180.627163
1264.0000,2186.980142
1265.0000,2180.775257
1266.0000,2195.471009
1267.0000,2182.581580
1268.0000,2193.820234
1269.0000,2188.900917
1270.0000,2186.034615
1271.0000,2196.563718
1272.0000,2189.744629
1273.0000,2203.854793
1274.0000,2198.347950
1275.0000,2204.476381
1276.0000,2189.027204
1277.0000,2205.489810
1278.0000,2207.619896
1279.0000,2204.032319
1280.0000,2198.635380
1281.0000,2203.483550
1282.0000,2204.724235
1283.0000,2210.451099
1284.0000,2208.390786
1285.0000,2202.264962
1286.0000,2199.892859
1287.0000,2215.252455
1288.0000,2213.033099
1289.0000,2219.668996
1290.0000,2213.533041
1291.0000,2213.805616
1292.0000,2210.023954
1293.0000,2208.802408
1294.0000,2214.394258
1295.0000,2214.808544
1296.0000,2211.594415
1297.0000,2220.167959
1298.0000,2222.791674
1299.0000,2221.009020
1300.0000,2211.393856
1301.0000,2215.638793
1302.0000,2216.441492
1303.0000,2218.800681
1304.0000,2227.682967
1305.0000,2237.870433
1306.0000,2230.671554
1307.0000,2221.688923
1308.0000,2224.599494
1309.0000,2231.291748
1310.0000,2231.080570
1311.0000,2233.732974
1312.0000,2226.488440
1313.0000,2236.335291
1314.0000,2232.388313
1315.0000,2226.396172
1316.0000,2232.837052
1317.0000,2234.836138
1318.0000,2235.367741
1319.0000,2240.985080
1320.0000,2241.491621
1321.0000,2237.902904
1322.0000,2236.836025
1323.0000,2238.566206
1324.0000,2230.711624
1325.0000,2250.261422
1326.0000,2245.825604
1327.0000,2248.862564
1328.0000,2240.943700
1329.0000,2249.046656
1330.0000,2248.055766
1331.0000,2242.800982
1332.0000,2233.030544
1333.0000,2247.512051
1334.0000,2237.679094
1335.0000,2248.852945
1336.0000,2245.090135
1337.0000,2250.590342
1338.0000,2246.784693
1339.0000,2251.297998
1340.0000,2245.082434
1341.0000,2253.640586
1342.0000,2248.672728
1343.0000,2254.231826
1344.0000,2247.271294
1345.0000,2249.848209
1346.0000,2260.258298
1347.0000,2258.967322
1348.0000,2246.664734
1349.0000,2253.534600
1350.0000,2248.682535
1351.0000,2256.459220
1352.0000,2252.688714
1353.0000,2254.016518
1354.0000,2258.938188
1355.0000,2268.065927
1356.0000,2255.527757
1357.0000,2258.597319
1358.0000,2274.329879
1359.0000,2258.970696
1360.0000,2264.148244
1361.0000,2257.275984
1362.0000,2266.712764
1363.0000,2262.941084
1364.0000,2250.723421
1365.0000,2262.810109
1366.0000,2270.549996
1367.0000,2280.967023
1368.0000,2256.428941
1369.0000,2262.827525
1370.0000,2275.694319
1371.0000,2256.810370
1372.0000,2269.436042
1373.0000,2268.389926
1374.0000,2273.310128
1375.0000,2269.826764
1376.0000,2281.108578
1377.0000,2273.581047
1378.0000,2269.931948
1379.0000,2272.939119
1380.0000,2264.165654
1381.0000,2270.512286
1382.0000,2283.496541
1383.0000,2275.526794
1384.0000,2280.531027
1385.0000,2272.784606
1386.0000,2268.004265
1387.0000,2269.820344
1388.0000,2271.317886
1389.0000,2282.297758
1390.0000,2276.885277
1391.0000,2266.790652
1392.0000,2278.066154
1393.0000,2277.092320
1394.0000,2281.949550
1395.0000,2263.076726
1396.0000,2291.943211
1397.0000,2284.898051
1398.0000,2284.598485
1399.0000,2276.206105
1400.0000,2280.359673
1401.0000,2293.509587
1402.0000,2293.586120
1403.0000,2284.770544
1404.0000,2279.644468
1405.0000,2276.196596
1406.0000,2292.800762
1407.0000,2296.456615
1408.0000,2287.060187
1409.0000,2292.959619
1410.0000,2296.463331
1411.0000,2300.704061
1412.0000,2305.138555
1413.0000,2291.991528
1414.0000,2301.004713
1415.0000,2295.008567
1416.0000,2300.853374
1417.0000,2313.530988
1418.0000,2306.975993
1419.0000,2298.212833
1420.0000,2310.386300
1421.0000,2319.083243
1422.0000,2322.006262
1423.0000,2318.436385
1424.0000,2319.199577
1425.0000,2328.727255
1426.0000,2327.928476
1427.0000,2332.023307
1428.0000,2336.535786
1429.0000,2339.323134
1430.0000,2353.909177
1431.0000,2360.401841
1432.0000,2355.823539
1433.0000,2365.478138
1434.0000,2363.123004
1435.0000,2374.390018
1436.0000,2381.827619
1437.0000,2367.738681
1438.0000,2364.150155
1439.0000,2373.516788
1440.0000,2374.183383
1441.0000,2360.001488
1442.0000,2355.685428
1443.0000,2347.142712
1444.0000,2338.980884
1445.0000,2330.761786
1446.0000,2335.145748
1447.0000,2327.546787
1448.0000,2322.589416
1449.0000,2315.770348
1450.0000,2320.150886
1451.0000,2307.295662
1452.0000,2324.836089
1453.0000,2310.618795
1454.0000,2313.085993
1455.0000,2315.891462
1456.0000,2312.313996
1457.0000,2307.122975
1458.0000,2316.187127
1459.0000,2313.351896
1460.0000,2314.027108
1461.0000,2313.870348
1462.0000,2307.968531
1463.0000,2309.314429
1464.0000,2306.481131
1465.0000,2300.139179
1466.0000,2308.926001
1467.0000,2309.198060
1468.0000,2316.646992
1469.0000,2304.407562
1470.0000,2301.559306
1471.0000,2297.351416
1472.0000,2301.953649
1473.0000,2306.016803
1474.0000,2307.999372
1475.0000,2305.676870
1476.0000,2310.261868
1477.0000,2307.581709
1478.0000,2313.900790
1479.0000,2292.416858
1480.0000,2301.843470
1481.0000,2308.930414
1482.0000,2298.374793
1483.0000,2299.332887
1484.0000,2307.903749
1485.0000,2299.824413
1486.0000,2304.518916
1487.0000,2299.966572
1488.0000,2307.351162
1489.0000,2302.176180
1490.0000,2296.152891
1491.0000,2305.097431
1492.0000,2307.923769
1493.0000,2307.929012
1494.0000,2296.362946
1495.0000,2297.894784
1496.0000,2304.041110
1497.0000,2296.698595
1498.0000,2305.225197
1499.0000,2298.906213
1500.0000,2295.136821
1501.0000,2295.603205
1502.0000,2307.830285
1503.0000,2302.383283
1504.0000,2305.401420
1505.0000,2300.186115
1506.0000,2292.471101
1507.0000,2302.769373
1508.0000,2299.224815
1509.0000,2301.086066
1510.0000,2303.652607
1511.0000,2308.417325
1512.0000,2298.334389
1513.0000,2303.622985
1514.0000,2290.146724
1515.0000,2302.504644
1516.0000,2301.867878
1517.0000,2299.239458
1518.0000,2301.085332
1519.0000,2300.076824
1520.0000,2302.865040
1521.0000,2304.423035
1522.0000,2313.264581
1523.0000,2302.513253
1524.0000,2299.225766
1525.0000,2298.745826
1526.0000,2306.369509
1527.0000,2297.613099
1528.0000,2307.242966
1529.0000,2297.419544
1530.0000,2303.493766
1531.0000,2289.787774
1532.0000,2307.701111
1533.0000,2295.400433
1534.0000,2296.608517
1535.0000,2292.777919
1536.0000,2286.454379
1537.0000,2303.024691
1538.0000,2300.004187
1539.0000,2297.202931
1540.0000,2296.628774
1541.0000,2291.997519
1542.0000,2286.295483
1543.0000,2291.932637
1544.0000,2301.905157
1545.0000,2302.990062
1546.0000,2300.290405
1547.0000,2297.814204
1548.0000,2304.371014
1549.0000,2294.857008
1550.0000,2291.725519
1551.0000,2291.644893
1552.0000,2291.069712
1553.0000,2290.036984
1554.0000,2292.798254
1555.0000,2300.740982
1556.0000,2290.045606
1557.0000,2280.430744
1558.0000,2299.802277
1559.0000,2289.089471
1560.0000,2290.689462
1561.0000,2307.829470
1562.0000,2301.119130
1563.0000,2287.195377
1564.0000,2291.406527
1565.0000,2291.726873
1566.0000,2284.687142
1567.0000,2293.872146
1568.0000,2295.511842
1569.0000,2301.987851
1570.0000,2282.225838
1571.0000,2296.598792
1572.0000,2293.471517
1573.0000,2294.420940
1574.0000,2294.610481
1575.0000,2287.251443
1576.0000,2297.664918
1577.0000,2293.880586
1578.0000,2311.318502
1579.0000,2291.691178
1580.0000,2290.747371
1581.0000,2287.378575
1582.0000,2292.276117
1583.0000,2289.652561
1584.0000,2292.001370
1585.0000,2298.242990
1586.0000,2297.430496
1587.0000,2293.575062
1588.0000,2286.760785
1589.0000,2281.402667
1590.0000,2289.027335
1591.0000,2290.901372
1592.0000,2283.225205
1593.0000,2290.870634
1594.0000,2291.754558
1595.0000,2285.938904
1596.0000,2274.293718
1597.0000,2274.619801
1598.0000,2286.839905
1599.0000,2286.092298
1600.0000,2276.214611
1601.0000,2281.308967
1602.0000,2273.973320
1603.0000,2273.298276
1604.0000,2283.513373
1605.0000,2288.892390
1606.0000,2272.290103
1607.0000,2285.774175
1608.0000,2285.454708
1609.0000,2278.617469
1610.0000,2284.203833
1611.0000,2279.348151
1612.0000,2270.936334
1613.0000,2274.611760
1614.0000,2275.504629
1615.0000,2276.708578
1616.0000,2275.438321
1617.0000,2270.512360
1618.0000,2276.904819
1619.0000,2277.525771
1620.0000,2272.541576
1621.0000,2284.842608
1622.0000,2270.191369
1623.0000,2281.492925
1624.0000,2276.443248
1625.0000,2278.051629
1626.0000,2273.174270
1627.0000,2270.712881
1628.0000,2270.696925
1629.0000,2259.724999
1630.0000,2262.731523
1631.0000,2274.845104
1632.0000,2275.158493
1633.0000,2266.823197
1634.0000,2273.079278
1635.0000,2280.444110
1636.0000,2275.422990
1637.0000,2261.802503
1638.0000,2265.110974
1639.0000,2265.664816
1640.0000,2268.209964
1641.0000,2267.945733
1642.0000,2266.839273
1643.0000,2266.681595
1644.0000,2269.200058
1645.0000,2266.529483
1646.0000,2262.893714
1647.0000,2260.124597
1648.0000,2266.897287
1649.0000,2260.408172
1650.0000,2276.158304
1651.0000,2260.006947
1652.0000,2254.199892
1653.0000,2260.212265
1654.0000,2255.509233
1655.0000,2256.606973
1656.0000,2261.951352
1657.0000,2254.780012
1658.0000,2254.053948
1659.0000,2250.827537
1660.0000,2253.963855
1661.0000,2253.361915
1662.0000,2261.531591
1663.0000,2243.982238
1664.0000,2252.301398
1665.0000,2264.929150
1666.0000,2233.987974
1667.0000,2256.464745
1668.0000,2246.231280
1669.0000,2252.307489
1670.0000,2254.844482
1671.0000,2247.753050
1672.0000,2247.546500
1673.0000,2248.448469
1674.0000,2233.809573
1675.0000,2239.439722
1676.0000,2252.601614
1677.0000,2241.973714
1678.0000,2258.365055
1679.0000,2245.569873
1680.0000,2242.856659
1681.0000,2249.254826
1682.0000,2233.356237
1683.0000,2255.012808
1684.0000,2248.532830
1685.0000,2237.991332
1686.0000,2228.542175
1687.0000,2242.489209
1688.0000,2238.824447
1689.0000,2231.802661
1690.0000,2239.508284
1691.0000,2238.991206
1692.0000,2236.426445
1693.0000,2227.784734
1694.0000,2241.648176
1695.0000,2244.136068
1696.0000,2248.547727
1697.0000,2235.484577
1698.0000,2232.182649
1699.0000,2227.948008
1700.0000,2234.135916
1701.0000,2219.623696
1702.0000,2236.985699
1703.0000,2239.280842
1704.0000,2224.411652
1705.0000,2224.124763
1706.0000,2215.775758
1707.0000,2229.386303
1708.0000,2226.238951
1709.0000,2227.683280
1710.0000,2224.421179
1711.0000,2221.288758
1712.0000,2225.979036
1713.0000,2224.496483
1714.0000,2227.458593
1715.0000,2226.407574
1716.0000,2227.902475
1717.0000,2224.943925
1718.0000,2227.622653
1719.0000,2220.532039
1720.0000,2223.765140
1721.0000,2216.148252
1722.0000,2213.857295
1723.0000,2208.888731
1724.0000,2209.088485
1725.0000,2211.951723
1726.0000,2226.730550
1727.0000,2219.099393
1728.0000,2213.085592
1729.0000,2205.599398
1730.0000,2212.336984
1731.0000,2209.012952
1732.0000,2208.286840
1733.0000,2213.349981
1734.0000,2213.316152
1735.0000,2212.069595
1736.0000,2202.226942
1737.0000,2209.292517
1738.0000,2211.296415
1739.0000,2195.840838
1740.0000,2199.936753
1741.0000,2212.792733
1742.0000,2197.159126
1743.0000,2196.461551
1744.0000,2206.721016
1745.0000,2196.286115
1746.0000,2200.409911
1747.0000,2186.234679
1748.0000,2189.235306
1749.0000,2195.491582
1750.0000,2208.230408
1751.0000,2190.572624
1752.0000,2194.430732
1753.0000,2190.468703
1754.0000,2191.870477
1755.0000,2186.114579
1756.0000,2174.584230
1757.0000,2187.416670
1758.0000,2178.262641
1759.0000,2184.399313
1760.0000,2188.384173
1761.0000,2194.460941
1762.0000,2193.137486
1763.0000,2185.928040
1764.0000,2178.322244
1765.0000,2179.911111
1766.0000,2189.491932
1767.0000,2183.543429
1768.0000,2180.582295
1769.0000,2185.634762
1770.0000,2171.610611
1771.0000,2190.031181
1772.0000,2182.219378
1773.0000,2169.903016
1774.0000,2171.508221
1775.0000,2179.827973
1776.0000,2169.231976
1777.0000,2172.462611
1778.0000,2184.109926
1779.0000,2168.978009
1780.0000,2170.213188
1781.0000,2175.054573
1782.0000,2174.468624
1783.0000,2179.461775
1784.0000,2162.135502
1785.0000,2167.268171
1786.0000,2168.122726
1787.0000,2160.241146
1788.0000,2161.254299
1789.0000,2167.596479
1790.0000,2160.407291
1791.0000,2160.695960
1792.0000,2155.977620
1793.0000,2153.227776
1794.0000,2152.755943
1795.0000,2163.176429
1796.0000,2168.235381
1797.0000,2154.211391
1798.0000,2166.802051
1799.0000,2149.316439
1800.0000,2150.056861
1801.0000,2146.840889
1802.0000,2149.975546
1803.0000,2154.072515
1804.0000,2151.068768
1805.0000,2146.645481
1806.0000,2154.463639
1807.0000,2141.831692
1808.0000,2145.164372
1809.0000,2136.429689
1810.0000,2154.878887
1811.0000,2139.875610
1812.0000,2147.686562
1813.0000,2131.857346
1814.0000,2140.338664
1815.0000,2145.954265
1816.0000,2145.965425
1817.0000,2138.465405
1818.0000,2134.211119
1819.0000,2130.663027
1820.0000,2136.433343
1821.0000,2137.576256
1822.0000,2137.751384
1823.0000,2127.521574
1824.0000,2130.526422
1825.0000,2124.741337
1826.0000,2118.836801
1827.0000,2129.731626
1828.0000,2120.942598
1829.0000,2127.673570
1830.0000,2124.244696
1831.0000,2128.889798
1832.0000,2119.969265
1833.0000,2121.843231
1834.0000,2123.784341
1835.0000,2119.684805
1836.0000,2112.828265
1837.0000,2121.717909
1838.0000,2126.577562
1839.0000,2114.961904
1840.0000,2115.202907
1841.0000,2114.053883
1842.0000,2103.501808
1843.0000,2113.892941
1844.0000,2117.319591
1845.0000,2104.673475
1846.0000,2106.317780
1847.0000,2114.311779
1848.0000,2116.186234
1849.0000,2094.109166
1850.0000,2110.118473
1851.0000,2094.877046
1852.0000,2107.193262
1853.0000,2102.367772
1854.0000,2108.304870
1855.0000,2090.730935
1856.0000,2092.793910
1857.0000,2090.622219
1858.0000,2102.955316
1859.0000,2105.175875
1860.0000,2102.595424
1861.0000,2088.021233
1862.0000,2089.987616
1863.0000,2085.413954
1864.0000,2086.940958
1865.0000,2091.068459
1866.0000,2099.320752
1867.0000,2086.227851
1868.0000,2078.311563
1869.0000,2090.998650
1870.0000,2091.584758
1871.0000,2094.156750
1872.0000,2090.752704
1873.0000,2083.643078
1874.0000,2066.642365
1875.0000,2085.503391
1876.0000,2073.751908
1877.0000,2080.096968
1878.0000,2070.411404
1879.0000,2086.847850
1880.0000,2076.082143
1881.0000,2072.812250
1882.0000,2076.777025
1883.0000,2063.954351
1884.0000,2061.309315
1885.0000,2072.623615
1886.0000,2076.606254
1887.0000,2066.962262
1888.0000,2067.151559
1889.0000,2062.406421
1890.0000,2067.503416
1891.0000,2059.346071
1892.0000,2060.294165
1893.0000,2053.182156
1894.0000,2061.228476
1895.0000,2064.810131
1896.0000,2059.539068
1897.0000,2066.078044
1898.0000,2055.266367
1899.0000,2049.696359
1900.0000,2051.432324
1901.0000,2051.544311
1902.0000,2052.905071
1903.0000,2058.938212
1904.0000,2050.956839
1905.0000,2062.190230
1906.0000,2039.944759
1907.0000,2057.710769
1908.0000,2050.583346
1909.0000,2041.464851
1910.0000,2048.877558
1911.0000,2049.131341
1912.0000,2050.567991
1913.0000,2048.713302
1914.0000,2043.879066
1915.0000,2033.698645
1916.0000,2043.825345
1917.0000,2042.830669
1918.0000,2039.836561
1919.0000,2035.767770
1920.0000,2036.144541
1921.0000,2040.874865
1922.0000,2030.342319
1923.0000,2041.260149
1924.0000,2025.508207
1925.0000,2018.718627
1926.0000,2026.256270
1927.0000,2031.043151
1928.0000,2029.012935
1929.0000,2018.635179
1930.0000,2025.744661
1931.0000,2019.235004
1932.0000,2029.026253
1933.0000,2022.402839
1934.0000,2023.227125
1935.0000,2037.391522
1936.0000,2014.080062
1937.0000,2017.186358
1938.0000,2017.038642
1939.0000,2008.083424
1940.0000,2012.230277
1941.0000,2023.428541
1942.0000,2009.290091
1943.0000,2001.535733
1944.0000,2010.390692
1945.0000,2008.813198
1946.0000,2012.397516
1947.0000,2018.948279
1948.0000,1998.219590
1949.0000,1990.687722
1950.0000,1994.032549
1951.0000,2001.440413
1952.0000,2003.956947
1953.0000,2003.739985
1954.0000,2003.153310
1955.0000,1998.411180
1956.0000,2003.744763
1957.0000,1982.484730
1958.0000,2000.661765
1959.0000,1990.726728
1960.0000,1986.171267
1961.0000,1987.349195
1962.0000,1988.229636
1963.0000,1983.822414
1964.0000,1979.786064
1965.0000,1984.374367
1966.0000,1986.152471
1967.0000,1984.107033
1968.0000,1977.478850
1969.0000,1978.659301
1970.0000,1979.300757
1971.0000,1976.307335
1972.0000,1975.464012
1973.0000,1972.021711
1974.0000,1968.773216
1975.0000,1982.885613
1976.0000,1971.961991
1977.0000,1971.001730
1978.0000,1961.731845
1979.0000,1964.873157
1980.0000,1963.021745
1981.0000,1971.880753
1982.0000,1960.459571
1983.0000,1978.306976
1984.0000,1955.633481
1985.0000,1971.390341
1986.0000,1969.248639
1987.0000,1963.940160
1988.0000,1962.593398
1989.0000,1965.008853
1990.0000,1947.801773
1991.0000,1965.642321
1992.0000,1947.172637
1993.0000,1961.174572
1994.0000,1946.084249
1995.0000,1944.350101
1996.0000,1951.913053
1997.0000,1937.129419
1998.0000,1948.050237
1999.0000,1950.119028
2000.0000,1948.581483
