raman_shift_cm-1,intensity
200.0000,4.049415
201.0000,1.450897
202.0000,6.801242
203.0000,4.517826
204.0000,-4.060390
205.0000,7.310982
206.0000,-0.222607
207.0000,-5.080015
208.0000,-5.941436
209.0000,6.631160
210.0000,-7.416444
211.0000,-1.534709
212.0000,-0.795669
213.0000,0.063543
214.0000,6.771012
215.0000,10.332162
216.0000,-4.922858
217.0000,10.500698
218.0000,3.799839
219.0000,1.995908
220.0000,11.551931
221.0000,5.642644
222.0000,15.559288
223.0000,-6.637159
224.0000,-10.572022
225.0000,-10.106481
226.0000,9.751260
227.0000,3.173445
228.0000,-4.337844
229.0000,-6.655881
230.0000,8.715180
231.0000,2.138223
232.0000,12.367525
233.0000,-3.265125
234.0000,5.592033
235.0000,-1.268447
236.0000,16.063869
237.0000,10.331833
238.0000,0.985342
239.0000,9.760738
240.0000,-5.977750
241.0000,-2.521979
242.0000,3.465065
243.0000,12.343631
244.0000,1.149968
245.0000,-2.234481
246.0000,3.133554
247.0000,5.531609
248.0000,-5.712066
249.0000,6.698334
250.0000,5.681696
251.0000,0.207882
252.0000,5.686130
253.0000,5.704987
254.0000,15.099200
255.0000,-2.671525
256.0000,1.808340
257.0000,2.966187
258.0000,1.641700
259.0000,0.050080
260.0000,0.942128
261.0000,9.893682
262.0000,5.902738
263.0000,-10.448386
264.0000,15.523946
265.0000,5.568229
266.0000,-6.386494
267.0000,15.829069
268.0000,8.487005
269.0000,17.997812
270.0000,-5.261492
271.0000,12.405866
272.0000,-1.384947
273.0000,0.916050
274.0000,14.156450
275.0000,1.517905
276.0000,7.306831
277.0000,4.074562
278.0000,2.432622
279.0000,9.661038
280.0000,14.061303
281.0000,11.732832
282.0000,5.993869
283.0000,7.782658
284.0000,-2.809503
285.0000,13.736803
286.0000,3.801168
287.0000,2.546859
288.0000,19.713540
289.0000,14.579953
290.0000,5.897109
291.0000,17.836941
292.0000,7.591924
293.0000,13.403576
294.0000,17.756259
295.0000,13.134694
296.0000,8.017449
297.0000,4.925247
298.0000,14.337065
299.0000,22.452798
300.0000,17.384299
301.0000,6.931706
302.0000,26.787664
303.0000,4.130853
304.0000,23.955848
305.0000,21.958355
306.0000,17.872219
307.0000,18.108680
308.0000,13.927091
309.0000,24.920278
310.0000,21.899191
311.0000,30.983938
312.0000,40.257444
313.0000,45.458649
314.0000,22.924510
315.0000,31.053920
316.0000,49.020852
317.0000,48.734208
318.0000,46.792948
319.0000,44.259456
320.0000,54.184375
321.0000,59.773092
322.0000,80.642535
323.0000,74.571944
324.0000,76.242327
325.0000,102.076163
326.0000,110.257761
327.0000,130.732895
328.0000,147.615494
329.0000,165.350596
330.0000,193.633479
331.0000,223.435538
332.0000,246.650178
333.0000,290.969004
334.0000,340.289694
335.0000,411.190493
336.0000,484.405385
337.0000,549.437128
338.0000,622.891558
339.0000,688.124780
340.0000,691.382280
341.0000,682.907922
342.0000,625.815273
343.0000,554.929723
344.0000,488.639056
345.0000,422.046414
346.0000,357.816672
347.0000,285.907667
348.0000,248.463405
349.0000,210.473355
350.0000,184.585960
351.0000,156.808512
352.0000,134.984405
353.0000,124.529194
354.0000,116.185649
355.0000,104.928433
356.0000,87.613143
357.0000,80.828635
358.0000,80.603835
359.0000,58.478051
360.0000,48.232156
361.0000,52.318317
362.0000,43.076422
363.0000,39.956768
364.0000,36.719903
365.0000,32.147776
366.0000,41.804290
367.0000,30.052171
368.0000,26.672490
369.0000,36.900820
370.0000,37.118152
371.0000,14.576073
372.0000,13.495851
373.0000,15.194738
374.0000,19.512083
375.0000,33.230046
376.0000,24.371188
377.0000,22.886726
378.0000,18.176312
379.0000,23.807683
380.0000,17.097031
381.0000,8.930002
382.0000,14.205259
383.0000,23.097182
384.0000,12.168594
385.0000,17.180474
386.0000,7.267693
387.0000,18.699462
388.0000,10.487705
389.0000,10.445228
390.0000,9.404594
391.0000,14.062499
392.0000,18.396984
393.0000,0.232742
394.0000,10.714452
395.0000,7.460189
396.0000,10.288002
397.0000,20.016797
398.0000,7.299855
399.0000,-0.819156
400.0000,-0.090432
401.0000,2.743617
402.0000,12.828073
403.0000,-2.289913
404.0000,8.627592
405.0000,-2.119763
406.0000,4.759496
407.0000,-2.324432
408.0000,23.120094
409.0000,6.768656
410.0000,12.822749
411.0000,1.132302
412.0000,1.173257
413.0000,2.306962
414.0000,5.720532
415.0000,9.099170
416.0000,-7.213139
417.0000,11.478300
418.0000,10.269132
419.0000,2.035188
420.0000,4.122985
421.0000,-4.107639
422.0000,5.337125
423.0000,15.442268
424.0000,10.596986
425.0000,1.565636
426.0000,-3.900443
427.0000,9.651877
428.0000,1.170213
429.0000,-1.733647
430.0000,2.831999
431.0000,-0.008736
432.0000,7.972897
433.0000,4.367867
434.0000,2.693264
435.0000,11.736950
436.0000,2.026847
437.0000,0.344441
438.0000,5.847208
439.0000,-1.311704
440.0000,-0.598418
441.0000,-9.729619
442.0000,5.201982
443.0000,4.065168
444.0000,0.359115
445.0000,-3.995219
446.0000,4.862071
447.0000,5.479355
448.0000,-4.167811
449.0000,-8.062153
450.0000,-6.072431
451.0000,-6.259130
452.0000,3.634097
453.0000,-5.319287
454.0000,-6.472940
455.0000,2.160209
456.0000,-2.423276
457.0000,15.605346
458.0000,-3.268142
459.0000,-3.445729
460.0000,-9.139982
461.0000,-3.346705
462.0000,3.128833
463.0000,7.500131
464.0000,2.701933
465.0000,7.251760
466.0000,1.738273
467.0000,1.651607
468.0000,0.940902
469.0000,-1.746371
470.0000,-1.427883
471.0000,5.428462
472.0000,1.155621
473.0000,9.715076
474.0000,-3.751019
475.0000,2.577578
476.0000,-8.890670
477.0000,7.625676
478.0000,11.478812
479.0000,-5.062929
480.0000,6.279995
481.0000,0.256733
482.0000,0.494148
483.0000,2.870410
484.0000,-0.907814
485.0000,5.680314
486.0000,-6.435153
487.0000,0.771531
488.0000,-0.500793
489.0000,6.150062
490.0000,-3.657545
491.0000,3.938770
492.0000,27.110538
493.0000,-3.814531
494.0000,-8.154940
495.0000,-5.591326
496.0000,7.441704
497.0000,-11.245298
498.0000,-8.059816
499.0000,1.534222
500.0000,-2.674573
501.0000,-1.659813
502.0000,-4.706206
503.0000,4.186102
504.0000,-6.998745
505.0000,-0.151839
506.0000,-1.175186
507.0000,2.057134
508.0000,0.127913
509.0000,7.811658
510.0000,-3.555822
511.0000,-9.721706
512.0000,-5.555829
513.0000,-13.654666
514.0000,4.888546
515.0000,-4.869956
516.0000,0.958820
517.0000,1.538642
518.0000,-5.971311
519.0000,-1.408923
520.0000,-0.171966
521.0000,2.583785
522.0000,2.704372
523.0000,2.442454
524.0000,0.211693
525.0000,-8.147210
526.0000,-7.591564
527.0000,4.054461
528.0000,-6.762556
529.0000,-8.352830
530.0000,1.247284
531.0000,-3.959846
532.0000,-1.674788
533.0000,17.058893
534.0000,1.857259
535.0000,-0.933707
536.0000,-6.076684
537.0000,-6.580696
538.0000,-0.254867
539.0000,-8.738185
540.0000,-9.445128
541.0000,4.545830
542.0000,0.357002
543.0000,0.687288
544.0000,15.007316
545.0000,1.806681
546.0000,6.806481
547.0000,2.776792
548.0000,4.744682
549.0000,5.122198
550.0000,-2.015450
551.0000,-2.060497
552.0000,1.350446
553.0000,-12.560541
554.0000,-1.936200
555.0000,7.840179
556.0000,-3.002840
557.0000,-0.931632
558.0000,-10.145876
559.0000,-2.071631
560.0000,8.285354
561.0000,2.819631
562.0000,6.936656
563.0000,0.579775
564.0000,-0.281250
565.0000,-6.739038
566.0000,8.992106
567.0000,-2.584461
568.0000,-1.822940
569.0000,8.675381
570.0000,0.456150
571.0000,-12.102751
572.0000,1.572694
573.0000,-1.793970
574.0000,2.613386
575.0000,-4.362732
576.0000,7.213008
577.0000,-5.176974
578.0000,-5.476038
579.0000,1.420828
580.0000,5.860230
581.0000,1.731216
582.0000,9.384149
583.0000,-6.145102
584.0000,-1.890286
585.0000,5.422689
586.0000,6.472613
587.0000,-4.454305
588.0000,4.870211
589.0000,0.793743
590.0000,-0.831355
591.0000,12.870251
592.0000,3.981873
593.0000,-1.120508
594.0000,-10.678499
595.0000,-2.611010
596.0000,3.654445
597.0000,0.788276
598.0000,-3.261214
599.0000,2.802299
600.0000,2.449478
601.0000,3.194872
602.0000,6.287225
603.0000,10.193244
604.0000,-4.770913
605.0000,-5.803162
606.0000,-5.815251
607.0000,-1.230492
608.0000,7.092945
609.0000,6.489927
610.0000,-3.674120
611.0000,-7.586597
612.0000,4.648331
613.0000,10.472753
614.0000,9.604261
615.0000,-6.463623
616.0000,2.964679
617.0000,6.217824
618.0000,-4.747228
619.0000,9.799293
620.0000,5.648676
621.0000,-3.714569
622.0000,-3.920918
623.0000,1.482706
624.0000,12.111019
625.0000,5.038625
626.0000,-1.138468
627.0000,4.483324
628.0000,-2.522762
629.0000,-0.009951
630.0000,-1.495623
631.0000,3.631375
632.0000,-3.611789
633.0000,-6.801009
634.0000,-8.625823
635.0000,-2.485622
636.0000,5.960777
637.0000,6.724582
638.0000,3.706471
639.0000,-3.122779
640.0000,5.114748
641.0000,8.542627
642.0000,-6.174209
643.0000,8.101978
644.0000,-1.126066
645.0000,1.608223
646.0000,-1.084891
647.0000,-15.866761
648.0000,2.513564
649.0000,-0.821276
650.0000,-10.105226
651.0000,5.211750
652.0000,0.474716
653.0000,-7.848503
654.0000,1.058056
655.0000,7.406076
656.0000,5.727460
657.0000,-1.830440
658.0000,-8.157261
659.0000,1.266457
660.0000,3.477464
661.0000,4.327854
662.0000,2.626874
663.0000,2.310709
664.0000,1.343785
665.0000,-7.993551
666.0000,-3.621429
667.0000,-1.305161
668.0000,-0.979276
669.0000,-13.442403
670.0000,14.341037
671.0000,9.299383
672.0000,6.242241
673.0000,-0.430466
674.0000,-0.893803
675.0000,-2.691889
676.0000,-5.774427
677.0000,8.665869
678.0000,1.131235
679.0000,-4.620502
680.0000,5.940556
681.0000,11.415344
682.0000,1.181720
683.0000,3.484214
684.0000,7.344215
685.0000,8.015788
686.0000,1.219739
687.0000,-0.219117
688.0000,1.814224
689.0000,-2.209199
690.0000,-2.384265
691.0000,-4.525113
692.0000,7.209157
693.0000,1.565550
694.0000,-4.423936
695.0000,4.961763
696.0000,3.581138
697.0000,4.718978
698.0000,1.897524
699.0000,5.544509
700.0000,-1.531991
701.0000,7.445917
702.0000,-3.534583
703.0000,-1.482278
704.0000,-1.743516
705.0000,2.326351
706.0000,11.148987
707.0000,9.896892
708.0000,-1.494242
709.0000,7.816828
710.0000,13.942941
711.0000,-8.127127
712.0000,7.071842
713.0000,12.059231
714.0000,-8.786423
715.0000,5.040242
716.0000,-0.635223
717.0000,8.635611
718.0000,4.916905
719.0000,-0.363782
720.0000,-15.287147
721.0000,-5.019043
722.0000,2.080718
723.0000,0.171279
724.0000,8.558091
725.0000,-3.837929
726.0000,-3.400505
727.0000,-1.554394
728.0000,1.896825
729.0000,-0.470611
730.0000,-5.284403
731.0000,6.506760
732.0000,-3.885525
733.0000,0.114993
734.0000,0.349962
735.0000,-0.252704
736.0000,-1.493651
737.0000,4.505436
738.0000,-2.999343
739.0000,2.658347
740.0000,-1.122532
741.0000,5.685313
742.0000,-4.481355
743.0000,6.493828
744.0000,-14.902187
745.0000,-8.186199
746.0000,11.940098
747.0000,-4.256373
748.0000,-6.990577
749.0000,8.150391
750.0000,10.222712
751.0000,0.518185
752.0000,6.763782
753.0000,1.114548
754.0000,5.236216
755.0000,2.724147
756.0000,7.095338
757.0000,5.503071
758.0000,0.410244
759.0000,-0.933168
760.0000,-1.644954
761.0000,3.584000
762.0000,10.470900
763.0000,6.506695
764.0000,-10.562704
765.0000,-1.670607
766.0000,1.645054
767.0000,-3.170574
768.0000,0.419525
769.0000,4.383136
770.0000,0.734958
771.0000,0.004642
772.0000,-0.572102
773.0000,-2.854745
774.0000,4.816672
775.0000,1.913014
776.0000,-1.643372
777.0000,-1.267180
778.0000,0.407634
779.0000,9.676020
780.0000,-2.814717
781.0000,-0.464301
782.0000,6.903490
783.0000,5.852579
784.0000,1.402056
785.0000,3.619188
786.0000,6.699839
787.0000,5.765069
788.0000,8.426541
789.0000,9.595839
790.0000,5.934282
791.0000,9.290702
792.0000,1.939913
793.0000,16.059636
794.0000,6.674627
795.0000,0.698946
796.0000,0.329143
797.0000,10.663715
798.0000,11.282739
799.0000,-3.648878
800.0000,1.315004
801.0000,9.638470
802.0000,-1.853115
803.0000,4.995122
804.0000,-1.635661
805.0000,6.460565
806.0000,-10.079380
807.0000,7.859447
808.0000,-5.385575
809.0000,-13.564791
810.0000,2.163233
811.0000,2.685291
812.0000,3.178401
813.0000,10.298634
814.0000,11.876158
815.0000,2.575519
816.0000,-3.409985
817.0000,8.116620
818.0000,9.741020
819.0000,10.643506
820.0000,3.991754
821.0000,17.190043
822.0000,8.773382
823.0000,5.714838
824.0000,4.345110
825.0000,-4.622485
826.0000,5.823125
827.0000,7.555090
828.0000,-0.033014
829.0000,0.724031
830.0000,-3.711034
831.0000,2.917228
832.0000,10.082646
833.0000,2.065360
834.0000,10.186173
835.0000,3.727216
836.0000,11.122305
837.0000,6.262474
838.0000,1.047546
839.0000,5.457950
840.0000,4.118215
841.0000,6.591624
842.0000,11.310096
843.0000,6.100669
844.0000,1.153466
845.0000,1.224891
846.0000,2.558094
847.0000,7.122084
848.0000,7.123555
849.0000,-1.638916
850.0000,-7.300922
851.0000,7.536391
852.0000,2.215427
853.0000,16.259370
854.0000,23.121025
855.0000,15.134258
856.0000,12.308207
857.0000,16.448264
858.0000,10.075932
859.0000,12.533225
860.0000,14.721263
861.0000,20.883318
862.0000,6.892356
863.0000,10.417383
864.0000,20.757671
865.0000,15.648774
866.0000,19.904535
867.0000,15.765983
868.0000,7.171028
869.0000,20.446660
870.0000,19.472625
871.0000,21.875003
872.0000,26.082117
873.0000,18.992399
874.0000,19.532697
875.0000,27.342697
876.0000,30.660224
877.0000,38.347584
878.0000,32.048373
879.0000,30.117669
880.0000,33.684032
881.0000,33.702110
882.0000,46.545920
883.0000,51.560843
884.0000,52.593031
885.0000,49.191027
886.0000,54.314120
887.0000,65.405271
888.0000,68.260301
889.0000,90.133341
890.0000,96.060739
891.0000,107.389058
892.0000,121.177017
893.0000,135.584979
894.0000,172.824599
895.0000,203.013149
896.0000,230.853595
897.0000,273.384045
898.0000,338.140513
899.0000,404.697470
900.0000,496.241928
901.0000,612.482388
902.0000,740.674341
903.0000,869.094512
904.0000,951.067326
905.0000,999.269727
906.0000,961.104537
907.0000,870.574407
908.0000,729.909507
909.0000,610.259910
910.0000,493.006022
911.0000,414.713260
912.0000,342.664317
913.0000,275.578743
914.0000,240.505568
915.0000,207.796641
916.0000,179.363365
917.0000,157.575882
918.0000,124.634710
919.0000,125.529413
920.0000,102.251195
921.0000,92.126826
922.0000,80.215038
923.0000,77.376085
924.0000,62.443759
925.0000,52.660652
926.0000,50.152599
927.0000,41.271181
928.0000,37.026994
929.0000,35.139389
930.0000,40.936892
931.0000,41.829632
932.0000,30.907630
933.0000,30.583521
934.0000,32.762669
935.0000,24.366717
936.0000,29.566296
937.0000,15.536914
938.0000,23.961338
939.0000,27.378321
940.0000,18.235069
941.0000,9.541206
942.0000,18.374837
943.0000,21.286815
944.0000,7.544349
945.0000,8.782734
946.0000,26.587011
947.0000,15.966550
948.0000,23.793711
949.0000,27.510644
950.0000,4.519462
951.0000,13.126911
952.0000,1.138375
953.0000,13.210497
954.0000,9.298430
955.0000,20.520064
956.0000,12.840609
957.0000,9.318171
958.0000,4.969559
959.0000,1.545965
960.0000,7.968217
961.0000,6.131973
962.0000,5.831105
963.0000,7.640327
964.0000,16.146630
965.0000,8.859060
966.0000,18.629906
967.0000,2.915518
968.0000,5.102211
969.0000,10.043510
970.0000,-2.187387
971.0000,10.795514
972.0000,14.647025
973.0000,-1.134200
974.0000,5.794768
975.0000,9.725553
976.0000,22.156479
977.0000,2.334918
978.0000,0.529385
979.0000,-1.706462
980.0000,5.577601
981.0000,4.261889
982.0000,6.229522
983.0000,4.926262
984.0000,-9.006616
985.0000,2.840331
986.0000,1.248448
987.0000,9.484199
988.0000,5.914496
989.0000,9.521044
990.0000,5.154178
991.0000,-0.925570
992.0000,3.971286
993.0000,2.081850
994.0000,10.289575
995.0000,16.001661
996.0000,-4.718751
997.0000,3.685574
998.0000,-0.405907
999.0000,-5.643023
1000.0000,-1.663354
1001.0000,-1.286097
1002.0000,11.971239
1003.0000,6.320817
1004.0000,-1.975490
1005.0000,6.397980
1006.0000,9.211776
1007.0000,13.156772
1008.0000,-0.616499
1009.0000,-8.250906
1010.0000,14.315903
1011.0000,2.779941
1012.0000,2.280555
1013.0000,5.020965
1014.0000,3.204662
1015.0000,2.215672
1016.0000,4.908040
1017.0000,8.336484
1018.0000,5.041591
1019.0000,15.194662
1020.0000,2.456103
1021.0000,-0.672773
1022.0000,15.362875
1023.0000,1.642906
1024.0000,4.227727
1025.0000,3.259624
1026.0000,-1.675268
1027.0000,-1.303533
1028.0000,-0.398571
1029.0000,10.053173
1030.0000,9.816628
1031.0000,-5.486140
1032.0000,-2.890876
1033.0000,9.743648
1034.0000,4.291127
1035.0000,-2.426859
1036.0000,8.827024
1037.0000,8.842809
1038.0000,7.913198
1039.0000,13.333005
1040.0000,-7.866491
1041.0000,8.307927
1042.0000,7.631155
1043.0000,-16.060261
1044.0000,-3.792696
1045.0000,9.595801
1046.0000,-1.052407
1047.0000,3.862900
1048.0000,1.411434
1049.0000,6.802072
1050.0000,-2.603535
1051.0000,3.486970
1052.0000,8.819093
1053.0000,9.919303
1054.0000,-2.514761
1055.0000,-0.713578
1056.0000,3.082342
1057.0000,3.232825
1058.0000,2.834103
1059.0000,0.034558
1060.0000,-0.020949
1061.0000,-3.237437
1062.0000,-5.663561
1063.0000,-10.748639
1064.0000,12.938851
1065.0000,7.396209
1066.0000,9.753013
1067.0000,8.743218
1068.0000,-5.364437
1069.0000,-12.932381
1070.0000,1.468358
1071.0000,7.470245
1072.0000,-2.738683
1073.0000,10.545347
1074.0000,-6.034789
1075.0000,1.140822
1076.0000,-3.584788
1077.0000,-4.878996
1078.0000,-0.805858
1079.0000,4.264285
1080.0000,6.845157
1081.0000,3.842507
1082.0000,8.687163
1083.0000,11.569940
1084.0000,6.323286
1085.0000,5.509709
1086.0000,-3.967110
1087.0000,4.623076
1088.0000,6.578592
1089.0000,3.010084
1090.0000,-6.236126
1091.0000,1.114927
1092.0000,10.445658
1093.0000,-0.290683
1094.0000,3.614096
1095.0000,-1.414177
1096.0000,-1.872680
1097.0000,7.800278
1098.0000,-1.878417
1099.0000,1.902229
1100.0000,1.681110
1101.0000,8.887539
1102.0000,1.252060
1103.0000,-1.161114
1104.0000,-1.752382
1105.0000,5.267961
1106.0000,7.460669
1107.0000,-10.537766
1108.0000,5.059516
1109.0000,3.112419
1110.0000,3.552650
1111.0000,7.916911
1112.0000,4.976563
1113.0000,0.592728
1114.0000,4.017703
1115.0000,3.922920
1116.0000,9.165757
1117.0000,13.986480
1118.0000,7.690732
1119.0000,-7.590085
1120.0000,4.633337
1121.0000,-0.547217
1122.0000,-3.606295
1123.0000,1.375268
1124.0000,-6.070566
1125.0000,4.137936
1126.0000,-4.133607
1127.0000,3.877413
1128.0000,3.299120
1129.0000,0.203877
1130.0000,-0.068794
1131.0000,6.875030
1132.0000,5.636533
1133.0000,14.241046
1134.0000,9.788088
1135.0000,8.160606
1136.0000,7.189575
1137.0000,0.283508
1138.0000,-5.104290
1139.0000,-6.307752
1140.0000,2.987073
1141.0000,3.703105
1142.0000,-3.832279
1143.0000,-1.752803
1144.0000,-2.683508
1145.0000,-6.204218
1146.0000,-5.713736
1147.0000,2.443828
1148.0000,4.780687
1149.0000,-6.069751
1150.0000,-8.231080
1151.0000,-1.677885
1152.0000,4.548811
1153.0000,0.568456
1154.0000,-0.668496
1155.0000,11.891487
1156.0000,3.342964
1157.0000,-1.164366
1158.0000,-9.206291
1159.0000,11.703384
1160.0000,2.083310
1161.0000,12.061371
1162.0000,10.880715
1163.0000,24.445057
1164.0000,0.904969
1165.0000,3.528326
1166.0000,2.980224
1167.0000,4.883476
1168.0000,15.036154
1169.0000,-4.247054
1170.0000,13.708685
1171.0000,9.354149
1172.0000,6.822910
1173.0000,5.020498
1174.0000,7.694010
1175.0000,16.919305
1176.0000,-4.230358
1177.0000,-0.957154
1178.0000,7.240960
1179.0000,7.261798
1180.0000,2.374029
1181.0000,21.333615
1182.0000,1.093046
1183.0000,11.697421
1184.0000,4.017128
1185.0000,-0.407173
1186.0000,8.395130
1187.0000,-1.475223
1188.0000,11.468444
1189.0000,-5.214511
1190.0000,12.360471
1191.0000,3.475178
1192.0000,5.998586
1193.0000,7.488504
1194.0000,-1.234816
1195.0000,9.472641
1196.0000,0.647334
1197.0000,10.174322
1198.0000,12.812892
1199.0000,14.348358
1200.0000,14.767740
1201.0000,7.624288
1202.0000,8.450503
1203.0000,11.138301
1204.0000,17.524582
1205.0000,9.647505
1206.0000,13.127976
1207.0000,15.581188
1208.0000,13.914698
1209.0000,23.921246
1210.0000,16.120872
1211.0000,12.437575
1212.0000,12.873584
1213.0000,17.846575
1214.0000,25.615357
1215.0000,18.033502
1216.0000,14.515754
1217.0000,29.103738
1218.0000,32.676040
1219.0000,25.479348
1220.0000,25.949701
1221.0000,31.852449
1222.0000,23.757910
1223.0000,28.455930
1224.0000,40.150649
1225.0000,34.770739
1226.0000,49.912941
1227.0000,48.713462
1228.0000,46.367423
1229.0000,55.009461
1230.0000,63.732199
1231.0000,74.180241
1232.0000,71.934126
1233.0000,86.568076
1234.0000,100.874844
1235.0000,93.421289
1236.0000,93.536711
1237.0000,123.058427
1238.0000,135.555685
1239.0000,154.003949
1240.0000,175.620115
1241.0000,211.284517
1242.0000,243.995548
1243.0000,269.982451
1244.0000,309.365001
1245.0000,350.173285
1246.0000,387.746766
1247.0000,436.625648
1248.0000,454.929098
1249.0000,489.485040
1250.0000,487.308556
1251.0000,495.439016
1252.0000,482.055457
1253.0000,431.481952
1254.0000,381.015121
1255.0000,351.652107
1256.0000,307.327514
1257.0000,270.326087
1258.0000,227.219766
1259.0000,218.740666
1260.0000,175.084411
1261.0000,173.422945
1262.0000,140.622527
1263.0000,121.209256
1264.0000,101.300644
1265.0000,104.576637
1266.0000,92.302089
1267.0000,82.015142
1268.0000,76.131899
1269.0000,71.809288
1270.0000,57.858678
1271.0000,52.022572
1272.0000,58.040879
1273.0000,53.306240
1274.0000,46.462963
1275.0000,46.312109
1276.0000,49.844210
1277.0000,30.539178
1278.0000,34.624063
1279.0000,31.238615
1280.0000,22.079039
1281.0000,26.244816
1282.0000,23.729953
1283.0000,21.260295
1284.0000,21.468838
1285.0000,12.675198
1286.0000,9.885930
1287.0000,23.444192
1288.0000,18.700950
1289.0000,15.936386
1290.0000,22.866134
1291.0000,14.854630
1292.0000,16.940339
1293.0000,16.066292
1294.0000,9.459689
1295.0000,14.372354
1296.0000,17.453429
1297.0000,11.603355
1298.0000,10.250760
1299.0000,6.799117
1300.0000,12.633674
1301.0000,12.570121
1302.0000,8.973512
1303.0000,8.438064
1304.0000,2.921069
1305.0000,12.446507
1306.0000,10.157959
1307.0000,7.292764
1308.0000,4.873077
1309.0000,10.499233
1310.0000,7.860052
1311.0000,3.108017
1312.0000,13.592148
1313.0000,1.423627
1314.0000,13.963338
1315.0000,13.757228
1316.0000,4.254534
1317.0000,7.663472
1318.0000,10.253476
1319.0000,7.435936
1320.0000,13.244587
1321.0000,16.584948
1322.0000,6.640519
1323.0000,7.223824
1324.0000,10.730805
1325.0000,-0.394257
1326.0000,10.694052
1327.0000,15.818136
1328.0000,1.190068
1329.0000,1.338902
1330.0000,12.571834
1331.0000,0.603309
1332.0000,3.453580
1333.0000,1.435726
1334.0000,9.778615
1335.0000,10.941779
1336.0000,6.722721
1337.0000,4.480016
1338.0000,15.525981
1339.0000,9.526164
1340.0000,10.201478
1341.0000,8.137425
1342.0000,6.763800
1343.0000,4.869996
1344.0000,5.631807
1345.0000,6.249366
1346.0000,8.894115
1347.0000,-3.990747
1348.0000,1.300793
1349.0000,9.313762
1350.0000,6.578303
1351.0000,1.822730
1352.0000,-0.403403
1353.0000,-7.371850
1354.0000,8.071992
1355.0000,-0.515799
1356.0000,5.082878
1357.0000,2.809358
1358.0000,10.028126
1359.0000,-5.810149
1360.0000,2.594415
1361.0000,3.020995
1362.0000,-2.404636
1363.0000,6.716146
1364.0000,6.012240
1365.0000,10.744990
1366.0000,-4.099018
1367.0000,9.006245
1368.0000,2.848925
1369.0000,11.245750
1370.0000,0.584620
1371.0000,18.597194
1372.0000,3.869570
1373.0000,2.166926
1374.0000,5.115798
1375.0000,4.053107
1376.0000,-0.337855
1377.0000,-0.438128
1378.0000,6.899985
1379.0000,14.258045
1380.0000,-9.816947
1381.0000,7.979262
1382.0000,-14.108733
1383.0000,1.010921
1384.0000,3.481320
1385.0000,3.823021
1386.0000,0.066931
1387.0000,-1.483540
1388.0000,4.436202
1389.0000,5.117458
1390.0000,-11.266192
1391.0000,0.559282
1392.0000,-1.766676
1393.0000,-2.304538
1394.0000,7.530086
1395.0000,1.188996
1396.0000,3.863335
1397.0000,0.772849
1398.0000,-2.182613
1399.0000,-5.379689
1400.0000,-1.140908
1401.0000,1.881455
1402.0000,-3.250723
1403.0000,1.628589
1404.0000,6.714363
1405.0000,-1.045147
1406.0000,-1.691614
1407.0000,8.848822
1408.0000,1.199095
1409.0000,1.292311
1410.0000,3.785756
1411.0000,-5.103967
1412.0000,0.206240
1413.0000,4.560601
1414.0000,-6.720913
1415.0000,-1.907774
1416.0000,3.589469
1417.0000,4.599658
1418.0000,6.732975
1419.0000,-10.294376
1420.0000,13.764729
1421.0000,-5.992201
1422.0000,7.559566
1423.0000,-10.697892
1424.0000,7.599040
1425.0000,2.973277
1426.0000,9.090869
1427.0000,1.507193
1428.0000,-5.539939
1429.0000,-0.540640
1430.0000,5.158639
1431.0000,-4.914157
1432.0000,6.301809
1433.0000,0.636265
1434.0000,3.658763
1435.0000,5.143411
1436.0000,0.184069
1437.0000,-6.585208
1438.0000,-1.011723
1439.0000,9.401906
1440.0000,3.882941
1441.0000,-8.836497
1442.0000,-3.963910
1443.0000,2.772853
1444.0000,7.841431
1445.0000,5.538332
1446.0000,1.344320
1447.0000,-7.126250
1448.0000,-1.155758
1449.0000,10.589151
1450.0000,-3.737850
1451.0000,2.185067
1452.0000,3.733956
1453.0000,1.961488
1454.0000,3.753287
1455.0000,7.200670
1456.0000,2.170594
1457.0000,-3.327174
1458.0000,0.328204
1459.0000,9.417483
1460.0000,2.152250
1461.0000,8.429303
1462.0000,2.151820
1463.0000,10.036859
1464.0000,5.595893
1465.0000,-5.776592
1466.0000,5.137328
1467.0000,-3.022889
1468.0000,8.280350
1469.0000,6.934432
1470.0000,7.987157
1471.0000,1.862653
1472.0000,4.595705
1473.0000,1.299118
1474.0000,-6.813135
1475.0000,2.400221
1476.0000,5.377994
1477.0000,-11.910854
1478.0000,2.543410
1479.0000,5.207122
1480.0000,-5.793611
1481.0000,-2.151300
1482.0000,0.087634
1483.0000,8.091576
1484.0000,2.777759
1485.0000,-4.088434
1486.0000,-1.696746
1487.0000,-6.468350
1488.0000,-7.020656
1489.0000,3.651086
1490.0000,-6.671900
1491.0000,-1.557328
1492.0000,-5.286845
1493.0000,-1.572361
1494.0000,-1.108228
1495.0000,0.650294
1496.0000,-3.810093
1497.0000,-2.348798
1498.0000,-6.735852
1499.0000,2.403631
1500.0000,0.093418
1501.0000,6.191448
1502.0000,12.774416
1503.0000,-0.044811
1504.0000,-9.616370
1505.0000,13.218511
1506.0000,3.824121
1507.0000,3.024086
1508.0000,7.044085
1509.0000,-6.557589
1510.0000,0.979558
1511.0000,-6.040505
1512.0000,-4.114770
1513.0000,2.742128
1514.0000,2.382929
1515.0000,-1.423678
1516.0000,-3.110808
1517.0000,1.567614
1518.0000,1.080787
1519.0000,6.918731
1520.0000,-2.288131
1521.0000,2.240745
1522.0000,-4.274760
1523.0000,0.239814
1524.0000,-7.221973
1525.0000,3.116829
1526.0000,-6.382820
1527.0000,10.634234
1528.0000,-0.727586
1529.0000,4.131605
1530.0000,-3.755600
1531.0000,2.527357
1532.0000,3.959183
1533.0000,2.097928
1534.0000,-7.708999
1535.0000,7.343233
1536.0000,-0.200787
1537.0000,1.162269
1538.0000,8.460006
1539.0000,-14.068779
1540.0000,9.931978
1541.0000,-5.025793
1542.0000,-1.248263
1543.0000,-10.181301
1544.0000,-5.075160
1545.0000,15.732321
1546.0000,-0.391865
1547.0000,4.723232
1548.0000,-2.397353
1549.0000,-9.318565
1550.0000,4.605814
1551.0000,0.654175
1552.0000,4.554322
1553.0000,-2.333550
1554.0000,-5.988967
1555.0000,5.447148
1556.0000,-6.249877
1557.0000,3.296029
1558.0000,1.792589
1559.0000,-1.032734
1560.0000,9.036447
1561.0000,0.311388
1562.0000,1.473169
1563.0000,3.900239
1564.0000,-0.484286
1565.0000,-2.951262
1566.0000,3.045797
1567.0000,7.724172
1568.0000,-4.486745
1569.0000,2.979028
1570.0000,-3.640154
1571.0000,8.342082
1572.0000,-4.064356
1573.0000,2.110799
1574.0000,0.968333
1575.0000,1.712395
1576.0000,-4.835620
1577.0000,-6.758043
1578.0000,6.225114
1579.0000,-4.096064
1580.0000,3.643210
1581.0000,1.468238
1582.0000,6.199011
1583.0000,0.948753
1584.0000,4.491384
1585.0000,4.399281
1586.0000,14.431727
1587.0000,2.558595
1588.0000,-3.992129
1589.0000,8.036128
1590.0000,2.243247
1591.0000,-1.633440
1592.0000,3.449913
1593.0000,6.195908
1594.0000,10.933258
1595.0000,-0.232919
1596.0000,10.400085
1597.0000,-5.328213
1598.0000,12.222552
1599.0000,-6.412250
1600.0000,3.796966
1601.0000,3.051327
1602.0000,-1.758891
1603.0000,4.539130
1604.0000,3.137735
1605.0000,8.708966
1606.0000,3.355772
1607.0000,0.377536
1608.0000,6.340332
1609.0000,-9.558417
1610.0000,5.041322
1611.0000,-8.396496
1612.0000,5.958075
1613.0000,1.663100
1614.0000,2.637294
1615.0000,1.284002
1616.0000,1.239086
1617.0000,14.200189
1618.0000,-9.466823
1619.0000,7.376610
1620.0000,-2.537747
1621.0000,-10.060077
1622.0000,-4.388976
1623.0000,-1.205552
1624.0000,-3.381888
1625.0000,-0.576647
1626.0000,6.141200
1627.0000,1.492182
1628.0000,-9.503356
1629.0000,-0.212636
1630.0000,-2.954085
1631.0000,6.074763
1632.0000,-4.464094
1633.0000,0.320435
1634.0000,10.311705
1635.0000,-2.175649
1636.0000,1.098941
1637.0000,10.037497
1638.0000,9.526607
1639.0000,-2.660133
1640.0000,-0.476535
1641.0000,4.813713
1642.0000,-2.857492
1643.0000,6.501888
1644.0000,0.666679
1645.0000,1.827427
1646.0000,8.135987
1647.0000,0.267000
1648.0000,-6.740351
1649.0000,-14.339476
1650.0000,-6.132152
1651.0000,-2.570313
1652.0000,1.271392
1653.0000,0.636539
1654.0000,16.126611
1655.0000,6.456828
1656.0000,-2.337853
1657.0000,13.157043
1658.0000,-1.076631
1659.0000,-6.249324
1660.0000,-5.852310
1661.0000,-0.521379
1662.0000,1.254718
1663.0000,3.293033
1664.0000,12.039979
1665.0000,1.673426
1666.0000,-7.441591
1667.0000,11.571654
1668.0000,3.181757
1669.0000,-4.279707
1670.0000,-6.796645
1671.0000,4.811637
1672.0000,-5.965449
1673.0000,8.780045
1674.0000,3.553928
1675.0000,-0.114005
1676.0000,-3.731731
1677.0000,4.866774
1678.0000,10.073776
1679.0000,-5.942648
1680.0000,-0.585900
1681.0000,2.601436
1682.0000,-3.876972
1683.0000,4.888008
1684.0000,0.109075
1685.0000,-12.566212
1686.0000,4.457130
1687.0000,-1.196298
1688.0000,2.948163
1689.0000,1.139517
1690.0000,4.760550
1691.0000,2.118574
1692.0000,-3.654426
1693.0000,-8.813574
1694.0000,-1.401865
1695.0000,-0.909743
1696.0000,6.012431
1697.0000,1.481731
1698.0000,-13.500555
1699.0000,0.616859
1700.0000,-1.458746
1701.0000,-13.115077
1702.0000,-7.069360
1703.0000,10.132539
1704.0000,-5.401417
1705.0000,-2.764870
1706.0000,2.800489
1707.0000,-7.928884
1708.0000,-3.440652
1709.0000,-2.798694
1710.0000,-5.574090
1711.0000,9.279806
1712.0000,5.677176
1713.0000,13.091909
1714.0000,-4.880828
1715.0000,3.121950
1716.0000,-11.934402
1717.0000,4.392451
1718.0000,0.377155
1719.0000,-3.071643
1720.0000,9.125211
1721.0000,-7.508897
1722.0000,-1.590007
1723.0000,1.578337
1724.0000,-0.899886
1725.0000,6.001182
1726.0000,0.636379
1727.0000,-6.602083
1728.0000,0.249058
1729.0000,11.028016
1730.0000,-0.015792
1731.0000,3.920894
1732.0000,-3.948598
1733.0000,9.824491
1734.0000,-1.725840
1735.0000,1.230195
1736.0000,2.272688
1737.0000,-13.245657
1738.0000,9.892163
1739.0000,-3.074618
1740.0000,10.573025
1741.0000,-3.124887
1742.0000,-1.526801
1743.0000,-6.700191
1744.0000,-3.880039
1745.0000,17.288114
1746.0000,0.100476
1747.0000,11.236813
1748.0000,10.060879
1749.0000,2.211479
1750.0000,6.123911
1751.0000,3.878459
1752.0000,3.802576
1753.0000,-6.413947
1754.0000,2.655508
1755.0000,-6.380185
1756.0000,-1.448804
1757.0000,11.255950
1758.0000,-6.261112
1759.0000,-0.355570
1760.0000,9.987170
1761.0000,5.937687
1762.0000,2.464673
1763.0000,4.773455
1764.0000,-4.978466
1765.0000,7.911809
1766.0000,2.504785
1767.0000,11.948275
1768.0000,1.770162
1769.0000,-2.726673
1770.0000,-4.998870
1771.0000,12.160782
1772.0000,-0.883257
1773.0000,-5.703913
1774.0000,5.145930
1775.0000,-2.645416
1776.0000,0.665024
1777.0000,-0.603289
1778.0000,4.465616
1779.0000,2.062507
1780.0000,-6.366427
1781.0000,1.694796
1782.0000,16.030187
1783.0000,2.470858
1784.0000,-2.993135
1785.0000,0.263272
1786.0000,9.721517
1787.0000,22.264837
1788.0000,-6.331915
1789.0000,1.131846
1790.0000,11.487983
1791.0000,-9.722487
1792.0000,5.717000
1793.0000,2.429358
1794.0000,7.383995
1795.0000,12.128318
1796.0000,2.826245
1797.0000,-1.329187
1798.0000,9.866106
1799.0000,0.433734
1800.0000,8.438385
1801.0000,9.268267
1802.0000,4.793053
1803.0000,6.842181
1804.0000,9.765669
1805.0000,1.944019
1806.0000,-0.627156
1807.0000,3.631993
1808.0000,16.347657
1809.0000,-3.372976
1810.0000,1.419764
1811.0000,0.540652
1812.0000,10.376829
1813.0000,3.706231
1814.0000,-6.045375
1815.0000,6.181111
1816.0000,8.683401
1817.0000,10.871243
1818.0000,-5.801732
1819.0000,-4.844078
1820.0000,12.764660
1821.0000,-3.718723
1822.0000,4.704438
1823.0000,6.938084
1824.0000,4.275750
1825.0000,-4.524158
1826.0000,0.626123
1827.0000,4.686785
1828.0000,5.654348
1829.0000,10.176729
1830.0000,7.424588
1831.0000,12.950612
1832.0000,3.100029
1833.0000,3.191578
1834.0000,17.243015
1835.0000,1.811351
1836.0000,14.308046
1837.0000,18.437919
1838.0000,15.769087
1839.0000,8.459772
1840.0000,6.377285
1841.0000,-1.576581
1842.0000,9.501852
1843.0000,2.144519
1844.0000,6.775052
1845.0000,13.734851
1846.0000,13.589848
1847.0000,18.361624
1848.0000,8.325196
1849.0000,16.377181
1850.0000,-0.485439
1851.0000,19.107711
1852.0000,20.836202
1853.0000,21.037422
1854.0000,19.795669
1855.0000,25.783917
1856.0000,13.270327
1857.0000,28.798238
1858.0000,28.939037
1859.0000,19.760103
1860.0000,24.497491
1861.0000,26.144434
1862.0000,32.475081
1863.0000,35.739025
1864.0000,20.144873
1865.0000,36.096508
1866.0000,43.244187
1867.0000,24.174590
1868.0000,32.550229
1869.0000,32.137101
1870.0000,44.174185
1871.0000,35.460984
1872.0000,38.708473
1873.0000,38.051732
1874.0000,44.522442
1875.0000,61.150189
1876.0000,52.627912
1877.0000,73.807710
1878.0000,66.700753
1879.0000,76.228425
1880.0000,78.092916
1881.0000,100.128901
1882.0000,90.428706
1883.0000,101.989461
1884.0000,122.353962
1885.0000,118.150708
1886.0000,131.974958
1887.0000,139.123041
1888.0000,158.312433
1889.0000,178.719967
1890.0000,201.930765
1891.0000,216.582118
1892.0000,241.101425
1893.0000,270.232555
1894.0000,291.578634
1895.0000,308.116397
1896.0000,351.481681
1897.0000,353.456482
1898.0000,393.389002
1899.0000,399.846740
1900.0000,396.360355
1901.0000,406.431330
1902.0000,390.724513
1903.0000,363.985023
1904.0000,341.679990
1905.0000,310.686610
1906.0000,301.284929
1907.0000,257.893783
1908.0000,247.522121
1909.0000,226.623092
1910.0000,195.104153
1911.0000,179.266084
1912.0000,165.365991
1913.0000,156.055504
1914.0000,134.224186
1915.0000,127.420008
1916.0000,112.213802
1917.0000,116.336819
1918.0000,96.314349
1919.0000,88.032184
1920.0000,82.935650
1921.0000,74.698261
1922.0000,66.319836
1923.0000,76.288268
1924.0000,50.862187
1925.0000,54.017127
1926.0000,60.956486
1927.0000,44.720934
1928.0000,46.512234
1929.0000,47.341027
1930.0000,42.158284
1931.0000,39.760601
1932.0000,34.720479
1933.0000,26.499124
1934.0000,35.236684
1935.0000,24.846172
1936.0000,35.999077
1937.0000,34.131665
1938.0000,34.606209
1939.0000,32.626842
1940.0000,19.536066
1941.0000,12.795806
1942.0000,10.492018
1943.0000,21.921360
1944.0000,23.136365
1945.0000,22.419409
1946.0000,19.600847
1947.0000,25.541546
1948.0000,23.137787
1949.0000,20.696109
1950.0000,17.932952
1951.0000,17.333133
1952.0000,25.250552
1953.0000,13.208524
1954.0000,8.391182
1955.0000,21.418198
1956.0000,10.538507
1957.0000,12.753647
1958.0000,7.172626
1959.0000,22.161421
1960.0000,10.814671
1961.0000,1.806895
1962.0000,-2.341354
1963.0000,4.398602
1964.0000,12.738928
1965.0000,17.145042
1966.0000,9.592437
1967.0000,1.120881
1968.0000,7.293010
1969.0000,8.138093
1970.0000,13.809565
1971.0000,13.897633
1972.0000,-2.632107
1973.0000,12.703908
1974.0000,7.403467
1975.0000,10.924458
1976.0000,10.353063
1977.0000,0.909491
1978.0000,9.243319
1979.0000,18.319075
1980.0000,8.483310
1981.0000,7.103856
1982.0000,13.368177
1983.0000,12.331779
1984.0000,-0.482451
1985.0000,-4.230773
1986.0000,-1.000740
1987.0000,-2.086608
1988.0000,3.626162
1989.0000,9.206065
1990.0000,6.754780
1991.0000,4.240728
1992.0000,7.732728
1993.0000,-3.077734
1994.0000,2.674921
1995.0000,3.935709
1996.0000,-4.812228
1997.0000,-4.674380
1998.0000,-9.050009
1999.0000,10.057902
2000.0000,8.822627
