raman_shift_cm-1,intensity
200.0000,7.089816
201.0000,-5.002400
202.0000,0.106785
203.0000,1.556775
204.0000,0.339076
205.0000,-5.297261
206.0000,1.122034
207.0000,-0.786519
208.0000,-1.210558
209.0000,-11.191559
210.0000,5.701345
211.0000,1.076915
212.0000,-4.790001
213.0000,10.984763
214.0000,0.663282
215.0000,7.117068
216.0000,5.822267
217.0000,5.408517
218.0000,-7.120048
219.0000,0.981572
220.0000,-6.723620
221.0000,7.156120
222.0000,4.552292
223.0000,0.981917
224.0000,7.639229
225.0000,-4.955496
226.0000,8.866172
227.0000,3.138683
228.0000,2.560010
229.0000,9.002925
230.0000,-4.300187
231.0000,1.903511
232.0000,-0.005593
233.0000,-15.148255
234.0000,-0.689121
235.0000,-4.261385
236.0000,-4.530746
237.0000,-10.121090
238.0000,5.666155
239.0000,0.330299
240.0000,2.410625
241.0000,4.633990
242.0000,-4.025339
243.0000,5.152629
244.0000,5.653362
245.0000,7.339483
246.0000,-0.007643
247.0000,-3.145188
248.0000,3.473955
249.0000,4.814942
250.0000,-3.772606
251.0000,3.963646
252.0000,-1.928425
253.0000,9.415118
254.0000,-8.888024
255.0000,2.048148
256.0000,-3.322338
257.0000,16.299227
258.0000,-10.856034
259.0000,1.243829
260.0000,-6.044753
261.0000,2.208914
262.0000,5.329916
263.0000,-5.853533
264.0000,-5.064098
265.0000,-0.694341
266.0000,-6.911582
267.0000,-0.189207
268.0000,-0.663363
269.0000,-12.122743
270.0000,-6.637581
271.0000,-3.353461
272.0000,-2.209330
273.0000,0.720031
274.0000,3.842737
275.0000,-8.404133
276.0000,-0.170137
277.0000,-7.671005
278.0000,2.078441
279.0000,4.364681
280.0000,-8.942106
281.0000,5.231343
282.0000,5.729947
283.0000,1.602116
284.0000,7.908838
285.0000,2.719154
286.0000,4.365103
287.0000,-1.491598
288.0000,1.748654
289.0000,0.824597
290.0000,-2.649551
291.0000,-6.439033
292.0000,0.116264
293.0000,6.601434
294.0000,11.033019
295.0000,-3.807287
296.0000,-1.798027
297.0000,2.283271
298.0000,-10.830572
299.0000,-8.186246
300.0000,2.492017
301.0000,-5.561655
302.0000,-7.847090
303.0000,2.327098
304.0000,0.164372
305.0000,-1.716869
306.0000,-6.672216
307.0000,9.413231
308.0000,4.397381
309.0000,-1.884558
310.0000,0.077957
311.0000,1.185593
312.0000,-0.842304
313.0000,-6.968837
314.0000,-14.318908
315.0000,0.331068
316.0000,7.984942
317.0000,9.386060
318.0000,-8.185014
319.0000,-5.867940
320.0000,1.776691
321.0000,-3.019471
322.0000,-4.831157
323.0000,-2.787097
324.0000,-5.083060
325.0000,4.844345
326.0000,-1.703393
327.0000,5.077985
328.0000,-6.911385
329.0000,-1.206857
330.0000,-2.573335
331.0000,2.989113
332.0000,2.065609
333.0000,0.081768
334.0000,-8.320500
335.0000,-4.476147
336.0000,-1.488435
337.0000,3.453098
338.0000,3.560012
339.0000,10.842751
340.0000,-0.219810
341.0000,-10.080576
342.0000,-15.736943
343.0000,-2.989911
344.0000,1.278549
345.0000,-13.838791
346.0000,0.383161
347.0000,-1.011513
348.0000,-10.248324
349.0000,4.527649
350.0000,-1.189294
351.0000,0.998546
352.0000,-4.121093
353.0000,3.762076
354.0000,5.086518
355.0000,6.135711
356.0000,7.138696
357.0000,6.576843
358.0000,4.716139
359.0000,-5.856499
360.0000,-10.153779
361.0000,5.659194
362.0000,-6.625854
363.0000,-4.267118
364.0000,7.455024
365.0000,-5.348943
366.0000,1.479416
367.0000,1.053828
368.0000,-0.114242
369.0000,0.357198
370.0000,4.530594
371.0000,6.215855
372.0000,-2.127621
373.0000,5.532328
374.0000,-1.949164
375.0000,-10.127413
376.0000,-2.601212
377.0000,-9.530684
378.0000,-4.487780
379.0000,-3.724333
380.0000,8.825455
381.0000,4.020100
382.0000,0.985820
383.0000,4.837383
384.0000,1.601358
385.0000,5.173809
386.0000,-5.929499
387.0000,8.627650
388.0000,-8.393909
389.0000,3.027777
390.0000,7.813230
391.0000,5.275329
392.0000,5.163742
393.0000,-4.278648
394.0000,-8.762028
395.0000,1.897115
396.0000,-0.768415
397.0000,9.730029
398.0000,0.508652
399.0000,6.869515
400.0000,-7.237395
401.0000,0.271985
402.0000,0.333923
403.0000,-9.169105
404.0000,5.550843
405.0000,-0.427874
406.0000,-4.222902
407.0000,-2.742485
408.0000,-3.003664
409.0000,-4.409142
410.0000,4.376273
411.0000,-3.979010
412.0000,-7.012727
413.0000,15.630734
414.0000,6.422211
415.0000,4.761545
416.0000,1.797625
417.0000,-4.391735
418.0000,5.326186
419.0000,5.269321
420.0000,-13.807325
421.0000,2.481502
422.0000,-2.571141
423.0000,0.108161
424.0000,11.264145
425.0000,-3.088894
426.0000,3.614626
427.0000,-6.499499
428.0000,-1.830142
429.0000,-0.935806
430.0000,-7.325955
431.0000,5.536316
432.0000,3.400338
433.0000,-11.499254
434.0000,-1.390771
435.0000,23.611345
436.0000,-2.141693
437.0000,-5.688156
438.0000,-5.227233
439.0000,4.625217
440.0000,1.762812
441.0000,3.799854
442.0000,-9.711525
443.0000,0.621776
444.0000,-2.124956
445.0000,4.899990
446.0000,7.843752
447.0000,3.771265
448.0000,-7.518171
449.0000,4.943287
450.0000,9.869807
451.0000,-3.936546
452.0000,-4.015677
453.0000,1.509923
454.0000,-5.051859
455.0000,1.148967
456.0000,0.645694
457.0000,2.324492
458.0000,-5.892242
459.0000,-0.675156
460.0000,7.307370
461.0000,2.374477
462.0000,-0.370300
463.0000,-1.567612
464.0000,1.493027
465.0000,10.421989
466.0000,-4.481471
467.0000,5.442266
468.0000,-2.361799
469.0000,15.015265
470.0000,2.746855
471.0000,-3.840156
472.0000,5.715528
473.0000,-5.876228
474.0000,0.142524
475.0000,3.171991
476.0000,7.893713
477.0000,1.835030
478.0000,-7.591063
479.0000,-9.631928
480.0000,-7.012729
481.0000,-4.200549
482.0000,-12.709724
483.0000,4.554936
484.0000,0.020004
485.0000,1.666129
486.0000,8.198028
487.0000,0.428190
488.0000,5.256237
489.0000,6.196594
490.0000,2.574307
491.0000,2.203707
492.0000,-1.399042
493.0000,-2.998207
494.0000,1.808753
495.0000,3.090587
496.0000,-4.867358
497.0000,13.034776
498.0000,6.572945
499.0000,-6.362344
500.0000,-1.286428
501.0000,2.433260
502.0000,5.968482
503.0000,-3.026252
504.0000,5.384162
505.0000,-0.561946
506.0000,2.778024
507.0000,-1.294804
508.0000,7.254275
509.0000,0.911478
510.0000,4.694043
511.0000,1.760765
512.0000,2.922242
513.0000,1.981393
514.0000,-4.612474
515.0000,17.000076
516.0000,2.433321
517.0000,-3.647496
518.0000,-8.778494
519.0000,1.833550
520.0000,-3.467955
521.0000,1.305987
522.0000,5.571895
523.0000,-9.737367
524.0000,-10.693252
525.0000,-0.847824
526.0000,7.439392
527.0000,7.811610
528.0000,-2.611532
529.0000,-7.962055
530.0000,9.505270
531.0000,-8.614271
532.0000,0.107317
533.0000,8.546605
534.0000,-1.645274
535.0000,6.893005
536.0000,-4.089312
537.0000,-2.545036
538.0000,-3.580513
539.0000,-0.220052
540.0000,9.996259
541.0000,1.312100
542.0000,6.275338
543.0000,-1.827615
544.0000,0.104259
545.0000,7.722137
546.0000,14.040078
547.0000,-0.267494
548.0000,-5.185765
549.0000,-5.482048
550.0000,6.295836
551.0000,3.224840
552.0000,-3.216887
553.0000,7.442669
554.0000,-1.614668
555.0000,5.878715
556.0000,9.524519
557.0000,4.978978
558.0000,9.483874
559.0000,8.346721
560.0000,-4.547473
561.0000,2.313841
562.0000,10.430328
563.0000,6.271202
564.0000,3.492510
565.0000,3.482282
566.0000,6.912920
567.0000,-1.005679
568.0000,12.066378
569.0000,0.200656
570.0000,-12.055795
571.0000,12.879629
572.0000,4.560381
573.0000,8.092229
574.0000,1.266802
575.0000,1.310565
576.0000,1.129132
577.0000,3.720535
578.0000,9.726438
579.0000,1.802874
580.0000,4.157394
581.0000,30.415541
582.0000,7.090005
583.0000,10.486432
584.0000,16.423943
585.0000,5.331832
586.0000,6.693014
587.0000,14.772030
588.0000,8.747446
589.0000,17.389302
590.0000,15.422208
591.0000,13.947695
592.0000,24.142593
593.0000,20.872221
594.0000,38.663359
595.0000,42.053400
596.0000,41.426921
597.0000,56.651863
598.0000,64.532825
599.0000,77.144362
600.0000,88.807883
601.0000,89.017860
602.0000,78.397350
603.0000,86.938033
604.0000,79.115156
605.0000,78.099375
606.0000,57.387262
607.0000,57.840364
608.0000,50.846540
609.0000,52.220904
610.0000,40.354127
611.0000,47.712944
612.0000,61.898343
613.0000,73.432527
614.0000,69.949217
615.0000,92.484979
616.0000,111.381635
617.0000,125.386695
618.0000,158.278228
619.0000,174.316226
620.0000,185.201933
621.0000,168.423524
622.0000,152.438156
623.0000,123.227877
624.0000,105.679848
625.0000,86.376663
626.0000,62.153250
627.0000,54.136174
628.0000,52.877327
629.0000,47.056841
630.0000,37.595969
631.0000,40.860734
632.0000,14.496418
633.0000,20.656149
634.0000,12.010305
635.0000,18.448889
636.0000,22.185418
637.0000,16.415248
638.0000,10.955728
639.0000,20.946764
640.0000,14.438594
641.0000,9.701708
642.0000,19.199000
643.0000,9.284032
644.0000,0.250064
645.0000,1.978137
646.0000,11.581902
647.0000,-2.104375
648.0000,5.971710
649.0000,2.391772
650.0000,6.788508
651.0000,4.353800
652.0000,5.661791
653.0000,-0.696388
654.0000,2.191000
655.0000,1.332710
656.0000,-8.341249
657.0000,2.876453
658.0000,5.330117
659.0000,1.847242
660.0000,9.938112
661.0000,-1.100890
662.0000,3.311012
663.0000,5.926819
664.0000,4.114152
665.0000,0.259622
666.0000,8.216774
667.0000,4.133805
668.0000,-10.613004
669.0000,3.605389
670.0000,7.035980
671.0000,0.608576
672.0000,11.765308
673.0000,2.892042
674.0000,-2.416848
675.0000,6.157218
676.0000,8.830315
677.0000,-6.213477
678.0000,6.660379
679.0000,-0.907788
680.0000,11.113973
681.0000,10.590175
682.0000,-5.821355
683.0000,5.322886
684.0000,-6.202780
685.0000,11.236928
686.0000,-8.923937
687.0000,1.048581
688.0000,7.933962
689.0000,-11.617600
690.0000,3.107557
691.0000,0.866267
692.0000,-6.708609
693.0000,-2.839906
694.0000,3.788408
695.0000,8.475811
696.0000,3.129411
697.0000,3.945718
698.0000,3.916051
699.0000,0.656801
700.0000,7.919798
701.0000,2.151053
702.0000,6.783307
703.0000,5.803568
704.0000,4.277105
705.0000,-9.862291
706.0000,4.666910
707.0000,-6.066094
708.0000,16.792922
709.0000,-7.660962
710.0000,9.246692
711.0000,2.586341
712.0000,1.367727
713.0000,-8.056790
714.0000,-8.434830
715.0000,7.748283
716.0000,5.828788
717.0000,6.431000
718.0000,-4.224441
719.0000,-1.454656
720.0000,-3.027033
721.0000,9.544421
722.0000,11.678262
723.0000,4.098345
724.0000,-9.960332
725.0000,10.189965
726.0000,-2.431934
727.0000,-5.477614
728.0000,12.169704
729.0000,-5.066534
730.0000,-4.222802
731.0000,5.690804
732.0000,-9.408658
733.0000,5.786036
734.0000,4.892544
735.0000,9.740287
736.0000,9.962066
737.0000,6.062151
738.0000,3.393250
739.0000,7.609164
740.0000,-6.284841
741.0000,5.158534
742.0000,1.944626
743.0000,1.359297
744.0000,-2.019044
745.0000,2.921463
746.0000,9.260933
747.0000,13.518936
748.0000,3.252404
749.0000,4.014581
750.0000,0.911078
751.0000,3.359772
752.0000,7.126176
753.0000,2.477121
754.0000,9.594917
755.0000,-0.214425
756.0000,7.523002
757.0000,2.626355
758.0000,3.690895
759.0000,-7.088125
760.0000,6.943659
761.0000,5.145971
762.0000,-4.152800
763.0000,-5.085603
764.0000,3.044335
765.0000,2.919295
766.0000,5.183283
767.0000,12.109655
768.0000,4.172729
769.0000,14.917827
770.0000,-2.470682
771.0000,6.978050
772.0000,14.272944
773.0000,16.736192
774.0000,12.730903
775.0000,14.281974
776.0000,16.527612
777.0000,13.492466
778.0000,26.694182
779.0000,20.781707
780.0000,10.811332
781.0000,23.925893
782.0000,29.792145
783.0000,27.052148
784.0000,39.740013
785.0000,34.927214
786.0000,32.721520
787.0000,47.989921
788.0000,49.647362
789.0000,60.718387
790.0000,66.608496
791.0000,85.582746
792.0000,106.019493
793.0000,111.446041
794.0000,116.966269
795.0000,114.097947
796.0000,120.338794
797.0000,109.729900
798.0000,117.097539
799.0000,107.064989
800.0000,105.227193
801.0000,94.747802
802.0000,108.233270
803.0000,92.600674
804.0000,101.614691
805.0000,117.235731
806.0000,140.932769
807.0000,168.422200
808.0000,204.160296
809.0000,253.444216
810.0000,297.964722
811.0000,333.240593
812.0000,336.750612
813.0000,322.074089
814.0000,293.417543
815.0000,238.875204
816.0000,190.894990
817.0000,160.219590
818.0000,130.278838
819.0000,106.709781
820.0000,94.895802
821.0000,65.692525
822.0000,67.246607
823.0000,49.898262
824.0000,53.323739
825.0000,41.181779
826.0000,43.378994
827.0000,44.905843
828.0000,32.627451
829.0000,26.607791
830.0000,34.980556
831.0000,26.595652
832.0000,22.735980
833.0000,11.092457
834.0000,7.253625
835.0000,21.808674
836.0000,7.798769
837.0000,15.540777
838.0000,-2.542218
839.0000,25.212834
840.0000,6.760967
841.0000,8.915167
842.0000,11.691449
843.0000,6.582594
844.0000,7.015374
845.0000,4.125312
846.0000,10.005340
847.0000,4.623429
848.0000,14.038367
849.0000,4.172818
850.0000,9.482677
851.0000,5.927820
852.0000,2.708730
853.0000,-2.407995
854.0000,5.425115
855.0000,-0.025917
856.0000,4.877960
857.0000,3.608842
858.0000,3.546169
859.0000,5.869646
860.0000,-1.021301
861.0000,11.846949
862.0000,4.475116
863.0000,11.099384
864.0000,-3.826019
865.0000,6.827737
866.0000,12.351040
867.0000,12.093038
868.0000,1.947718
869.0000,7.916734
870.0000,7.714665
871.0000,14.001571
872.0000,-0.436284
873.0000,6.045734
874.0000,11.165877
875.0000,-0.636100
876.0000,-10.916359
877.0000,4.393332
878.0000,0.677609
879.0000,1.666364
880.0000,10.573448
881.0000,0.334740
882.0000,9.771231
883.0000,5.517471
884.0000,6.132215
885.0000,1.566934
886.0000,7.707955
887.0000,-2.322444
888.0000,-3.494900
889.0000,-7.464736
890.0000,2.259398
891.0000,1.985062
892.0000,0.005186
893.0000,7.302524
894.0000,12.000848
895.0000,-4.757457
896.0000,1.316495
897.0000,0.393321
898.0000,3.604516
899.0000,-2.382856
900.0000,16.608972
901.0000,9.470503
902.0000,0.172165
903.0000,2.303143
904.0000,6.322797
905.0000,-2.729615
906.0000,8.075446
907.0000,8.530402
908.0000,0.854996
909.0000,9.679684
910.0000,17.174994
911.0000,11.314639
912.0000,-2.301105
913.0000,-0.382378
914.0000,5.980275
915.0000,2.467780
916.0000,9.343782
917.0000,9.270152
918.0000,2.158675
919.0000,7.315918
920.0000,1.128343
921.0000,5.640040
922.0000,-2.636271
923.0000,-0.464777
924.0000,7.659010
925.0000,0.924174
926.0000,4.680812
927.0000,8.160811
928.0000,-0.445452
929.0000,10.182016
930.0000,6.911546
931.0000,0.575914
932.0000,-9.781678
933.0000,5.136399
934.0000,5.659150
935.0000,4.254723
936.0000,1.711864
937.0000,-7.624887
938.0000,12.337290
939.0000,12.439986
940.0000,13.800302
941.0000,16.380748
942.0000,-0.072061
943.0000,0.449362
944.0000,7.293815
945.0000,4.998638
946.0000,3.836951
947.0000,21.938844
948.0000,9.263362
949.0000,8.883743
950.0000,20.819260
951.0000,19.120485
952.0000,21.354560
953.0000,14.374229
954.0000,22.005127
955.0000,18.310212
956.0000,22.733339
957.0000,26.296110
958.0000,40.897479
959.0000,42.388290
960.0000,55.256139
961.0000,56.226584
962.0000,80.938852
963.0000,87.986331
964.0000,94.503257
965.0000,99.135477
966.0000,110.450802
967.0000,111.907880
968.0000,97.709231
969.0000,89.926081
970.0000,66.013893
971.0000,62.274080
972.0000,47.560950
973.0000,45.983888
974.0000,35.679840
975.0000,34.941830
976.0000,31.951713
977.0000,37.188903
978.0000,46.341595
979.0000,30.142810
980.0000,30.975050
981.0000,30.621628
982.0000,33.027483
983.0000,29.347498
984.0000,52.481609
985.0000,47.282419
986.0000,44.827304
987.0000,56.695372
988.0000,60.515707
989.0000,66.205934
990.0000,75.251017
991.0000,81.550431
992.0000,102.123314
993.0000,131.001924
994.0000,157.636345
995.0000,212.514531
996.0000,274.218930
997.0000,360.919573
998.0000,514.682060
999.0000,693.553092
1000.0000,897.860606
1001.0000,1005.283052
1002.0000,911.433855
1003.0000,694.986313
1004.0000,507.893825
1005.0000,361.996077
1006.0000,280.806167
1007.0000,210.458980
1008.0000,159.752824
1009.0000,129.916720
1010.0000,116.296948
1011.0000,95.580421
1012.0000,74.847094
1013.0000,69.842450
1014.0000,73.897709
1015.0000,67.457153
1016.0000,67.983311
1017.0000,60.172246
1018.0000,60.989360
1019.0000,52.111900
1020.0000,58.862178
1021.0000,67.540868
1022.0000,85.631288
1023.0000,81.540804
1024.0000,97.028723
1025.0000,125.320808
1026.0000,156.984684
1027.0000,195.628901
1028.0000,257.818138
1029.0000,325.422386
1030.0000,386.959591
1031.0000,428.893036
1032.0000,406.207647
1033.0000,316.259567
1034.0000,249.194941
1035.0000,192.981677
1036.0000,151.628344
1037.0000,109.439775
1038.0000,95.836693
1039.0000,87.503930
1040.0000,67.098830
1041.0000,49.566098
1042.0000,51.753784
1043.0000,46.274161
1044.0000,42.738998
1045.0000,27.144040
1046.0000,21.248166
1047.0000,27.632946
1048.0000,14.430131
1049.0000,34.669373
1050.0000,23.630895
1051.0000,17.998404
1052.0000,25.557165
1053.0000,24.095759
1054.0000,13.257924
1055.0000,18.600675
1056.0000,18.454570
1057.0000,10.812502
1058.0000,9.512122
1059.0000,12.565015
1060.0000,10.732821
1061.0000,7.996167
1062.0000,10.343370
1063.0000,4.791289
1064.0000,11.464552
1065.0000,11.433005
1066.0000,5.621992
1067.0000,7.496527
1068.0000,1.648360
1069.0000,2.485288
1070.0000,1.531376
1071.0000,2.715766
1072.0000,-0.804554
1073.0000,12.334287
1074.0000,5.635547
1075.0000,6.752546
1076.0000,15.922437
1077.0000,11.097376
1078.0000,11.386724
1079.0000,8.028306
1080.0000,7.401504
1081.0000,9.195294
1082.0000,4.129323
1083.0000,2.235750
1084.0000,11.147491
1085.0000,9.220617
1086.0000,9.971438
1087.0000,0.250418
1088.0000,1.219875
1089.0000,3.088853
1090.0000,12.233023
1091.0000,13.583297
1092.0000,10.778433
1093.0000,7.210488
1094.0000,5.066207
1095.0000,7.212499
1096.0000,13.517282
1097.0000,5.209074
1098.0000,8.865440
1099.0000,8.621776
1100.0000,17.534121
1101.0000,-2.981024
1102.0000,4.208194
1103.0000,1.923019
1104.0000,18.688596
1105.0000,3.903722
1106.0000,9.105262
1107.0000,22.353294
1108.0000,15.707582
1109.0000,19.933123
1110.0000,24.234619
1111.0000,25.952520
1112.0000,29.517750
1113.0000,40.625358
1114.0000,44.758896
1115.0000,43.337009
1116.0000,41.702826
1117.0000,52.473812
1118.0000,71.428120
1119.0000,78.408931
1120.0000,86.031823
1121.0000,89.276028
1122.0000,93.437427
1123.0000,101.163565
1124.0000,79.868919
1125.0000,76.203680
1126.0000,58.633190
1127.0000,58.606327
1128.0000,43.483924
1129.0000,46.905807
1130.0000,46.415511
1131.0000,32.955516
1132.0000,24.908036
1133.0000,24.147815
1134.0000,30.875711
1135.0000,35.122940
1136.0000,21.034826
1137.0000,28.727710
1138.0000,16.705345
1139.0000,29.128386
1140.0000,29.925748
1141.0000,34.765671
1142.0000,39.846364
1143.0000,32.839619
1144.0000,26.753369
1145.0000,44.008317
1146.0000,36.168188
1147.0000,45.371638
1148.0000,50.302199
1149.0000,53.495489
1150.0000,71.542560
1151.0000,89.722791
1152.0000,98.562738
1153.0000,140.501571
1154.0000,138.863671
1155.0000,150.757894
1156.0000,146.392706
1157.0000,124.969643
1158.0000,107.863443
1159.0000,98.988694
1160.0000,82.697890
1161.0000,71.194541
1162.0000,61.436009
1163.0000,41.090444
1164.0000,49.014792
1165.0000,49.283679
1166.0000,40.448444
1167.0000,35.933928
1168.0000,40.693504
1169.0000,29.386485
1170.0000,39.481053
1171.0000,40.082507
1172.0000,36.331352
1173.0000,47.384385
1174.0000,53.241892
1175.0000,52.096642
1176.0000,64.930836
1177.0000,75.696323
1178.0000,81.016932
1179.0000,94.180238
1180.0000,117.844295
1181.0000,148.723352
1182.0000,164.371865
1183.0000,194.564312
1184.0000,191.931621
1185.0000,193.905911
1186.0000,186.705387
1187.0000,187.881682
1188.0000,169.680526
1189.0000,154.678500
1190.0000,144.955549
1191.0000,113.762767
1192.0000,95.217540
1193.0000,82.536256
1194.0000,67.250746
1195.0000,73.205580
1196.0000,47.463888
1197.0000,43.444793
1198.0000,39.026977
1199.0000,29.445018
1200.0000,37.589450
1201.0000,29.524312
1202.0000,25.212141
1203.0000,22.765452
1204.0000,28.662091
1205.0000,24.190945
1206.0000,18.978179
1207.0000,22.598876
1208.0000,14.740760
1209.0000,4.963588
1210.0000,19.923253
1211.0000,14.996943
1212.0000,3.626342
1213.0000,13.065916
1214.0000,-0.262733
1215.0000,3.218304
1216.0000,12.567316
1217.0000,1.947187
1218.0000,11.425261
1219.0000,10.487657
1220.0000,18.605600
1221.0000,13.443344
1222.0000,7.629060
1223.0000,1.154588
1224.0000,0.156160
1225.0000,5.943230
1226.0000,6.425485
1227.0000,7.596979
1228.0000,11.360932
1229.0000,8.903247
1230.0000,9.823545
1231.0000,2.687922
1232.0000,2.646476
1233.0000,-3.488384
1234.0000,9.298557
1235.0000,21.500508
1236.0000,-1.904412
1237.0000,2.329489
1238.0000,3.245502
1239.0000,11.345671
1240.0000,12.310217
1241.0000,13.357885
1242.0000,-2.061442
1243.0000,8.942087
1244.0000,1.391373
1245.0000,-2.092038
1246.0000,-5.757786
1247.0000,3.325459
1248.0000,-4.374499
1249.0000,4.167111
1250.0000,7.936572
1251.0000,1.015622
1252.0000,1.086509
1253.0000,4.214043
1254.0000,15.044236
1255.0000,5.453245
1256.0000,-2.681536
1257.0000,10.786360
1258.0000,0.774469
1259.0000,0.514454
1260.0000,10.631932
1261.0000,2.366193
1262.0000,1.929150
1263.0000,6.559649
1264.0000,-4.400712
1265.0000,1.896636
1266.0000,0.677235
1267.0000,6.479649
1268.0000,-1.618620
1269.0000,2.576926
1270.0000,-0.150419
1271.0000,4.090782
1272.0000,-12.335148
1273.0000,-2.268805
1274.0000,8.523167
1275.0000,1.646864
1276.0000,-2.719744
1277.0000,-7.962849
1278.0000,10.794713
1279.0000,-7.544355
1280.0000,-9.683270
1281.0000,-8.724444
1282.0000,-0.262971
1283.0000,5.389224
1284.0000,-5.483291
1285.0000,-8.716603
1286.0000,-2.038804
1287.0000,7.238384
1288.0000,1.813907
1289.0000,7.729755
1290.0000,5.729812
1291.0000,3.390099
1292.0000,-4.159614
1293.0000,0.854104
1294.0000,8.433374
1295.0000,7.421812
1296.0000,11.714565
1297.0000,6.845719
1298.0000,1.521685
1299.0000,5.018118
1300.0000,-10.391376
1301.0000,3.901278
1302.0000,-0.105182
1303.0000,1.541045
1304.0000,0.464387
1305.0000,8.230443
1306.0000,-3.126977
1307.0000,1.771064
1308.0000,6.862660
1309.0000,0.572575
1310.0000,7.919512
1311.0000,7.320300
1312.0000,2.225131
1313.0000,7.276781
1314.0000,7.581078
1315.0000,12.752993
1316.0000,2.857061
1317.0000,7.282450
1318.0000,4.404683
1319.0000,2.019359
1320.0000,-3.598281
1321.0000,7.485938
1322.0000,3.215019
1323.0000,11.079419
1324.0000,1.152645
1325.0000,0.898085
1326.0000,8.141953
1327.0000,-5.481644
1328.0000,9.275707
1329.0000,-3.050381
1330.0000,0.107211
1331.0000,7.982833
1332.0000,-4.531048
1333.0000,9.339776
1334.0000,-0.552312
1335.0000,5.232010
1336.0000,8.839499
1337.0000,2.576988
1338.0000,-1.361842
1339.0000,3.799734
1340.0000,4.994926
1341.0000,-5.565496
1342.0000,8.660180
1343.0000,-1.018602
1344.0000,5.448923
1345.0000,6.996463
1346.0000,3.745209
1347.0000,2.441923
1348.0000,8.024591
1349.0000,10.484038
1350.0000,-0.833990
1351.0000,3.216751
1352.0000,3.792659
1353.0000,2.159204
1354.0000,4.891864
1355.0000,7.495895
1356.0000,21.577175
1357.0000,3.849561
1358.0000,1.014724
1359.0000,14.567597
1360.0000,-3.233952
1361.0000,13.190703
1362.0000,4.649405
1363.0000,2.951128
1364.0000,-2.609945
1365.0000,0.109503
1366.0000,9.324847
1367.0000,15.430971
1368.0000,-3.470671
1369.0000,-6.484187
1370.0000,13.620066
1371.0000,10.436915
1372.0000,6.208560
1373.0000,6.397252
1374.0000,-5.215524
1375.0000,0.278069
1376.0000,2.433042
1377.0000,5.043801
1378.0000,-6.074910
1379.0000,10.518127
1380.0000,16.675320
1381.0000,11.715766
1382.0000,6.647562
1383.0000,14.704129
1384.0000,-0.526410
1385.0000,6.404112
1386.0000,1.304498
1387.0000,4.373140
1388.0000,8.256639
1389.0000,14.287461
1390.0000,4.194874
1391.0000,8.752231
1392.0000,7.416707
1393.0000,12.094417
1394.0000,4.932561
1395.0000,11.238606
1396.0000,8.277688
1397.0000,11.056603
1398.0000,13.045453
1399.0000,2.132958
1400.0000,9.790280
1401.0000,18.868515
1402.0000,2.586480
1403.0000,7.486115
1404.0000,5.084259
1405.0000,21.468464
1406.0000,11.770593
1407.0000,15.939582
1408.0000,13.952267
1409.0000,13.885730
1410.0000,13.309591
1411.0000,9.890642
1412.0000,11.242884
1413.0000,14.753052
1414.0000,13.850721
1415.0000,14.788229
1416.0000,15.581993
1417.0000,27.512579
1418.0000,11.442105
1419.0000,21.417798
1420.0000,31.450625
1421.0000,19.419723
1422.0000,27.001499
1423.0000,34.399856
1424.0000,29.511826
1425.0000,33.386263
1426.0000,28.344718
1427.0000,27.913723
1428.0000,41.548209
1429.0000,53.508111
1430.0000,47.670070
1431.0000,46.788394
1432.0000,57.083783
1433.0000,66.741405
1434.0000,62.176149
1435.0000,77.657336
1436.0000,80.759713
1437.0000,86.992875
1438.0000,99.895738
1439.0000,120.029992
1440.0000,138.238452
1441.0000,161.990875
1442.0000,185.129089
1443.0000,208.877211
1444.0000,243.358293
1445.0000,281.197211
1446.0000,311.533599
1447.0000,358.785164
1448.0000,392.936387
1449.0000,410.859476
1450.0000,406.247723
1451.0000,410.917882
1452.0000,394.292366
1453.0000,343.881533
1454.0000,312.473265
1455.0000,268.375973
1456.0000,243.789026
1457.0000,213.329784
1458.0000,177.732125
1459.0000,157.188950
1460.0000,132.896360
1461.0000,106.955107
1462.0000,95.922994
1463.0000,88.783092
1464.0000,83.878982
1465.0000,74.061817
1466.0000,63.993217
1467.0000,62.053824
1468.0000,62.723001
1469.0000,52.137879
1470.0000,51.392050
1471.0000,43.346572
1472.0000,39.665832
1473.0000,40.873729
1474.0000,28.717864
1475.0000,37.601422
1476.0000,24.927988
1477.0000,29.064593
1478.0000,36.753223
1479.0000,26.461599
1480.0000,19.542951
1481.0000,23.790894
1482.0000,20.006162
1483.0000,16.238800
1484.0000,14.952703
1485.0000,13.076111
1486.0000,15.645183
1487.0000,7.945110
1488.0000,19.914039
1489.0000,5.768257
1490.0000,19.021529
1491.0000,11.756542
1492.0000,10.678841
1493.0000,11.775391
1494.0000,2.608559
1495.0000,17.272871
1496.0000,19.438864
1497.0000,14.070851
1498.0000,10.216794
1499.0000,4.398392
1500.0000,6.298304
1501.0000,12.358533
1502.0000,6.566963
1503.0000,-0.362615
1504.0000,4.434418
1505.0000,8.290522
1506.0000,14.132843
1507.0000,15.562734
1508.0000,15.954367
1509.0000,12.384470
1510.0000,9.695302
1511.0000,1.188073
1512.0000,9.345783
1513.0000,-0.964286
1514.0000,9.090537
1515.0000,16.270551
1516.0000,7.028895
1517.0000,2.538755
1518.0000,13.263741
1519.0000,8.649147
1520.0000,11.073687
1521.0000,11.631158
1522.0000,6.470066
1523.0000,5.503512
1524.0000,9.127912
1525.0000,6.470067
1526.0000,10.459153
1527.0000,5.485849
1528.0000,13.245847
1529.0000,5.896828
1530.0000,-4.871142
1531.0000,2.924191
1532.0000,8.557553
1533.0000,8.232383
1534.0000,15.705134
1535.0000,-1.591354
1536.0000,5.956940
1537.0000,6.737920
1538.0000,0.871686
1539.0000,7.259569
1540.0000,7.034440
1541.0000,16.491827
1542.0000,1.285503
1543.0000,10.691802
1544.0000,2.198395
1545.0000,19.660214
1546.0000,14.698025
1547.0000,15.312184
1548.0000,-0.424176
1549.0000,5.999978
1550.0000,7.559764
1551.0000,12.818162
1552.0000,8.410664
1553.0000,9.955497
1554.0000,6.076120
1555.0000,18.663045
1556.0000,12.624360
1557.0000,8.750396
1558.0000,13.510490
1559.0000,11.154841
1560.0000,4.737053
1561.0000,11.659747
1562.0000,23.348780
1563.0000,21.262348
1564.0000,31.036681
1565.0000,24.461092
1566.0000,23.839565
1567.0000,29.622604
1568.0000,24.581906
1569.0000,39.863353
1570.0000,34.850257
1571.0000,43.369169
1572.0000,41.052652
1573.0000,50.932244
1574.0000,57.820540
1575.0000,58.667889
1576.0000,83.435500
1577.0000,103.570054
1578.0000,115.922953
1579.0000,138.277082
1580.0000,168.382756
1581.0000,193.048366
1582.0000,214.506798
1583.0000,227.538393
1584.0000,223.413782
1585.0000,202.942863
1586.0000,175.430181
1587.0000,156.900090
1588.0000,141.005253
1589.0000,137.381209
1590.0000,119.525895
1591.0000,130.555099
1592.0000,126.987004
1593.0000,153.154111
1594.0000,170.141045
1595.0000,180.798754
1596.0000,213.700463
1597.0000,261.758536
1598.0000,317.999235
1599.0000,410.511582
1600.0000,513.000789
1601.0000,590.696773
1602.0000,627.554152
1603.0000,603.061122
1604.0000,500.318418
1605.0000,406.220879
1606.0000,325.584310
1607.0000,249.147582
1608.0000,188.392924
1609.0000,158.784118
1610.0000,129.180507
1611.0000,107.853303
1612.0000,88.821919
1613.0000,71.178479
1614.0000,67.786556
1615.0000,60.156262
1616.0000,51.077075
1617.0000,40.645662
1618.0000,49.150656
1619.0000,36.309423
1620.0000,31.219388
1621.0000,18.296505
1622.0000,31.482286
1623.0000,20.041975
1624.0000,17.750386
1625.0000,10.356086
1626.0000,28.360448
1627.0000,12.909410
1628.0000,23.509617
1629.0000,14.133141
1630.0000,16.166972
1631.0000,13.363302
1632.0000,14.972896
1633.0000,9.766671
1634.0000,1.243192
1635.0000,7.969302
1636.0000,22.708116
1637.0000,7.352581
1638.0000,5.533752
1639.0000,-4.153287
1640.0000,18.225586
1641.0000,-1.320620
1642.0000,10.292148
1643.0000,6.953965
1644.0000,18.351203
1645.0000,6.460818
1646.0000,8.145170
1647.0000,16.908863
1648.0000,5.745342
1649.0000,3.175578
1650.0000,7.517556
1651.0000,3.567053
1652.0000,-0.480616
1653.0000,-6.565538
1654.0000,7.058522
1655.0000,3.729443
1656.0000,11.025008
1657.0000,12.217509
1658.0000,11.715575
1659.0000,-0.740107
1660.0000,-0.624077
1661.0000,10.582351
1662.0000,7.675426
1663.0000,2.437682
1664.0000,6.472052
1665.0000,4.008898
1666.0000,-2.713667
1667.0000,9.045178
1668.0000,-7.684268
1669.0000,9.181451
1670.0000,9.665500
1671.0000,2.776358
1672.0000,7.409901
1673.0000,3.430260
1674.0000,8.326680
1675.0000,5.374566
1676.0000,10.768309
1677.0000,6.536323
1678.0000,-2.997241
1679.0000,13.171915
1680.0000,-7.666767
1681.0000,2.800431
1682.0000,1.615731
1683.0000,7.063089
1684.0000,0.565117
1685.0000,8.769258
1686.0000,12.272360
1687.0000,3.091856
1688.0000,7.406932
1689.0000,-10.891416
1690.0000,5.651894
1691.0000,-8.551865
1692.0000,15.246141
1693.0000,10.681913
1694.0000,4.441081
1695.0000,2.482196
1696.0000,8.863554
1697.0000,3.308517
1698.0000,11.634263
1699.0000,1.839355
1700.0000,5.575482
1701.0000,10.932404
1702.0000,8.266791
1703.0000,10.784666
1704.0000,10.152588
1705.0000,11.514169
1706.0000,8.632578
1707.0000,22.924343
1708.0000,17.788250
1709.0000,24.539236
1710.0000,16.135609
1711.0000,10.329572
1712.0000,22.709983
1713.0000,29.896663
1714.0000,22.764759
1715.0000,32.287978
1716.0000,34.247700
1717.0000,26.859500
1718.0000,49.903400
1719.0000,43.190719
1720.0000,58.500973
1721.0000,57.714904
1722.0000,57.951781
1723.0000,84.105663
1724.0000,95.069732
1725.0000,88.028752
1726.0000,112.569895
1727.0000,123.188020
1728.0000,144.619461
1729.0000,153.348198
1730.0000,152.078134
1731.0000,152.004718
1732.0000,141.157406
1733.0000,118.048993
1734.0000,113.677853
1735.0000,111.205277
1736.0000,88.743353
1737.0000,70.448303
1738.0000,68.430587
1739.0000,56.218763
1740.0000,53.873133
1741.0000,44.082624
1742.0000,43.449728
1743.0000,23.338470
1744.0000,32.070665
1745.0000,24.769546
1746.0000,19.026356
1747.0000,21.515062
1748.0000,20.581511
1749.0000,20.124370
1750.0000,11.833372
1751.0000,16.807939
1752.0000,23.703637
1753.0000,15.782737
1754.0000,10.565901
1755.0000,1.048693
1756.0000,2.655984
1757.0000,6.294772
1758.0000,2.866506
1759.0000,19.414861
1760.0000,3.469913
1761.0000,12.164472
1762.0000,11.402938
1763.0000,11.211011
1764.0000,9.858285
1765.0000,11.143926
1766.0000,5.377613
1767.0000,4.703519
1768.0000,0.911760
1769.0000,-6.912763
1770.0000,15.319932
1771.0000,6.023272
1772.0000,13.050255
1773.0000,0.384000
1774.0000,11.205101
1775.0000,11.296072
1776.0000,6.477387
1777.0000,6.738588
1778.0000,10.089425
1779.0000,16.004061
1780.0000,-6.397910
1781.0000,1.347125
1782.0000,13.243306
1783.0000,3.375371
1784.0000,3.507236
1785.0000,3.007024
1786.0000,-2.838350
1787.0000,6.726134
1788.0000,-3.934886
1789.0000,-1.121591
1790.0000,10.869083
1791.0000,3.907456
1792.0000,4.138319
1793.0000,2.480035
1794.0000,-3.693006
1795.0000,4.269154
1796.0000,1.008781
1797.0000,-0.668519
1798.0000,7.892520
1799.0000,5.860983
1800.0000,-0.467039
1801.0000,4.014004
1802.0000,5.514712
1803.0000,1.294918
1804.0000,4.776300
1805.0000,-0.089585
1806.0000,11.671986
1807.0000,-0.066483
1808.0000,12.113848
1809.0000,2.886892
1810.0000,2.715536
1811.0000,-0.751230
1812.0000,7.139531
1813.0000,1.628932
1814.0000,-4.766151
1815.0000,8.009499
1816.0000,-0.842982
1817.0000,7.898598
1818.0000,16.324011
1819.0000,-1.353963
1820.0000,-0.636191
1821.0000,1.719615
1822.0000,5.326022
1823.0000,-4.847054
1824.0000,1.134256
1825.0000,14.768458
1826.0000,-6.472139
1827.0000,-7.697044
1828.0000,8.863019
1829.0000,7.953612
1830.0000,12.918069
1831.0000,8.047966
1832.0000,-2.329452
1833.0000,11.150662
1834.0000,-11.957630
1835.0000,2.797546
1836.0000,-10.892297
1837.0000,-3.679987
1838.0000,-4.454119
1839.0000,-0.537220
1840.0000,1.491271
1841.0000,-8.233776
1842.0000,-2.162558
1843.0000,0.613812
1844.0000,-0.524034
1845.0000,-0.170998
1846.0000,-2.928423
1847.0000,6.429518
1848.0000,-2.461222
1849.0000,4.922119
1850.0000,4.244213
1851.0000,12.347324
1852.0000,-3.713446
1853.0000,-3.324547
1854.0000,1.420978
1855.0000,4.890167
1856.0000,-7.875954
1857.0000,-2.280046
1858.0000,-0.602489
1859.0000,4.847982
1860.0000,4.678936
1861.0000,-1.802511
1862.0000,-4.455659
1863.0000,-3.962459
1864.0000,-4.988514
1865.0000,4.031711
1866.0000,-1.472148
1867.0000,4.469018
1868.0000,-1.121325
1869.0000,3.854258
1870.0000,4.789186
1871.0000,6.380094
1872.0000,2.546098
1873.0000,2.073965
1874.0000,8.100440
1875.0000,-3.749243
1876.0000,-0.907704
1877.0000,-3.062718
1878.0000,-3.784993
1879.0000,-4.337240
1880.0000,0.852340
1881.0000,3.449302
1882.0000,-7.140095
1883.0000,-4.697022
1884.0000,-2.053177
1885.0000,1.496150
1886.0000,12.323070
1887.0000,0.417614
1888.0000,-3.319432
1889.0000,-4.141669
1890.0000,0.319160
1891.0000,-4.253281
1892.0000,-1.225861
1893.0000,-1.320224
1894.0000,0.890668
1895.0000,-6.498139
1896.0000,-5.420772
1897.0000,1.300074
1898.0000,5.823898
1899.0000,5.814470
1900.0000,4.064525
1901.0000,4.877359
1902.0000,4.934363
1903.0000,0.231997
1904.0000,-2.544882
1905.0000,2.178653
1906.0000,0.539852
1907.0000,3.767201
1908.0000,0.621645
1909.0000,7.224839
1910.0000,-4.224895
1911.0000,0.802504
1912.0000,-0.081772
1913.0000,-0.424584
1914.0000,-4.186845
1915.0000,12.273174
1916.0000,-6.607823
1917.0000,-1.477709
1918.0000,-1.688951
1919.0000,7.041950
1920.0000,-4.755629
1921.0000,0.516659
1922.0000,6.340336
1923.0000,5.876449
1924.0000,1.893143
1925.0000,2.074873
1926.0000,1.402885
1927.0000,-1.070508
1928.0000,-5.287800
1929.0000,1.853287
1930.0000,0.049449
1931.0000,-12.193727
1932.0000,16.277442
1933.0000,1.392409
1934.0000,-5.747243
1935.0000,-1.777982
1936.0000,-4.116394
1937.0000,3.891962
1938.0000,-3.679340
1939.0000,1.173403
1940.0000,-9.209399
1941.0000,2.883994
1942.0000,-10.356444
1943.0000,7.211636
1944.0000,1.653706
1945.0000,7.394640
1946.0000,1.827216
1947.0000,-4.023825
1948.0000,-6.980948
1949.0000,-1.483102
1950.0000,-5.714303
1951.0000,-21.690194
1952.0000,-0.507395
1953.0000,-1.625649
1954.0000,-4.381137
1955.0000,4.531634
1956.0000,-3.216382
1957.0000,-1.885167
1958.0000,-0.905080
1959.0000,1.156125
1960.0000,2.235968
1961.0000,6.815460
1962.0000,0.695889
1963.0000,-0.782317
1964.0000,-2.931568
1965.0000,-5.293955
1966.0000,-3.106423
1967.0000,-6.036516
1968.0000,-3.319048
1969.0000,-6.305299
1970.0000,-10.830662
1971.0000,-2.150010
1972.0000,5.942679
1973.0000,-7.566988
1974.0000,0.385256
1975.0000,-3.671600
1976.0000,-4.468737
1977.0000,4.715221
1978.0000,-1.504347
1979.0000,-1.877725
1980.0000,10.230849
1981.0000,3.707507
1982.0000,7.044603
1983.0000,-0.290821
1984.0000,0.624648
1985.0000,4.669402
1986.0000,11.433240
1987.0000,0.560362
1988.0000,-0.175571
1989.0000,2.130508
1990.0000,4.687080
1991.0000,-1.221864
1992.0000,-6.616924
1993.0000,3.088895
1994.0000,-6.326399
1995.0000,3.246090
1996.0000,2.746838
1997.0000,-9.521956
1998.0000,7.652069
1999.0000,-3.064982
2000.0000,-7.136975
