raman_shift_cm-1,intensity
200.0000,-0.914865
201.0000,-2.525147
202.0000,2.131493
203.0000,3.172957
204.0000,7.502379
205.0000,3.704584
206.0000,2.740356
207.0000,11.895481
208.0000,-7.392170
209.0000,13.856998
210.0000,9.041110
211.0000,4.810402
212.0000,1.086272
213.0000,5.486796
214.0000,-2.721291
215.0000,-0.114103
216.0000,5.696031
217.0000,0.205393
218.0000,-0.923044
219.0000,-3.844883
220.0000,-0.470585
221.0000,-2.554743
222.0000,6.976102
223.0000,6.915852
224.0000,8.593159
225.0000,-7.712759
226.0000,3.136230
227.0000,3.311733
228.0000,-4.316317
229.0000,-0.081324
230.0000,7.148069
231.0000,-2.431413
232.0000,-2.268035
233.0000,6.977759
234.0000,1.460412
235.0000,6.365351
236.0000,4.053091
237.0000,7.933445
238.0000,1.226865
239.0000,7.471856
240.0000,13.054127
241.0000,5.200276
242.0000,9.123977
243.0000,17.163203
244.0000,7.150946
245.0000,4.541449
246.0000,-0.452089
247.0000,12.659670
248.0000,5.942078
249.0000,8.976861
250.0000,23.611324
251.0000,16.851959
252.0000,13.572833
253.0000,14.748532
254.0000,19.509957
255.0000,16.414579
256.0000,19.097461
257.0000,23.486607
258.0000,26.561564
259.0000,29.856132
260.0000,17.324840
261.0000,29.085661
262.0000,37.787138
263.0000,32.841321
264.0000,37.518969
265.0000,53.068955
266.0000,45.766142
267.0000,55.157381
268.0000,66.587894
269.0000,67.489390
270.0000,78.092878
271.0000,81.891687
272.0000,106.210566
273.0000,103.142656
274.0000,140.717984
275.0000,153.012319
276.0000,186.642992
277.0000,206.839070
278.0000,247.235957
279.0000,279.019351
280.0000,296.680122
281.0000,323.332071
282.0000,334.618739
283.0000,323.280790
284.0000,313.448096
285.0000,274.262609
286.0000,246.278428
287.0000,209.603013
288.0000,175.915438
289.0000,168.522744
290.0000,132.649942
291.0000,108.732493
292.0000,94.974270
293.0000,88.387473
294.0000,74.760319
295.0000,67.470576
296.0000,55.781223
297.0000,54.866535
298.0000,50.950054
299.0000,38.559811
300.0000,44.411802
301.0000,30.972000
302.0000,33.673469
303.0000,38.224972
304.0000,36.348822
305.0000,23.845554
306.0000,30.773484
307.0000,14.729107
308.0000,21.202751
309.0000,23.434440
310.0000,7.569558
311.0000,17.265846
312.0000,17.314624
313.0000,7.121920
314.0000,15.873570
315.0000,13.139848
316.0000,19.553896
317.0000,12.576587
318.0000,18.712018
319.0000,11.560975
320.0000,0.649624
321.0000,5.324816
322.0000,3.442234
323.0000,-3.712054
324.0000,-4.831491
325.0000,5.717678
326.0000,6.046483
327.0000,15.579417
328.0000,6.737463
329.0000,4.120808
330.0000,7.344304
331.0000,0.272377
332.0000,-3.473007
333.0000,7.931251
334.0000,15.683662
335.0000,-3.076803
336.0000,2.220008
337.0000,-5.377660
338.0000,2.589069
339.0000,7.831809
340.0000,3.592057
341.0000,13.021101
342.0000,2.014354
343.0000,5.981674
344.0000,-5.326522
345.0000,4.415133
346.0000,14.183759
347.0000,-2.644271
348.0000,6.455991
349.0000,-0.103623
350.0000,-2.690252
351.0000,4.591652
352.0000,-4.478477
353.0000,7.125554
354.0000,8.887925
355.0000,-4.636771
356.0000,6.939711
357.0000,0.827968
358.0000,-3.433884
359.0000,2.917578
360.0000,2.125406
361.0000,-0.710402
362.0000,5.020140
363.0000,-2.344145
364.0000,4.316167
365.0000,0.766756
366.0000,-0.849601
367.0000,4.430678
368.0000,7.706927
369.0000,5.286161
370.0000,-2.057926
371.0000,-5.811756
372.0000,8.697844
373.0000,-2.771400
374.0000,11.276294
375.0000,10.589420
376.0000,-8.725648
377.0000,-8.898613
378.0000,13.150425
379.0000,4.834046
380.0000,-5.555347
381.0000,11.290900
382.0000,-7.140270
383.0000,-2.288522
384.0000,2.180567
385.0000,-0.767556
386.0000,5.588057
387.0000,-10.030727
388.0000,-10.226121
389.0000,10.697246
390.0000,7.238796
391.0000,-5.384079
392.0000,-1.211134
393.0000,-12.356973
394.0000,-0.140422
395.0000,-13.345935
396.0000,4.506430
397.0000,-0.984283
398.0000,2.187055
399.0000,-1.987349
400.0000,-3.437874
401.0000,2.531367
402.0000,2.105840
403.0000,-10.754682
404.0000,6.200127
405.0000,-3.678109
406.0000,1.411579
407.0000,4.450474
408.0000,-3.853286
409.0000,3.323853
410.0000,8.994127
411.0000,3.700956
412.0000,2.376259
413.0000,2.307543
414.0000,4.052916
415.0000,2.666979
416.0000,3.803465
417.0000,3.056790
418.0000,2.568344
419.0000,12.146797
420.0000,-2.056721
421.0000,4.607497
422.0000,1.549868
423.0000,0.310001
424.0000,3.246241
425.0000,-3.257187
426.0000,12.398961
427.0000,4.065593
428.0000,-0.607418
429.0000,-0.864184
430.0000,-16.133216
431.0000,0.473950
432.0000,6.815367
433.0000,-1.251054
434.0000,-2.950880
435.0000,-6.335456
436.0000,1.155057
437.0000,1.603606
438.0000,1.830475
439.0000,-1.340269
440.0000,6.585983
441.0000,-17.848092
442.0000,3.750339
443.0000,-4.478931
444.0000,2.123694
445.0000,-4.692312
446.0000,-1.065154
447.0000,-2.025850
448.0000,6.720012
449.0000,-5.909364
450.0000,4.929506
451.0000,2.445868
452.0000,-2.566897
453.0000,6.727130
454.0000,6.012171
455.0000,13.756085
456.0000,8.507970
457.0000,-4.317015
458.0000,-6.015360
459.0000,7.870075
460.0000,1.751527
461.0000,6.159885
462.0000,1.862575
463.0000,-3.826539
464.0000,-3.440470
465.0000,2.798302
466.0000,-4.084500
467.0000,5.494467
468.0000,-0.937103
469.0000,-6.672029
470.0000,-0.109421
471.0000,2.801999
472.0000,6.704011
473.0000,-5.803340
474.0000,1.723198
475.0000,2.078019
476.0000,2.161543
477.0000,-1.499188
478.0000,-4.946086
479.0000,-12.219935
480.0000,8.421913
481.0000,-4.206406
482.0000,-1.963605
483.0000,-14.914078
484.0000,3.671316
485.0000,4.592694
486.0000,-5.200854
487.0000,1.827004
488.0000,-0.128475
489.0000,-6.994292
490.0000,-14.847327
491.0000,5.419142
492.0000,-14.509387
493.0000,9.814513
494.0000,7.328256
495.0000,8.296724
496.0000,1.559513
497.0000,-2.515916
498.0000,-5.650596
499.0000,1.730951
500.0000,-2.090868
501.0000,7.653393
502.0000,-4.257472
503.0000,-1.957557
504.0000,0.507337
505.0000,-2.871574
506.0000,-2.133047
507.0000,9.850912
508.0000,10.480675
509.0000,0.183019
510.0000,-3.069392
511.0000,2.726882
512.0000,-0.354369
513.0000,-0.404999
514.0000,1.701109
515.0000,-2.234568
516.0000,-5.789349
517.0000,-2.883343
518.0000,1.158395
519.0000,1.714281
520.0000,1.001943
521.0000,-1.515181
522.0000,-0.556324
523.0000,-7.765741
524.0000,-6.413251
525.0000,-1.153638
526.0000,2.129972
527.0000,2.943928
528.0000,-5.864849
529.0000,-4.019464
530.0000,-8.088407
531.0000,-4.643087
532.0000,4.591438
533.0000,-10.757266
534.0000,3.145259
535.0000,-3.348953
536.0000,-4.624416
537.0000,-1.886554
538.0000,10.402444
539.0000,-9.081525
540.0000,0.063237
541.0000,-3.753397
542.0000,-4.021200
543.0000,-11.815518
544.0000,-5.045531
545.0000,-2.622864
546.0000,5.654105
547.0000,5.090714
548.0000,-2.964292
549.0000,-5.825506
550.0000,10.725402
551.0000,3.855323
552.0000,3.025199
553.0000,-8.767571
554.0000,-7.634517
555.0000,4.293259
556.0000,-1.485615
557.0000,2.807851
558.0000,-8.920078
559.0000,3.534364
560.0000,-4.350385
561.0000,5.102855
562.0000,-1.368172
563.0000,-13.366138
564.0000,-4.855250
565.0000,-2.661987
566.0000,-9.623924
567.0000,0.960663
568.0000,9.057379
569.0000,1.596043
570.0000,-4.606802
571.0000,4.640041
572.0000,12.481187
573.0000,9.225326
574.0000,2.830234
575.0000,2.541124
576.0000,7.485411
577.0000,-3.542767
578.0000,9.237283
579.0000,0.938317
580.0000,-5.155403
581.0000,9.501020
582.0000,-0.325955
583.0000,2.673453
584.0000,1.327436
585.0000,-5.810758
586.0000,-3.810999
587.0000,9.395292
588.0000,-16.155927
589.0000,0.475710
590.0000,4.120614
591.0000,7.473366
592.0000,-14.179904
593.0000,-1.965438
594.0000,9.197119
595.0000,10.363027
596.0000,6.394209
597.0000,-3.322925
598.0000,5.259019
599.0000,9.699238
600.0000,7.187370
601.0000,0.845625
602.0000,-3.670304
603.0000,-5.035598
604.0000,2.734764
605.0000,6.593724
606.0000,1.723287
607.0000,-7.311890
608.0000,-5.765900
609.0000,-6.820214
610.0000,9.678111
611.0000,1.366271
612.0000,2.485203
613.0000,6.789801
614.0000,5.690281
615.0000,5.000224
616.0000,1.880204
617.0000,-8.396301
618.0000,-6.247367
619.0000,4.254978
620.0000,4.405283
621.0000,-9.579497
622.0000,-2.902544
623.0000,-4.903413
624.0000,4.071176
625.0000,5.460743
626.0000,-10.128464
627.0000,-1.043094
628.0000,5.975037
629.0000,-6.815997
630.0000,-6.274768
631.0000,6.898740
632.0000,-2.118280
633.0000,0.474260
634.0000,3.336513
635.0000,5.744759
636.0000,3.086963
637.0000,-2.249405
638.0000,3.236830
639.0000,-7.370356
640.0000,6.336842
641.0000,-3.763171
642.0000,8.866465
643.0000,5.642682
644.0000,-3.762545
645.0000,4.122598
646.0000,-0.631105
647.0000,5.767688
648.0000,-2.451054
649.0000,4.307798
650.0000,-5.924093
651.0000,6.129723
652.0000,7.619933
653.0000,0.374770
654.0000,9.568763
655.0000,4.953630
656.0000,-8.166124
657.0000,-3.021516
658.0000,0.074068
659.0000,0.149378
660.0000,-0.202164
661.0000,-1.578970
662.0000,-1.860278
663.0000,1.500253
664.0000,-2.622863
665.0000,6.690718
666.0000,4.697501
667.0000,-2.166678
668.0000,-1.168717
669.0000,-5.007615
670.0000,14.775047
671.0000,2.086775
672.0000,-4.373470
673.0000,6.081711
674.0000,8.491292
675.0000,-2.968365
676.0000,3.201396
677.0000,18.119637
678.0000,13.451012
679.0000,4.246342
680.0000,3.787775
681.0000,0.223964
682.0000,7.501912
683.0000,6.349015
684.0000,1.468696
685.0000,8.441641
686.0000,14.351028
687.0000,5.065076
688.0000,16.545056
689.0000,13.967953
690.0000,14.720672
691.0000,7.567749
692.0000,-4.870656
693.0000,4.763966
694.0000,18.064677
695.0000,18.956764
696.0000,21.159603
697.0000,18.212327
698.0000,6.518625
699.0000,17.292016
700.0000,17.590099
701.0000,10.464013
702.0000,32.623802
703.0000,28.772659
704.0000,46.740553
705.0000,46.156420
706.0000,67.072427
707.0000,78.853990
708.0000,113.939440
709.0000,145.404048
710.0000,170.292504
711.0000,210.008871
712.0000,214.532259
713.0000,216.082918
714.0000,191.042388
715.0000,131.919165
716.0000,120.651980
717.0000,88.692131
718.0000,62.991462
719.0000,65.199807
720.0000,47.553899
721.0000,34.334693
722.0000,32.470923
723.0000,37.365777
724.0000,21.439212
725.0000,23.289289
726.0000,9.808147
727.0000,18.909874
728.0000,0.461418
729.0000,25.532386
730.0000,10.952061
731.0000,15.300877
732.0000,7.214092
733.0000,11.163472
734.0000,12.885620
735.0000,12.578627
736.0000,3.530217
737.0000,16.699129
738.0000,2.284676
739.0000,-3.613684
740.0000,6.756016
741.0000,-2.726446
742.0000,8.666645
743.0000,1.311059
744.0000,7.078803
745.0000,11.348777
746.0000,8.208445
747.0000,10.349705
748.0000,11.294333
749.0000,9.111929
750.0000,-2.849256
751.0000,0.900045
752.0000,5.016328
753.0000,10.610266
754.0000,-0.822617
755.0000,5.432502
756.0000,-4.586134
757.0000,0.693764
758.0000,1.511699
759.0000,-6.485359
760.0000,-0.992555
761.0000,-2.644025
762.0000,-13.382851
763.0000,-12.355405
764.0000,10.547953
765.0000,5.004310
766.0000,17.225929
767.0000,-2.957795
768.0000,9.678353
769.0000,3.748501
770.0000,0.461249
771.0000,5.835622
772.0000,-1.730357
773.0000,2.886992
774.0000,-0.249342
775.0000,-3.794229
776.0000,-4.870266
777.0000,8.942451
778.0000,5.983698
779.0000,6.398913
780.0000,-1.494134
781.0000,-10.383414
782.0000,-16.460272
783.0000,-0.711464
784.0000,13.151963
785.0000,14.867778
786.0000,-8.614468
787.0000,-2.277619
788.0000,14.711797
789.0000,-1.298026
790.0000,-1.724100
791.0000,6.463930
792.0000,6.964952
793.0000,11.826685
794.0000,10.553539
795.0000,11.801690
796.0000,-0.153904
797.0000,1.431345
798.0000,-7.304783
799.0000,4.018666
800.0000,-6.929532
801.0000,15.064479
802.0000,3.129793
803.0000,-2.670682
804.0000,-6.839290
805.0000,2.053086
806.0000,-1.137077
807.0000,3.743236
808.0000,1.065400
809.0000,-0.813043
810.0000,-1.291688
811.0000,8.319559
812.0000,5.058391
813.0000,-1.999687
814.0000,-5.888834
815.0000,1.883975
816.0000,-1.546527
817.0000,1.379635
818.0000,9.125511
819.0000,-6.197835
820.0000,-4.446914
821.0000,-5.478714
822.0000,-5.132987
823.0000,-13.395387
824.0000,3.102740
825.0000,-6.436278
826.0000,-6.217301
827.0000,-3.562950
828.0000,-5.014868
829.0000,0.937969
830.0000,-0.012047
831.0000,6.795241
832.0000,9.031209
833.0000,0.104668
834.0000,1.741754
835.0000,3.802971
836.0000,-5.129408
837.0000,-3.191626
838.0000,-0.843480
839.0000,-1.285384
840.0000,3.259277
841.0000,7.768914
842.0000,-3.702457
843.0000,-0.663815
844.0000,8.960952
845.0000,-0.939617
846.0000,5.805976
847.0000,-2.973594
848.0000,5.693278
849.0000,0.467656
850.0000,-3.011330
851.0000,3.824700
852.0000,0.592375
853.0000,2.581110
854.0000,-1.700179
855.0000,-5.842134
856.0000,-1.798304
857.0000,0.186521
858.0000,6.238405
859.0000,6.272621
860.0000,3.163078
861.0000,3.760189
862.0000,-9.424913
863.0000,3.317122
864.0000,5.662661
865.0000,3.172258
866.0000,-1.581699
867.0000,-11.027226
868.0000,0.258698
869.0000,-3.323415
870.0000,-1.958304
871.0000,-5.725402
872.0000,2.486655
873.0000,0.261218
874.0000,-2.113600
875.0000,-1.654246
876.0000,4.078348
877.0000,3.560112
878.0000,-0.654795
879.0000,-5.825151
880.0000,-4.868697
881.0000,1.866434
882.0000,-5.730569
883.0000,-5.319646
884.0000,-1.864684
885.0000,-10.803544
886.0000,-0.012237
887.0000,2.874305
888.0000,-4.277820
889.0000,-6.218336
890.0000,6.741313
891.0000,6.087452
892.0000,3.303300
893.0000,-3.227186
894.0000,-11.275169
895.0000,-10.802004
896.0000,-8.316518
897.0000,0.787305
898.0000,-2.800331
899.0000,7.171298
900.0000,10.454837
901.0000,8.975470
902.0000,8.986828
903.0000,16.432067
904.0000,-3.134025
905.0000,6.717306
906.0000,-4.795515
907.0000,8.945348
908.0000,-1.706034
909.0000,0.230250
910.0000,-8.487355
911.0000,-8.127450
912.0000,-4.240467
913.0000,3.754304
914.0000,-4.462586
915.0000,-1.577949
916.0000,-3.724935
917.0000,0.963851
918.0000,-0.015212
919.0000,4.111689
920.0000,-2.176004
921.0000,6.794224
922.0000,-0.267825
923.0000,0.109026
924.0000,-16.320114
925.0000,-8.903986
926.0000,-1.863116
927.0000,4.241835
928.0000,8.339561
929.0000,12.062217
930.0000,1.760784
931.0000,-3.641211
932.0000,-9.119114
933.0000,-9.844845
934.0000,-7.795703
935.0000,0.840407
936.0000,-2.370906
937.0000,5.458020
938.0000,-2.336169
939.0000,-1.343232
940.0000,6.499067
941.0000,5.506583
942.0000,-10.360064
943.0000,-0.072868
944.0000,-2.690518
945.0000,6.451886
946.0000,1.327651
947.0000,-15.393278
948.0000,4.427333
949.0000,-6.284336
950.0000,4.764697
951.0000,-4.191170
952.0000,-4.556306
953.0000,-9.867461
954.0000,0.699936
955.0000,15.174590
956.0000,-1.150063
957.0000,-5.819668
958.0000,-11.194121
959.0000,2.230923
960.0000,4.783012
961.0000,-4.715220
962.0000,-11.938622
963.0000,5.233527
964.0000,-8.649397
965.0000,-9.089013
966.0000,2.817417
967.0000,-6.063212
968.0000,-2.738672
969.0000,-4.307852
970.0000,0.567686
971.0000,2.831898
972.0000,6.016932
973.0000,9.573241
974.0000,-4.559685
975.0000,3.665177
976.0000,-2.701026
977.0000,1.112267
978.0000,0.209723
979.0000,10.895235
980.0000,-1.162061
981.0000,10.500196
982.0000,-6.569833
983.0000,13.007637
984.0000,6.254103
985.0000,2.795922
986.0000,-0.582709
987.0000,3.444248
988.0000,-2.905630
989.0000,-1.345443
990.0000,12.787235
991.0000,1.934621
992.0000,-0.785502
993.0000,14.897904
994.0000,-3.347042
995.0000,2.495688
996.0000,0.011138
997.0000,6.278544
998.0000,6.603112
999.0000,-0.165691
1000.0000,3.691437
1001.0000,6.147425
1002.0000,-1.454236
1003.0000,-2.090746
1004.0000,7.873844
1005.0000,14.599973
1006.0000,3.879550
1007.0000,4.304933
1008.0000,8.368046
1009.0000,-2.784100
1010.0000,0.811183
1011.0000,4.902722
1012.0000,5.442087
1013.0000,-3.051507
1014.0000,2.433364
1015.0000,3.423954
1016.0000,6.919273
1017.0000,-2.181415
1018.0000,10.071981
1019.0000,7.537635
1020.0000,5.917201
1021.0000,11.927468
1022.0000,3.760531
1023.0000,-1.805976
1024.0000,1.233139
1025.0000,12.128819
1026.0000,-6.620158
1027.0000,6.981230
1028.0000,3.236574
1029.0000,14.020343
1030.0000,4.238271
1031.0000,10.891948
1032.0000,5.334677
1033.0000,5.244723
1034.0000,8.958841
1035.0000,-1.566909
1036.0000,10.807588
1037.0000,15.663347
1038.0000,7.556528
1039.0000,7.945865
1040.0000,14.402521
1041.0000,10.026407
1042.0000,2.062889
1043.0000,11.155992
1044.0000,11.394771
1045.0000,8.244753
1046.0000,8.617325
1047.0000,0.026291
1048.0000,3.476713
1049.0000,0.741525
1050.0000,9.460541
1051.0000,17.027600
1052.0000,0.863753
1053.0000,20.536266
1054.0000,11.289822
1055.0000,14.729296
1056.0000,11.209813
1057.0000,8.170661
1058.0000,17.916557
1059.0000,27.873044
1060.0000,3.219143
1061.0000,20.064501
1062.0000,29.323184
1063.0000,21.170433
1064.0000,25.140550
1065.0000,13.457494
1066.0000,27.847287
1067.0000,32.907881
1068.0000,29.210010
1069.0000,43.133825
1070.0000,45.371113
1071.0000,42.438313
1072.0000,51.727003
1073.0000,65.869972
1074.0000,83.611281
1075.0000,82.212937
1076.0000,114.633135
1077.0000,126.287014
1078.0000,164.399855
1079.0000,196.186983
1080.0000,250.317979
1081.0000,326.102666
1082.0000,429.695551
1083.0000,581.184431
1084.0000,733.844375
1085.0000,924.459145
1086.0000,1008.113152
1087.0000,923.504372
1088.0000,742.380965
1089.0000,578.621725
1090.0000,419.908959
1091.0000,317.484204
1092.0000,247.282484
1093.0000,197.609012
1094.0000,160.550480
1095.0000,122.268662
1096.0000,118.668016
1097.0000,87.537130
1098.0000,69.702839
1099.0000,66.541438
1100.0000,57.704615
1101.0000,59.591488
1102.0000,37.846035
1103.0000,48.623176
1104.0000,37.977220
1105.0000,32.887942
1106.0000,29.426540
1107.0000,31.750853
1108.0000,30.185678
1109.0000,21.819861
1110.0000,25.628347
1111.0000,30.455927
1112.0000,11.430365
1113.0000,13.081956
1114.0000,15.545138
1115.0000,24.465496
1116.0000,5.940586
1117.0000,12.956276
1118.0000,6.541558
1119.0000,16.339554
1120.0000,15.392090
1121.0000,4.435114
1122.0000,3.580322
1123.0000,7.999683
1124.0000,8.109272
1125.0000,19.130315
1126.0000,7.729087
1127.0000,4.057552
1128.0000,9.719030
1129.0000,3.849156
1130.0000,18.535493
1131.0000,7.843158
1132.0000,2.145004
1133.0000,2.342440
1134.0000,4.219180
1135.0000,-2.650602
1136.0000,3.621432
1137.0000,5.123840
1138.0000,-9.323329
1139.0000,3.190902
1140.0000,2.780425
1141.0000,7.442341
1142.0000,8.039963
1143.0000,16.727751
1144.0000,4.944591
1145.0000,4.451933
1146.0000,0.344516
1147.0000,-7.480772
1148.0000,3.738560
1149.0000,-0.870045
1150.0000,6.622299
1151.0000,-1.078921
1152.0000,-7.842259
1153.0000,0.929455
1154.0000,-1.337735
1155.0000,-0.951176
1156.0000,12.687161
1157.0000,2.417820
1158.0000,-0.120737
1159.0000,-6.354303
1160.0000,-2.332694
1161.0000,8.403789
1162.0000,-7.263615
1163.0000,-3.009195
1164.0000,7.964531
1165.0000,0.291505
1166.0000,6.856682
1167.0000,0.721795
1168.0000,-2.335668
1169.0000,5.405636
1170.0000,0.242417
1171.0000,-1.482019
1172.0000,0.648122
1173.0000,14.269147
1174.0000,-2.831272
1175.0000,-2.262823
1176.0000,3.409085
1177.0000,-4.910715
1178.0000,12.224338
1179.0000,0.021105
1180.0000,2.869370
1181.0000,-3.293612
1182.0000,9.990728
1183.0000,1.122885
1184.0000,0.322512
1185.0000,1.557574
1186.0000,12.887154
1187.0000,7.810238
1188.0000,-1.510233
1189.0000,4.154215
1190.0000,-3.988540
1191.0000,0.700856
1192.0000,3.769530
1193.0000,14.469985
1194.0000,9.982025
1195.0000,-2.879645
1196.0000,8.546511
1197.0000,0.952065
1198.0000,-10.071555
1199.0000,-2.752725
1200.0000,8.019222
1201.0000,0.619424
1202.0000,-4.022826
1203.0000,-3.314333
1204.0000,-15.589048
1205.0000,-1.247998
1206.0000,-12.228476
1207.0000,8.459500
1208.0000,-5.305166
1209.0000,-3.545118
1210.0000,1.530832
1211.0000,-5.984722
1212.0000,-0.134801
1213.0000,-8.527525
1214.0000,1.922664
1215.0000,2.992812
1216.0000,0.298995
1217.0000,7.590613
1218.0000,4.279396
1219.0000,3.128245
1220.0000,3.631138
1221.0000,0.661738
1222.0000,0.331673
1223.0000,5.991564
1224.0000,7.426386
1225.0000,0.848932
1226.0000,-6.620739
1227.0000,7.135943
1228.0000,0.677875
1229.0000,7.271257
1230.0000,-4.592161
1231.0000,1.198556
1232.0000,-1.141340
1233.0000,11.178644
1234.0000,7.534377
1235.0000,-3.556742
1236.0000,5.056214
1237.0000,-2.490694
1238.0000,-5.712172
1239.0000,2.330396
1240.0000,-7.308686
1241.0000,3.212998
1242.0000,6.852056
1243.0000,-4.626686
1244.0000,-14.789573
1245.0000,2.389336
1246.0000,-2.790747
1247.0000,-11.936680
1248.0000,-4.096737
1249.0000,13.898020
1250.0000,-6.952585
1251.0000,-15.621372
1252.0000,-1.885280
1253.0000,5.327690
1254.0000,4.674449
1255.0000,11.889580
1256.0000,-11.482814
1257.0000,-11.786335
1258.0000,0.723563
1259.0000,4.928965
1260.0000,-4.434166
1261.0000,15.947537
1262.0000,1.015512
1263.0000,6.433821
1264.0000,-4.886503
1265.0000,0.789845
1266.0000,1.901166
1267.0000,-4.623724
1268.0000,6.058214
1269.0000,7.909693
1270.0000,-1.966686
1271.0000,2.222212
1272.0000,-2.221445
1273.0000,10.616819
1274.0000,4.319428
1275.0000,-2.388601
1276.0000,-7.290181
1277.0000,-6.359128
1278.0000,9.101544
1279.0000,12.336421
1280.0000,1.896663
1281.0000,1.844067
1282.0000,-13.495956
1283.0000,7.059763
1284.0000,-4.149642
1285.0000,-1.413995
1286.0000,-5.080084
1287.0000,3.259847
1288.0000,-5.943675
1289.0000,2.119123
1290.0000,-11.427928
1291.0000,-4.614620
1292.0000,11.434849
1293.0000,-4.343557
1294.0000,7.788257
1295.0000,0.645677
1296.0000,14.540767
1297.0000,-3.779383
1298.0000,-2.315706
1299.0000,3.048696
1300.0000,-1.633862
1301.0000,-0.453610
1302.0000,-4.431969
1303.0000,1.296067
1304.0000,11.834547
1305.0000,4.697170
1306.0000,2.680986
1307.0000,-4.758407
1308.0000,-1.352373
1309.0000,-4.949282
1310.0000,1.309851
1311.0000,14.166520
1312.0000,-5.614646
1313.0000,-2.649623
1314.0000,-1.912326
1315.0000,-7.568006
1316.0000,-1.695832
1317.0000,-3.712517
1318.0000,6.646739
1319.0000,7.048874
1320.0000,7.122940
1321.0000,6.848375
1322.0000,-3.946741
1323.0000,0.647381
1324.0000,5.630906
1325.0000,3.860244
1326.0000,-0.941873
1327.0000,0.864310
1328.0000,14.500244
1329.0000,4.283106
1330.0000,-7.148424
1331.0000,3.388217
1332.0000,1.465412
1333.0000,-1.747274
1334.0000,10.844480
1335.0000,1.838782
1336.0000,-5.910362
1337.0000,-3.490118
1338.0000,-9.351083
1339.0000,-3.213673
1340.0000,-0.166259
1341.0000,2.872859
1342.0000,8.997702
1343.0000,-0.119372
1344.0000,-2.498372
1345.0000,-2.343176
1346.0000,6.081024
1347.0000,6.804852
1348.0000,1.233362
1349.0000,7.539628
1350.0000,0.005050
1351.0000,10.275861
1352.0000,-6.496984
1353.0000,4.715478
1354.0000,6.172931
1355.0000,5.840318
1356.0000,2.731819
1357.0000,-2.282328
1358.0000,9.184099
1359.0000,3.344804
1360.0000,1.102091
1361.0000,-4.297363
1362.0000,-0.394511
1363.0000,-9.319101
1364.0000,2.571738
1365.0000,-0.442003
1366.0000,3.842381
1367.0000,6.430193
1368.0000,0.945055
1369.0000,4.909735
1370.0000,-1.359001
1371.0000,6.081866
1372.0000,11.971188
1373.0000,2.120601
1374.0000,-2.494830
1375.0000,2.813550
1376.0000,-2.470702
1377.0000,5.161638
1378.0000,9.095077
1379.0000,-2.644610
1380.0000,4.591895
1381.0000,-5.015927
1382.0000,11.477398
1383.0000,3.226754
1384.0000,-0.079235
1385.0000,6.243169
1386.0000,11.039088
1387.0000,1.682337
1388.0000,4.345411
1389.0000,11.471795
1390.0000,-2.641829
1391.0000,2.009408
1392.0000,4.597897
1393.0000,4.440238
1394.0000,-1.930099
1395.0000,-1.553747
1396.0000,-2.792443
1397.0000,5.217971
1398.0000,7.533878
1399.0000,13.021812
1400.0000,1.418401
1401.0000,-0.070966
1402.0000,18.451251
1403.0000,3.492332
1404.0000,-4.323762
1405.0000,8.719602
1406.0000,12.300312
1407.0000,11.263657
1408.0000,6.455990
1409.0000,9.126606
1410.0000,5.803181
1411.0000,11.514529
1412.0000,18.204615
1413.0000,17.755584
1414.0000,12.460769
1415.0000,28.429057
1416.0000,0.201148
1417.0000,19.619187
1418.0000,19.750808
1419.0000,25.766553
1420.0000,30.566168
1421.0000,27.772521
1422.0000,27.698246
1423.0000,15.333893
1424.0000,32.608725
1425.0000,42.732130
1426.0000,37.411552
1427.0000,33.508877
1428.0000,50.524972
1429.0000,65.404634
1430.0000,63.113432
1431.0000,63.527080
1432.0000,72.445793
1433.0000,69.111719
1434.0000,66.525274
1435.0000,83.081911
1436.0000,83.082260
1437.0000,68.390166
1438.0000,80.294371
1439.0000,78.242285
1440.0000,65.011271
1441.0000,59.374112
1442.0000,52.299129
1443.0000,57.575090
1444.0000,47.980928
1445.0000,44.743565
1446.0000,43.824576
1447.0000,46.792547
1448.0000,40.053934
1449.0000,44.478831
1450.0000,29.221505
1451.0000,26.420912
1452.0000,28.973356
1453.0000,19.052348
1454.0000,20.993271
1455.0000,13.284577
1456.0000,11.584650
1457.0000,9.946273
1458.0000,14.180379
1459.0000,10.693962
1460.0000,20.814650
1461.0000,7.622429
1462.0000,6.761970
1463.0000,4.259167
1464.0000,13.105916
1465.0000,1.747748
1466.0000,2.381287
1467.0000,15.684905
1468.0000,13.099860
1469.0000,9.128131
1470.0000,14.179058
1471.0000,14.932899
1472.0000,14.547472
1473.0000,6.143549
1474.0000,10.816960
1475.0000,-0.831781
1476.0000,13.354715
1477.0000,9.478575
1478.0000,12.415543
1479.0000,3.941986
1480.0000,-2.784814
1481.0000,13.814224
1482.0000,0.648670
1483.0000,5.223486
1484.0000,4.286391
1485.0000,1.104139
1486.0000,2.564723
1487.0000,5.951960
1488.0000,0.400498
1489.0000,0.641960
1490.0000,-2.473584
1491.0000,-3.212822
1492.0000,9.580639
1493.0000,16.591023
1494.0000,-0.702380
1495.0000,9.368021
1496.0000,13.662953
1497.0000,13.893762
1498.0000,7.333946
1499.0000,-3.157184
1500.0000,2.764617
1501.0000,0.818126
1502.0000,-4.498659
1503.0000,-1.413326
1504.0000,-5.129835
1505.0000,-6.060794
1506.0000,-6.344972
1507.0000,-3.138677
1508.0000,5.506604
1509.0000,-4.594605
1510.0000,1.817443
1511.0000,-0.424030
1512.0000,1.365093
1513.0000,-10.798726
1514.0000,12.744349
1515.0000,-2.457703
1516.0000,6.555507
1517.0000,2.268011
1518.0000,-1.000694
1519.0000,-2.853441
1520.0000,-0.484642
1521.0000,-2.570150
1522.0000,1.103638
1523.0000,2.710885
1524.0000,-2.879431
1525.0000,14.903046
1526.0000,10.608688
1527.0000,13.087334
1528.0000,-0.923034
1529.0000,-5.082462
1530.0000,3.926410
1531.0000,8.440163
1532.0000,-9.270779
1533.0000,-1.924036
1534.0000,21.092711
1535.0000,5.029926
1536.0000,-2.492386
1537.0000,12.253520
1538.0000,-3.840261
1539.0000,-10.128844
1540.0000,-1.341113
1541.0000,-6.583190
1542.0000,-4.281000
1543.0000,0.097917
1544.0000,5.618612
1545.0000,7.626271
1546.0000,11.627214
1547.0000,1.679018
1548.0000,3.579690
1549.0000,-6.613553
1550.0000,2.512566
1551.0000,3.049240
1552.0000,-4.395603
1553.0000,2.596569
1554.0000,12.870607
1555.0000,-5.804877
1556.0000,3.192845
1557.0000,10.322749
1558.0000,-4.068636
1559.0000,2.916390
1560.0000,-3.308277
1561.0000,5.392987
1562.0000,3.909463
1563.0000,-1.730379
1564.0000,5.837051
1565.0000,-1.764292
1566.0000,-14.591940
1567.0000,10.662569
1568.0000,-14.832332
1569.0000,4.894931
1570.0000,11.489642
1571.0000,1.595264
1572.0000,3.063419
1573.0000,0.880036
1574.0000,-0.860646
1575.0000,-0.998167
1576.0000,2.898264
1577.0000,4.103521
1578.0000,10.549656
1579.0000,-2.993814
1580.0000,0.935401
1581.0000,10.837631
1582.0000,8.567084
1583.0000,-2.502059
1584.0000,5.433879
1585.0000,9.235004
1586.0000,-7.636173
1587.0000,8.335011
1588.0000,5.051854
1589.0000,-6.799131
1590.0000,-0.276507
1591.0000,-5.310731
1592.0000,-5.600743
1593.0000,9.932925
1594.0000,3.998118
1595.0000,-2.366124
1596.0000,-3.472143
1597.0000,-4.695538
1598.0000,3.807692
1599.0000,-1.232221
1600.0000,8.933825
1601.0000,-13.714227
1602.0000,-1.789758
1603.0000,2.838506
1604.0000,-5.820111
1605.0000,-2.004503
1606.0000,-5.507862
1607.0000,-14.057178
1608.0000,6.531391
1609.0000,6.779336
1610.0000,-0.254838
1611.0000,-2.156704
1612.0000,1.510886
1613.0000,-3.431009
1614.0000,1.777374
1615.0000,-5.651951
1616.0000,5.626592
1617.0000,14.730499
1618.0000,-0.057047
1619.0000,4.923727
1620.0000,-7.005610
1621.0000,-2.869325
1622.0000,12.517792
1623.0000,2.975364
1624.0000,-5.623479
1625.0000,3.881698
1626.0000,-6.336046
1627.0000,6.434722
1628.0000,3.675943
1629.0000,7.599030
1630.0000,6.935808
1631.0000,-5.741564
1632.0000,11.218929
1633.0000,0.100215
1634.0000,-8.582949
1635.0000,-9.234150
1636.0000,6.041556
1637.0000,-5.914360
1638.0000,4.869273
1639.0000,-9.970565
1640.0000,-0.588573
1641.0000,2.745949
1642.0000,6.123158
1643.0000,1.909243
1644.0000,-1.249151
1645.0000,7.713483
1646.0000,1.504073
1647.0000,8.851253
1648.0000,-0.135457
1649.0000,10.835433
1650.0000,-1.654612
1651.0000,11.711501
1652.0000,5.610903
1653.0000,-9.116524
1654.0000,-7.489741
1655.0000,1.124748
1656.0000,1.005865
1657.0000,17.160793
1658.0000,-0.423127
1659.0000,-4.530926
1660.0000,0.385746
1661.0000,7.249898
1662.0000,0.735241
1663.0000,-7.405023
1664.0000,-4.508608
1665.0000,2.183403
1666.0000,-7.397618
1667.0000,0.330788
1668.0000,5.817940
1669.0000,-10.006223
1670.0000,6.238200
1671.0000,-4.760267
1672.0000,5.886964
1673.0000,8.527256
1674.0000,12.460257
1675.0000,-1.396673
1676.0000,-1.718732
1677.0000,-3.659967
1678.0000,2.335233
1679.0000,-1.002497
1680.0000,-0.236313
1681.0000,5.842492
1682.0000,4.430834
1683.0000,6.377197
1684.0000,-7.263757
1685.0000,4.623211
1686.0000,-16.298551
1687.0000,-0.161628
1688.0000,-6.048013
1689.0000,10.907096
1690.0000,-8.421973
1691.0000,7.356790
1692.0000,4.865257
1693.0000,-2.637317
1694.0000,6.350406
1695.0000,8.027815
1696.0000,3.018728
1697.0000,-5.866639
1698.0000,-4.108170
1699.0000,-0.455698
1700.0000,-1.085141
1701.0000,7.029375
1702.0000,6.576464
1703.0000,-4.352615
1704.0000,1.758531
1705.0000,-3.736041
1706.0000,-4.185806
1707.0000,-5.315799
1708.0000,3.570113
1709.0000,2.144361
1710.0000,9.371484
1711.0000,8.288951
1712.0000,-1.065889
1713.0000,-1.687976
1714.0000,5.394963
1715.0000,-6.215153
1716.0000,-8.654047
1717.0000,-0.180375
1718.0000,-1.571479
1719.0000,2.825874
1720.0000,11.524304
1721.0000,4.018986
1722.0000,-4.497985
1723.0000,-1.768773
1724.0000,-15.565184
1725.0000,-3.415461
1726.0000,-1.180312
1727.0000,9.483825
1728.0000,-5.667862
1729.0000,5.600682
1730.0000,3.770140
1731.0000,-4.300218
1732.0000,-2.129187
1733.0000,4.295347
1734.0000,-11.465551
1735.0000,-0.182785
1736.0000,0.389464
1737.0000,-1.954633
1738.0000,5.206575
1739.0000,-2.458439
1740.0000,-9.516456
1741.0000,3.009750
1742.0000,0.381348
1743.0000,-4.830148
1744.0000,5.358866
1745.0000,6.309820
1746.0000,-4.338828
1747.0000,4.109100
1748.0000,-7.678745
1749.0000,-7.353592
1750.0000,7.263352
1751.0000,-2.888556
1752.0000,-0.783102
1753.0000,-1.360927
1754.0000,10.189496
1755.0000,2.181859
1756.0000,4.779044
1757.0000,10.217742
1758.0000,-0.369810
1759.0000,-8.532765
1760.0000,-14.863769
1761.0000,-0.883706
1762.0000,-2.763996
1763.0000,-1.143861
1764.0000,-10.068453
1765.0000,-0.014123
1766.0000,2.736029
1767.0000,-0.536723
1768.0000,-2.152890
1769.0000,-0.051929
1770.0000,-6.421058
1771.0000,-6.595347
1772.0000,-11.194835
1773.0000,6.848290
1774.0000,-7.672244
1775.0000,3.867221
1776.0000,12.471683
1777.0000,9.059029
1778.0000,3.907361
1779.0000,-8.211390
1780.0000,-2.798551
1781.0000,-9.677925
1782.0000,-0.488356
1783.0000,-10.543168
1784.0000,-2.197401
1785.0000,4.168191
1786.0000,-3.909974
1787.0000,7.730821
1788.0000,25.181835
1789.0000,4.154175
1790.0000,5.972277
1791.0000,-2.516806
1792.0000,-2.585065
1793.0000,6.708108
1794.0000,8.578879
1795.0000,-13.139344
1796.0000,3.906259
1797.0000,-1.158781
1798.0000,4.283703
1799.0000,7.103728
1800.0000,9.135848
1801.0000,1.578087
1802.0000,-14.688370
1803.0000,-4.833148
1804.0000,-2.824563
1805.0000,0.170392
1806.0000,-5.906398
1807.0000,-6.373168
1808.0000,-2.606970
1809.0000,1.680071
1810.0000,1.941932
1811.0000,-4.651068
1812.0000,1.137434
1813.0000,-5.595973
1814.0000,-3.763201
1815.0000,-5.723866
1816.0000,2.215524
1817.0000,10.154208
1818.0000,-9.496748
1819.0000,5.125751
1820.0000,-0.763797
1821.0000,6.505563
1822.0000,-6.800702
1823.0000,-2.779685
1824.0000,7.548367
1825.0000,-7.632882
1826.0000,-5.837815
1827.0000,2.074782
1828.0000,6.518271
1829.0000,4.275850
1830.0000,-0.426997
1831.0000,4.192133
1832.0000,1.082331
1833.0000,10.147867
1834.0000,-15.162961
1835.0000,-2.568345
1836.0000,-5.112667
1837.0000,9.395718
1838.0000,5.511836
1839.0000,12.498600
1840.0000,-4.277856
1841.0000,2.495021
1842.0000,2.156796
1843.0000,-3.579126
1844.0000,0.447006
1845.0000,-7.664824
1846.0000,-3.503392
1847.0000,5.027846
1848.0000,-4.240438
1849.0000,-2.378107
1850.0000,-1.643783
1851.0000,4.048556
1852.0000,-8.592053
1853.0000,2.592221
1854.0000,4.858607
1855.0000,-1.141915
1856.0000,-0.906805
1857.0000,-10.147556
1858.0000,-11.358599
1859.0000,-1.159306
1860.0000,3.453935
1861.0000,0.941650
1862.0000,-3.615110
1863.0000,-3.923327
1864.0000,-0.924723
1865.0000,-14.835083
1866.0000,7.522536
1867.0000,-0.323872
1868.0000,-6.710900
1869.0000,-3.109563
1870.0000,-0.211913
1871.0000,-0.218825
1872.0000,3.440309
1873.0000,11.294591
1874.0000,-4.392304
1875.0000,-0.881189
1876.0000,-2.559725
1877.0000,2.711554
1878.0000,0.335661
1879.0000,5.082651
1880.0000,3.945500
1881.0000,-1.781595
1882.0000,1.479782
1883.0000,6.468627
1884.0000,8.931052
1885.0000,4.189925
1886.0000,-10.733185
1887.0000,-2.404992
1888.0000,5.549754
1889.0000,-6.700569
1890.0000,-3.914896
1891.0000,3.491471
1892.0000,-3.455811
1893.0000,7.835881
1894.0000,1.335395
1895.0000,-3.470898
1896.0000,0.648839
1897.0000,0.742201
1898.0000,0.437835
1899.0000,6.569293
1900.0000,-0.589981
1901.0000,-3.823947
1902.0000,-1.243185
1903.0000,18.262619
1904.0000,0.585166
1905.0000,-3.062307
1906.0000,3.301129
1907.0000,-2.027186
1908.0000,-7.231235
1909.0000,5.308084
1910.0000,2.938205
1911.0000,-1.159786
1912.0000,4.435095
1913.0000,10.984368
1914.0000,0.386047
1915.0000,5.257073
1916.0000,10.552014
1917.0000,3.882826
1918.0000,-9.714368
1919.0000,14.898726
1920.0000,0.625224
1921.0000,1.744962
1922.0000,-5.115952
1923.0000,2.603642
1924.0000,4.428363
1925.0000,2.828941
1926.0000,-6.213690
1927.0000,12.789061
1928.0000,-0.171704
1929.0000,-5.498884
1930.0000,0.251100
1931.0000,1.505445
1932.0000,-6.223877
1933.0000,5.657290
1934.0000,-4.521374
1935.0000,6.926551
1936.0000,4.401536
1937.0000,-5.251871
1938.0000,-1.965301
1939.0000,2.539202
1940.0000,-5.939157
1941.0000,3.081825
1942.0000,0.810002
1943.0000,-11.130655
1944.0000,3.033896
1945.0000,-5.417804
1946.0000,-4.983240
1947.0000,-7.207899
1948.0000,4.194706
1949.0000,-0.844588
1950.0000,-7.280180
1951.0000,10.286363
1952.0000,4.053673
1953.0000,3.077101
1954.0000,8.230000
1955.0000,-0.246909
1956.0000,0.868160
1957.0000,7.293892
1958.0000,8.024435
1959.0000,-11.275710
1960.0000,-2.978695
1961.0000,-5.252658
1962.0000,3.422938
1963.0000,0.035089
1964.0000,-0.297275
1965.0000,5.006287
1966.0000,-0.035355
1967.0000,5.059101
1968.0000,4.506470
1969.0000,-4.203867
1970.0000,-15.618921
1971.0000,-3.466660
1972.0000,-2.620382
1973.0000,-3.928006
1974.0000,-3.488621
1975.0000,-5.722511
1976.0000,4.749803
1977.0000,-9.279780
1978.0000,5.385424
1979.0000,2.009773
1980.0000,2.179855
1981.0000,-1.079098
1982.0000,-1.538287
1983.0000,-2.831136
1984.0000,-9.417212
1985.0000,1.055610
1986.0000,1.937961
1987.0000,-4.931917
1988.0000,-6.808744
1989.0000,-9.044888
1990.0000,9.170954
1991.0000,0.692696
1992.0000,14.483924
1993.0000,5.148347
1994.0000,10.102026
1995.0000,-5.185005
1996.0000,3.917439
1997.0000,1.883234
1998.0000,2.424729
1999.0000,5.583873
2000.0000,6.259675
