raman_shift_cm-1,intensity
200.0000,-0.576609
201.0000,-10.778695
202.0000,-1.040321
203.0000,-1.386245
204.0000,-14.317439
205.0000,7.686359
206.0000,-5.508048
207.0000,6.113926
208.0000,7.355535
209.0000,5.485744
210.0000,-3.658114
211.0000,-1.617230
212.0000,0.582464
213.0000,-3.588912
214.0000,5.855757
215.0000,-9.495938
216.0000,-10.288566
217.0000,-1.005697
218.0000,1.037445
219.0000,12.897781
220.0000,3.445863
221.0000,9.341566
222.0000,4.346449
223.0000,-1.293695
224.0000,-3.841430
225.0000,-7.360577
226.0000,-1.367231
227.0000,7.718896
228.0000,7.442697
229.0000,-11.019739
230.0000,-0.372697
231.0000,-9.120335
232.0000,1.671495
233.0000,5.652419
234.0000,-1.562381
235.0000,-2.320202
236.0000,8.029405
237.0000,1.692514
238.0000,2.417440
239.0000,-3.688588
240.0000,-0.689839
241.0000,-7.513077
242.0000,7.777336
243.0000,3.131326
244.0000,-9.196508
245.0000,14.154873
246.0000,7.463982
247.0000,9.467033
248.0000,-0.897268
249.0000,5.731992
250.0000,-4.847027
251.0000,8.675219
252.0000,-6.504921
253.0000,3.190549
254.0000,-2.826157
255.0000,10.743242
256.0000,-1.232242
257.0000,3.920161
258.0000,10.182444
259.0000,-7.948807
260.0000,-8.513275
261.0000,8.681214
262.0000,5.602622
263.0000,-1.985751
264.0000,3.127879
265.0000,1.744490
266.0000,7.151149
267.0000,8.844766
268.0000,-6.794243
269.0000,2.653580
270.0000,-3.850505
271.0000,0.812109
272.0000,13.524005
273.0000,5.925569
274.0000,-0.818324
275.0000,16.633224
276.0000,-5.596034
277.0000,5.974708
278.0000,2.062253
279.0000,2.368034
280.0000,-1.608156
281.0000,8.467285
282.0000,14.900400
283.0000,-1.319566
284.0000,2.623162
285.0000,0.037243
286.0000,-2.964448
287.0000,-3.481615
288.0000,-5.586346
289.0000,0.437201
290.0000,1.149502
291.0000,0.275766
292.0000,5.209426
293.0000,-9.672444
294.0000,-11.795268
295.0000,-3.466755
296.0000,-3.194779
297.0000,18.221621
298.0000,-8.505086
299.0000,2.673840
300.0000,-1.031348
301.0000,-5.744244
302.0000,-8.999995
303.0000,1.302525
304.0000,-1.771283
305.0000,5.698790
306.0000,1.080546
307.0000,6.469645
308.0000,-6.081035
309.0000,0.086947
310.0000,-1.595513
311.0000,3.379232
312.0000,-0.940577
313.0000,3.691957
314.0000,-4.656419
315.0000,-11.099748
316.0000,7.336762
317.0000,-3.162206
318.0000,-0.852590
319.0000,2.858078
320.0000,-0.186963
321.0000,3.458788
322.0000,1.322085
323.0000,-3.676180
324.0000,-9.388411
325.0000,0.870197
326.0000,5.019310
327.0000,1.178344
328.0000,13.252943
329.0000,-7.454681
330.0000,-3.787020
331.0000,-10.724873
332.0000,1.500524
333.0000,7.633071
334.0000,-0.400877
335.0000,-3.511996
336.0000,4.884612
337.0000,-0.126044
338.0000,10.178837
339.0000,-0.981953
340.0000,-10.248723
341.0000,-2.313228
342.0000,8.261967
343.0000,3.006970
344.0000,1.141012
345.0000,-5.826666
346.0000,-9.913737
347.0000,2.351789
348.0000,-2.037517
349.0000,6.428329
350.0000,-3.479840
351.0000,5.067922
352.0000,7.471368
353.0000,-5.910473
354.0000,5.656764
355.0000,-1.683528
356.0000,5.756344
357.0000,-5.056710
358.0000,-2.641687
359.0000,8.039361
360.0000,-6.577934
361.0000,11.610728
362.0000,0.269701
363.0000,-2.570843
364.0000,-11.451764
365.0000,-4.315113
366.0000,1.225956
367.0000,-2.203125
368.0000,-3.837999
369.0000,-6.826563
370.0000,0.105546
371.0000,1.707355
372.0000,-4.416472
373.0000,9.838929
374.0000,0.400616
375.0000,-1.352795
376.0000,-12.157764
377.0000,2.314329
378.0000,5.144202
379.0000,3.307989
380.0000,-0.214118
381.0000,-2.259659
382.0000,3.729563
383.0000,-0.844893
384.0000,4.939597
385.0000,-2.618219
386.0000,-8.554469
387.0000,9.186470
388.0000,5.773029
389.0000,18.745916
390.0000,-1.212850
391.0000,2.094913
392.0000,-1.202834
393.0000,2.510180
394.0000,-2.498321
395.0000,2.398612
396.0000,2.870937
397.0000,-3.423154
398.0000,-4.991256
399.0000,4.033782
400.0000,-3.356277
401.0000,-1.414746
402.0000,3.543244
403.0000,-14.553775
404.0000,-2.687398
405.0000,5.929988
406.0000,-5.658246
407.0000,-7.078567
408.0000,1.922841
409.0000,8.068588
410.0000,3.071777
411.0000,1.901979
412.0000,-4.586112
413.0000,3.717221
414.0000,9.154903
415.0000,6.304185
416.0000,-3.321355
417.0000,-0.092866
418.0000,6.157495
419.0000,5.056257
420.0000,-8.527771
421.0000,0.018269
422.0000,-10.673184
423.0000,0.162966
424.0000,-0.220786
425.0000,-5.080945
426.0000,-3.310049
427.0000,3.016603
428.0000,0.949553
429.0000,4.497693
430.0000,-8.719079
431.0000,2.169722
432.0000,-2.653569
433.0000,-1.210601
434.0000,-10.731928
435.0000,3.931775
436.0000,5.541827
437.0000,4.787795
438.0000,-10.286073
439.0000,-4.152194
440.0000,-1.808398
441.0000,-4.608969
442.0000,0.728170
443.0000,-5.952378
444.0000,-2.651463
445.0000,4.138799
446.0000,1.956835
447.0000,-3.531657
448.0000,0.977391
449.0000,1.920385
450.0000,-5.745030
451.0000,-2.246825
452.0000,-9.554280
453.0000,5.200872
454.0000,6.521621
455.0000,-14.227262
456.0000,0.711382
457.0000,-7.531605
458.0000,0.711493
459.0000,-7.139425
460.0000,-5.016051
461.0000,-5.682101
462.0000,3.013348
463.0000,-8.127220
464.0000,5.954172
465.0000,-0.748482
466.0000,-8.720030
467.0000,-6.190654
468.0000,2.150547
469.0000,4.559735
470.0000,9.647575
471.0000,2.217025
472.0000,5.171881
473.0000,2.837125
474.0000,8.932444
475.0000,-4.119006
476.0000,5.755809
477.0000,1.033380
478.0000,-10.071403
479.0000,3.408096
480.0000,-3.846811
481.0000,-8.017913
482.0000,-5.607442
483.0000,5.259057
484.0000,2.647782
485.0000,3.141769
486.0000,-3.999970
487.0000,1.581359
488.0000,-3.316322
489.0000,0.473392
490.0000,-0.110942
491.0000,0.632506
492.0000,1.409759
493.0000,-7.548639
494.0000,2.057932
495.0000,-2.732089
496.0000,1.687309
497.0000,8.851756
498.0000,-0.265176
499.0000,1.095182
500.0000,-6.891628
501.0000,0.712813
502.0000,-0.410761
503.0000,-6.291955
504.0000,-9.434142
505.0000,-5.500899
506.0000,5.111326
507.0000,4.389963
508.0000,-2.259896
509.0000,0.080034
510.0000,3.809598
511.0000,-0.103825
512.0000,-18.765402
513.0000,2.037502
514.0000,-6.040427
515.0000,-1.500041
516.0000,-0.012985
517.0000,4.871538
518.0000,3.405216
519.0000,0.814466
520.0000,3.578449
521.0000,10.121920
522.0000,-2.583715
523.0000,-4.630684
524.0000,0.199610
525.0000,1.410563
526.0000,-8.335175
527.0000,-4.695347
528.0000,0.382680
529.0000,0.981113
530.0000,-5.290577
531.0000,6.431405
532.0000,-1.039842
533.0000,-1.482777
534.0000,1.489042
535.0000,1.210643
536.0000,6.422480
537.0000,7.927367
538.0000,-15.416304
539.0000,-9.194219
540.0000,-7.249493
541.0000,-4.754568
542.0000,1.054569
543.0000,7.300035
544.0000,-7.734481
545.0000,2.477222
546.0000,-0.520518
547.0000,3.417209
548.0000,10.609187
549.0000,-4.340514
550.0000,2.200058
551.0000,4.103382
552.0000,2.859272
553.0000,1.025330
554.0000,-2.809441
555.0000,1.359192
556.0000,1.602178
557.0000,0.219027
558.0000,3.484438
559.0000,0.178692
560.0000,6.407073
561.0000,7.387008
562.0000,-4.514658
563.0000,-1.288026
564.0000,5.690245
565.0000,-0.218758
566.0000,1.602053
567.0000,1.885654
568.0000,4.980903
569.0000,1.396926
570.0000,-1.509055
571.0000,10.137584
572.0000,-7.067352
573.0000,-7.231077
574.0000,13.605887
575.0000,1.678553
576.0000,20.265787
577.0000,12.347566
578.0000,5.229523
579.0000,14.324516
580.0000,-6.542340
581.0000,6.135896
582.0000,9.900715
583.0000,3.197250
584.0000,0.047334
585.0000,-10.722500
586.0000,2.107270
587.0000,3.576919
588.0000,7.895533
589.0000,2.308882
590.0000,-1.305949
591.0000,9.744080
592.0000,-2.795881
593.0000,15.450185
594.0000,10.187678
595.0000,8.785802
596.0000,3.937591
597.0000,4.952294
598.0000,8.187800
599.0000,5.982172
600.0000,3.151224
601.0000,1.611848
602.0000,15.983384
603.0000,12.164406
604.0000,12.974905
605.0000,10.616927
606.0000,15.410305
607.0000,18.366298
608.0000,16.925400
609.0000,28.821968
610.0000,25.504404
611.0000,20.753650
612.0000,32.846086
613.0000,45.952180
614.0000,50.736505
615.0000,61.002541
616.0000,58.826781
617.0000,91.041434
618.0000,103.476131
619.0000,117.879289
620.0000,131.749656
621.0000,155.561539
622.0000,177.886183
623.0000,179.052094
624.0000,177.736524
625.0000,147.990340
626.0000,137.606477
627.0000,105.681719
628.0000,86.003331
629.0000,79.801529
630.0000,63.424283
631.0000,48.416950
632.0000,44.317271
633.0000,33.257988
634.0000,38.245382
635.0000,33.083825
636.0000,18.569834
637.0000,21.630685
638.0000,19.453285
639.0000,19.807561
640.0000,12.204693
641.0000,19.114816
642.0000,24.583855
643.0000,28.378802
644.0000,21.544659
645.0000,21.058492
646.0000,16.257809
647.0000,12.482557
648.0000,4.565992
649.0000,9.308011
650.0000,5.722145
651.0000,0.982821
652.0000,13.962872
653.0000,10.354734
654.0000,9.030456
655.0000,6.355516
656.0000,3.285859
657.0000,7.903208
658.0000,6.292790
659.0000,-6.972718
660.0000,1.695117
661.0000,-1.915604
662.0000,2.250786
663.0000,5.375746
664.0000,1.941255
665.0000,1.421230
666.0000,-8.149495
667.0000,6.672442
668.0000,4.864062
669.0000,12.432987
670.0000,-4.727945
671.0000,-0.542572
672.0000,-4.477322
673.0000,2.500506
674.0000,-8.114103
675.0000,-6.337278
676.0000,-1.883547
677.0000,-3.624555
678.0000,9.678729
679.0000,0.728060
680.0000,-1.473704
681.0000,4.067784
682.0000,11.859924
683.0000,-9.016042
684.0000,5.485242
685.0000,-4.048226
686.0000,7.037720
687.0000,-4.389903
688.0000,6.518362
689.0000,3.962738
690.0000,-4.762841
691.0000,2.143493
692.0000,2.573920
693.0000,4.676127
694.0000,-2.853488
695.0000,3.374202
696.0000,1.494735
697.0000,5.539593
698.0000,0.580017
699.0000,1.717760
700.0000,1.892443
701.0000,4.627495
702.0000,-1.941464
703.0000,0.879614
704.0000,-6.230109
705.0000,-6.798617
706.0000,1.958815
707.0000,14.769365
708.0000,5.338893
709.0000,1.323300
710.0000,5.588261
711.0000,-1.619982
712.0000,0.569349
713.0000,4.791751
714.0000,1.575872
715.0000,-1.293402
716.0000,7.061569
717.0000,2.570814
718.0000,20.832543
719.0000,2.798695
720.0000,2.366640
721.0000,-5.579403
722.0000,-2.042334
723.0000,5.526137
724.0000,-2.071397
725.0000,-11.905127
726.0000,10.398678
727.0000,1.050858
728.0000,-5.690287
729.0000,3.833721
730.0000,0.215041
731.0000,9.322638
732.0000,4.469504
733.0000,-2.256129
734.0000,-9.457933
735.0000,-6.725744
736.0000,7.929204
737.0000,-1.319489
738.0000,-9.870995
739.0000,12.026838
740.0000,-4.262998
741.0000,4.242315
742.0000,6.067174
743.0000,7.875390
744.0000,2.362045
745.0000,1.083372
746.0000,6.637761
747.0000,-3.806495
748.0000,2.217364
749.0000,-12.167199
750.0000,-6.589607
751.0000,-9.169246
752.0000,-0.515792
753.0000,-2.836993
754.0000,-2.215542
755.0000,0.344839
756.0000,3.139985
757.0000,5.719718
758.0000,0.177475
759.0000,3.516851
760.0000,8.017231
761.0000,1.042749
762.0000,7.664379
763.0000,9.196976
764.0000,8.583092
765.0000,-1.958662
766.0000,-0.382117
767.0000,4.175704
768.0000,0.460453
769.0000,1.645400
770.0000,8.001561
771.0000,3.620214
772.0000,8.995555
773.0000,9.781203
774.0000,8.070675
775.0000,1.422706
776.0000,16.565448
777.0000,0.553852
778.0000,6.869513
779.0000,4.791863
780.0000,22.019123
781.0000,18.624549
782.0000,10.037997
783.0000,9.798394
784.0000,35.068599
785.0000,14.552623
786.0000,25.825471
787.0000,29.741656
788.0000,34.834580
789.0000,42.814141
790.0000,37.073082
791.0000,57.746065
792.0000,59.495880
793.0000,71.506158
794.0000,75.348214
795.0000,83.394342
796.0000,94.359978
797.0000,102.404597
798.0000,97.731783
799.0000,94.703366
800.0000,87.500533
801.0000,80.086142
802.0000,71.364032
803.0000,52.164210
804.0000,50.253877
805.0000,47.558132
806.0000,45.707649
807.0000,47.530532
808.0000,34.852476
809.0000,20.949208
810.0000,21.308153
811.0000,25.314061
812.0000,18.244193
813.0000,14.900173
814.0000,15.763428
815.0000,17.875936
816.0000,12.172358
817.0000,14.656519
818.0000,9.928454
819.0000,5.283277
820.0000,8.683717
821.0000,7.688196
822.0000,12.622559
823.0000,11.800089
824.0000,6.744601
825.0000,7.269565
826.0000,3.979200
827.0000,-5.648489
828.0000,1.452429
829.0000,-0.829548
830.0000,9.558492
831.0000,7.669130
832.0000,10.224424
833.0000,6.269916
834.0000,12.968308
835.0000,6.587855
836.0000,10.197235
837.0000,19.998625
838.0000,11.227634
839.0000,-1.643205
840.0000,13.548656
841.0000,1.539095
842.0000,7.698485
843.0000,-4.318652
844.0000,-5.618569
845.0000,3.329652
846.0000,1.338709
847.0000,4.272850
848.0000,2.159409
849.0000,1.179036
850.0000,-1.912055
851.0000,-3.107240
852.0000,-2.505431
853.0000,1.110902
854.0000,-2.098240
855.0000,-3.022022
856.0000,4.462156
857.0000,-1.667399
858.0000,-1.006847
859.0000,2.316303
860.0000,-6.033092
861.0000,-10.659518
862.0000,-1.023678
863.0000,-2.960299
864.0000,-10.456984
865.0000,0.789087
866.0000,1.861182
867.0000,-4.370677
868.0000,-0.007772
869.0000,3.101169
870.0000,8.622876
871.0000,-1.800335
872.0000,4.243417
873.0000,-1.130300
874.0000,4.521651
875.0000,-1.751199
876.0000,6.663781
877.0000,1.172294
878.0000,10.244703
879.0000,9.811492
880.0000,8.755410
881.0000,5.511282
882.0000,-0.487858
883.0000,-0.709261
884.0000,-9.821036
885.0000,-6.806676
886.0000,-3.440413
887.0000,4.107653
888.0000,1.870002
889.0000,13.395036
890.0000,0.240777
891.0000,3.589544
892.0000,5.542063
893.0000,1.208810
894.0000,-8.235567
895.0000,-9.275063
896.0000,3.164825
897.0000,-7.413428
898.0000,-4.612706
899.0000,8.894855
900.0000,-0.951502
901.0000,-5.908504
902.0000,0.989999
903.0000,-3.113407
904.0000,5.781512
905.0000,-3.061651
906.0000,-4.004076
907.0000,15.544993
908.0000,0.904637
909.0000,8.087542
910.0000,9.317472
911.0000,-3.705570
912.0000,-5.141763
913.0000,-6.469521
914.0000,10.206743
915.0000,4.311236
916.0000,5.276131
917.0000,-7.945368
918.0000,-1.025213
919.0000,1.079785
920.0000,5.527825
921.0000,-6.356074
922.0000,-6.152471
923.0000,1.075480
924.0000,4.212435
925.0000,5.799588
926.0000,1.916614
927.0000,7.597657
928.0000,14.652592
929.0000,13.156691
930.0000,-3.082126
931.0000,9.752265
932.0000,4.744114
933.0000,8.374637
934.0000,7.637283
935.0000,-5.689085
936.0000,5.645892
937.0000,4.682309
938.0000,-1.799571
939.0000,2.447232
940.0000,4.399340
941.0000,2.619912
942.0000,11.879697
943.0000,8.350750
944.0000,-7.159227
945.0000,7.428366
946.0000,5.310906
947.0000,5.315098
948.0000,10.450671
949.0000,11.513020
950.0000,5.096869
951.0000,1.649742
952.0000,3.017773
953.0000,9.724830
954.0000,-0.834756
955.0000,2.347343
956.0000,3.662261
957.0000,0.159373
958.0000,6.378841
959.0000,3.748570
960.0000,1.985974
961.0000,-7.019480
962.0000,12.087754
963.0000,-1.824658
964.0000,1.369743
965.0000,9.070456
966.0000,21.677008
967.0000,10.353772
968.0000,9.354952
969.0000,16.666419
970.0000,1.754841
971.0000,18.591505
972.0000,5.659608
973.0000,7.902958
974.0000,25.844428
975.0000,20.124137
976.0000,18.518761
977.0000,22.174827
978.0000,20.146367
979.0000,16.539220
980.0000,25.783469
981.0000,24.181478
982.0000,14.406094
983.0000,22.671891
984.0000,30.190508
985.0000,25.363959
986.0000,25.206444
987.0000,49.398288
988.0000,52.768891
989.0000,58.686077
990.0000,61.304102
991.0000,76.378318
992.0000,86.169369
993.0000,95.587308
994.0000,120.333705
995.0000,138.827845
996.0000,170.997425
997.0000,225.950136
998.0000,283.893598
999.0000,359.072716
1000.0000,470.532534
1001.0000,626.507409
1002.0000,821.722794
1003.0000,968.527331
1004.0000,1003.522655
1005.0000,887.027703
1006.0000,707.128024
1007.0000,524.141439
1008.0000,400.838046
1009.0000,311.404221
1010.0000,243.980812
1011.0000,197.751017
1012.0000,168.440308
1013.0000,146.731342
1014.0000,113.114305
1015.0000,102.738840
1016.0000,85.324519
1017.0000,78.327801
1018.0000,85.165089
1019.0000,83.435832
1020.0000,80.864311
1021.0000,77.896800
1022.0000,83.428029
1023.0000,81.131462
1024.0000,82.782735
1025.0000,84.681421
1026.0000,111.358856
1027.0000,126.490803
1028.0000,160.990654
1029.0000,198.796875
1030.0000,266.451573
1031.0000,306.362814
1032.0000,365.700810
1033.0000,426.003553
1034.0000,434.878870
1035.0000,391.660978
1036.0000,321.474633
1037.0000,258.102190
1038.0000,213.273492
1039.0000,156.702347
1040.0000,124.067832
1041.0000,98.254623
1042.0000,105.918277
1043.0000,66.777628
1044.0000,65.948596
1045.0000,63.819905
1046.0000,38.544018
1047.0000,51.509195
1048.0000,35.868231
1049.0000,40.637143
1050.0000,39.046312
1051.0000,21.073596
1052.0000,24.013609
1053.0000,22.238610
1054.0000,28.090953
1055.0000,19.432368
1056.0000,16.891926
1057.0000,12.143586
1058.0000,8.048953
1059.0000,14.508533
1060.0000,30.702253
1061.0000,15.297933
1062.0000,13.537870
1063.0000,21.200057
1064.0000,21.208566
1065.0000,13.925108
1066.0000,17.168062
1067.0000,5.422340
1068.0000,9.868219
1069.0000,11.692928
1070.0000,0.691984
1071.0000,-1.529608
1072.0000,18.999939
1073.0000,16.294117
1074.0000,15.624297
1075.0000,2.160811
1076.0000,11.615340
1077.0000,11.677179
1078.0000,-1.980588
1079.0000,2.192424
1080.0000,12.094168
1081.0000,13.817264
1082.0000,5.557656
1083.0000,9.083721
1084.0000,12.003742
1085.0000,6.170297
1086.0000,5.491176
1087.0000,5.727432
1088.0000,8.237371
1089.0000,19.413177
1090.0000,11.831166
1091.0000,8.290977
1092.0000,0.263915
1093.0000,4.030109
1094.0000,10.587812
1095.0000,-0.078477
1096.0000,-0.113353
1097.0000,0.820144
1098.0000,3.072202
1099.0000,-3.927495
1100.0000,3.278898
1101.0000,3.635149
1102.0000,-4.272659
1103.0000,-1.072031
1104.0000,12.581796
1105.0000,4.109492
1106.0000,1.921962
1107.0000,7.433734
1108.0000,-0.482050
1109.0000,10.375567
1110.0000,9.066846
1111.0000,12.814002
1112.0000,9.097092
1113.0000,12.648990
1114.0000,4.643433
1115.0000,-1.377519
1116.0000,7.377235
1117.0000,-8.138907
1118.0000,-0.536178
1119.0000,15.063367
1120.0000,10.534549
1121.0000,-0.788399
1122.0000,-0.749239
1123.0000,12.066815
1124.0000,-5.080835
1125.0000,5.272675
1126.0000,9.329550
1127.0000,6.640736
1128.0000,11.199428
1129.0000,7.946178
1130.0000,3.441074
1131.0000,8.673758
1132.0000,13.809463
1133.0000,6.215552
1134.0000,3.232206
1135.0000,7.757143
1136.0000,15.085212
1137.0000,12.257654
1138.0000,10.986129
1139.0000,24.969043
1140.0000,20.775978
1141.0000,12.522864
1142.0000,24.732618
1143.0000,11.051120
1144.0000,26.444939
1145.0000,24.697311
1146.0000,31.910061
1147.0000,33.671893
1148.0000,48.066124
1149.0000,45.789687
1150.0000,47.767569
1151.0000,71.674866
1152.0000,75.713145
1153.0000,93.259000
1154.0000,88.060149
1155.0000,123.548102
1156.0000,131.437758
1157.0000,152.588037
1158.0000,152.656398
1159.0000,141.236962
1160.0000,143.151081
1161.0000,118.737013
1162.0000,91.748332
1163.0000,86.418809
1164.0000,64.032521
1165.0000,54.049245
1166.0000,53.853877
1167.0000,59.813405
1168.0000,41.536397
1169.0000,38.786815
1170.0000,37.267701
1171.0000,42.251141
1172.0000,41.687049
1173.0000,49.877881
1174.0000,27.001297
1175.0000,38.795432
1176.0000,46.729307
1177.0000,51.372940
1178.0000,51.497324
1179.0000,46.252040
1180.0000,63.946051
1181.0000,77.948716
1182.0000,91.988332
1183.0000,93.937503
1184.0000,115.002391
1185.0000,126.975563
1186.0000,117.666383
1187.0000,107.802292
1188.0000,95.975451
1189.0000,90.345760
1190.0000,77.984928
1191.0000,63.296629
1192.0000,55.584923
1193.0000,46.832020
1194.0000,35.816522
1195.0000,31.623302
1196.0000,36.182476
1197.0000,27.396388
1198.0000,22.001001
1199.0000,24.519296
1200.0000,18.723348
1201.0000,31.736799
1202.0000,8.874789
1203.0000,3.690379
1204.0000,10.677827
1205.0000,5.817980
1206.0000,11.549555
1207.0000,10.713411
1208.0000,13.814012
1209.0000,4.266562
1210.0000,-1.869216
1211.0000,-1.505081
1212.0000,17.642337
1213.0000,6.674913
1214.0000,2.890243
1215.0000,6.363641
1216.0000,4.834270
1217.0000,9.855568
1218.0000,1.347750
1219.0000,7.524783
1220.0000,6.470185
1221.0000,0.334104
1222.0000,7.613878
1223.0000,14.178886
1224.0000,2.408682
1225.0000,6.313709
1226.0000,5.177793
1227.0000,0.348349
1228.0000,2.743297
1229.0000,2.746442
1230.0000,-1.475261
1231.0000,15.718587
1232.0000,2.521559
1233.0000,6.625788
1234.0000,8.439796
1235.0000,4.054385
1236.0000,4.362055
1237.0000,2.718872
1238.0000,-1.887563
1239.0000,5.369427
1240.0000,3.160546
1241.0000,1.900087
1242.0000,3.115726
1243.0000,3.466057
1244.0000,-5.578907
1245.0000,-2.197355
1246.0000,9.336428
1247.0000,6.930368
1248.0000,3.455992
1249.0000,-1.890311
1250.0000,2.108897
1251.0000,2.195531
1252.0000,11.385905
1253.0000,0.004983
1254.0000,-1.904846
1255.0000,1.567426
1256.0000,7.681354
1257.0000,3.231058
1258.0000,-3.328313
1259.0000,7.652371
1260.0000,0.076888
1261.0000,-0.385513
1262.0000,-4.950257
1263.0000,1.454217
1264.0000,7.005244
1265.0000,2.069288
1266.0000,-6.512926
1267.0000,-1.988667
1268.0000,2.055372
1269.0000,9.301495
1270.0000,4.857755
1271.0000,4.216574
1272.0000,-5.371817
1273.0000,5.953156
1274.0000,-1.599036
1275.0000,1.415839
1276.0000,2.200475
1277.0000,-1.997006
1278.0000,-9.963176
1279.0000,3.882115
1280.0000,5.316705
1281.0000,-1.690748
1282.0000,15.580437
1283.0000,11.229065
1284.0000,-8.145430
1285.0000,4.085495
1286.0000,-7.111611
1287.0000,-3.961447
1288.0000,-0.832888
1289.0000,4.194059
1290.0000,3.892858
1291.0000,-1.964671
1292.0000,-10.641777
1293.0000,-9.763221
1294.0000,6.733392
1295.0000,1.681934
1296.0000,2.312623
1297.0000,-1.660142
1298.0000,2.235381
1299.0000,4.749303
1300.0000,-2.783133
1301.0000,0.592855
1302.0000,4.533595
1303.0000,-3.782841
1304.0000,0.650647
1305.0000,-0.982942
1306.0000,11.715486
1307.0000,4.158685
1308.0000,5.834612
1309.0000,4.275805
1310.0000,-1.838453
1311.0000,5.102704
1312.0000,-0.766591
1313.0000,6.457030
1314.0000,-3.623666
1315.0000,6.812698
1316.0000,-2.742763
1317.0000,4.325418
1318.0000,-11.068328
1319.0000,3.030973
1320.0000,7.433938
1321.0000,13.240870
1322.0000,14.211433
1323.0000,10.490255
1324.0000,1.883341
1325.0000,-10.399275
1326.0000,-2.920477
1327.0000,-6.140622
1328.0000,-3.019866
1329.0000,4.533745
1330.0000,3.518464
1331.0000,-9.387911
1332.0000,-0.785703
1333.0000,22.305172
1334.0000,2.672908
1335.0000,12.645523
1336.0000,11.137614
1337.0000,-5.166799
1338.0000,1.975193
1339.0000,6.876344
1340.0000,1.636794
1341.0000,4.134803
1342.0000,-2.358288
1343.0000,2.467423
1344.0000,-10.292807
1345.0000,4.526893
1346.0000,-4.169271
1347.0000,-10.558845
1348.0000,14.414067
1349.0000,3.971004
1350.0000,5.673465
1351.0000,-0.649428
1352.0000,-3.579960
1353.0000,-0.011265
1354.0000,13.370037
1355.0000,7.888320
1356.0000,8.144209
1357.0000,8.677085
1358.0000,-1.999226
1359.0000,4.465790
1360.0000,0.569228
1361.0000,12.276673
1362.0000,-7.413867
1363.0000,3.481091
1364.0000,-4.019542
1365.0000,9.483180
1366.0000,8.529227
1367.0000,-0.671967
1368.0000,7.965651
1369.0000,-1.296742
1370.0000,-0.846305
1371.0000,-1.910673
1372.0000,2.951328
1373.0000,2.684521
1374.0000,11.125491
1375.0000,9.728079
1376.0000,0.169274
1377.0000,4.618894
1378.0000,-4.675119
1379.0000,4.366988
1380.0000,-1.631977
1381.0000,-7.200521
1382.0000,6.985566
1383.0000,-2.221027
1384.0000,0.352791
1385.0000,2.834933
1386.0000,3.578029
1387.0000,11.468521
1388.0000,-0.203681
1389.0000,1.452866
1390.0000,0.277448
1391.0000,0.417397
1392.0000,1.257429
1393.0000,-1.171511
1394.0000,5.624571
1395.0000,0.107334
1396.0000,15.306854
1397.0000,11.979429
1398.0000,10.338226
1399.0000,-2.062081
1400.0000,2.168473
1401.0000,0.434116
1402.0000,4.048559
1403.0000,12.663693
1404.0000,4.508448
1405.0000,-2.036614
1406.0000,13.125801
1407.0000,11.764790
1408.0000,-0.672593
1409.0000,18.352767
1410.0000,6.564582
1411.0000,3.882856
1412.0000,3.001457
1413.0000,16.762677
1414.0000,8.297225
1415.0000,20.933916
1416.0000,6.315843
1417.0000,8.202756
1418.0000,13.720907
1419.0000,11.022069
1420.0000,7.490900
1421.0000,11.314589
1422.0000,6.312581
1423.0000,22.542294
1424.0000,17.739153
1425.0000,15.976517
1426.0000,12.484086
1427.0000,24.518786
1428.0000,16.348245
1429.0000,35.281585
1430.0000,26.922670
1431.0000,25.959777
1432.0000,24.994323
1433.0000,28.115956
1434.0000,39.615421
1435.0000,26.387345
1436.0000,42.098958
1437.0000,39.763961
1438.0000,48.758879
1439.0000,66.105509
1440.0000,64.018861
1441.0000,68.342273
1442.0000,65.950211
1443.0000,84.637079
1444.0000,99.919416
1445.0000,109.375515
1446.0000,130.480344
1447.0000,138.465491
1448.0000,176.234962
1449.0000,182.308575
1450.0000,190.708550
1451.0000,201.544198
1452.0000,210.109702
1453.0000,208.776832
1454.0000,217.885624
1455.0000,197.588355
1456.0000,168.838641
1457.0000,179.405453
1458.0000,159.485090
1459.0000,125.945621
1460.0000,114.323116
1461.0000,106.046074
1462.0000,94.208241
1463.0000,82.986587
1464.0000,82.285063
1465.0000,71.162206
1466.0000,55.201920
1467.0000,54.795868
1468.0000,53.048506
1469.0000,34.047294
1470.0000,38.723693
1471.0000,29.763386
1472.0000,43.867453
1473.0000,31.005028
1474.0000,32.990800
1475.0000,20.336161
1476.0000,25.155688
1477.0000,25.476247
1478.0000,31.023011
1479.0000,19.232111
1480.0000,26.274783
1481.0000,19.515032
1482.0000,11.698777
1483.0000,19.514963
1484.0000,24.954339
1485.0000,9.338155
1486.0000,14.410049
1487.0000,3.513318
1488.0000,15.813351
1489.0000,15.321653
1490.0000,14.970344
1491.0000,8.099703
1492.0000,3.590959
1493.0000,1.947761
1494.0000,16.667696
1495.0000,2.633883
1496.0000,7.748628
1497.0000,9.170274
1498.0000,3.964900
1499.0000,2.783128
1500.0000,6.065369
1501.0000,7.161605
1502.0000,10.315689
1503.0000,9.276680
1504.0000,13.946238
1505.0000,18.237428
1506.0000,3.674456
1507.0000,10.666591
1508.0000,11.058545
1509.0000,9.627829
1510.0000,1.406523
1511.0000,6.667935
1512.0000,5.135683
1513.0000,10.471131
1514.0000,11.026048
1515.0000,1.421200
1516.0000,7.665774
1517.0000,4.073798
1518.0000,-1.009371
1519.0000,8.961974
1520.0000,2.865969
1521.0000,-0.570230
1522.0000,7.593430
1523.0000,21.204690
1524.0000,1.839219
1525.0000,19.135867
1526.0000,7.420687
1527.0000,5.534211
1528.0000,8.782876
1529.0000,13.209113
1530.0000,14.677926
1531.0000,14.115033
1532.0000,14.822072
1533.0000,7.751457
1534.0000,8.092757
1535.0000,1.887135
1536.0000,9.011385
1537.0000,4.336656
1538.0000,0.102072
1539.0000,11.215444
1540.0000,12.254127
1541.0000,14.947552
1542.0000,5.626334
1543.0000,6.926550
1544.0000,0.168533
1545.0000,-0.109778
1546.0000,13.167996
1547.0000,5.767273
1548.0000,17.836335
1549.0000,12.952353
1550.0000,17.422493
1551.0000,15.443097
1552.0000,22.338693
1553.0000,8.459596
1554.0000,13.101052
1555.0000,22.249919
1556.0000,7.387079
1557.0000,5.835598
1558.0000,16.116888
1559.0000,13.562241
1560.0000,12.201660
1561.0000,25.607596
1562.0000,19.004066
1563.0000,21.304930
1564.0000,25.588352
1565.0000,28.095480
1566.0000,28.175441
1567.0000,30.181777
1568.0000,39.337477
1569.0000,27.792855
1570.0000,21.122929
1571.0000,46.038354
1572.0000,51.010460
1573.0000,57.156957
1574.0000,62.309256
1575.0000,66.601237
1576.0000,73.539289
1577.0000,75.434498
1578.0000,90.378310
1579.0000,101.627360
1580.0000,122.440322
1581.0000,147.244418
1582.0000,167.384406
1583.0000,185.103683
1584.0000,198.361183
1585.0000,217.777025
1586.0000,243.242977
1587.0000,235.862172
1588.0000,202.633346
1589.0000,197.754276
1590.0000,189.714335
1591.0000,165.287962
1592.0000,165.539564
1593.0000,170.004245
1594.0000,158.065414
1595.0000,169.347475
1596.0000,185.205420
1597.0000,198.853470
1598.0000,235.810479
1599.0000,288.458007
1600.0000,330.679203
1601.0000,406.089116
1602.0000,485.776307
1603.0000,571.340978
1604.0000,634.915400
1605.0000,622.053836
1606.0000,585.284205
1607.0000,514.050568
1608.0000,428.614300
1609.0000,352.083521
1610.0000,272.377053
1611.0000,223.808365
1612.0000,173.937904
1613.0000,153.210327
1614.0000,127.092978
1615.0000,112.637385
1616.0000,88.689415
1617.0000,66.021271
1618.0000,92.849360
1619.0000,53.089234
1620.0000,51.397737
1621.0000,52.354978
1622.0000,46.744010
1623.0000,44.105893
1624.0000,31.693428
1625.0000,30.098606
1626.0000,40.082704
1627.0000,30.576047
1628.0000,36.487651
1629.0000,17.836375
1630.0000,24.058082
1631.0000,18.642247
1632.0000,25.938973
1633.0000,23.119034
1634.0000,18.610935
1635.0000,14.750563
1636.0000,25.831932
1637.0000,18.614610
1638.0000,15.342079
1639.0000,15.168566
1640.0000,15.617525
1641.0000,3.468803
1642.0000,28.563139
1643.0000,17.622146
1644.0000,11.290984
1645.0000,6.874537
1646.0000,0.249850
1647.0000,2.088830
1648.0000,16.587242
1649.0000,9.659240
1650.0000,12.942588
1651.0000,9.372834
1652.0000,12.974299
1653.0000,4.780428
1654.0000,6.190855
1655.0000,9.386852
1656.0000,9.999835
1657.0000,17.158980
1658.0000,7.459453
1659.0000,4.354633
1660.0000,10.233802
1661.0000,-0.546440
1662.0000,-0.693597
1663.0000,2.228934
1664.0000,6.844844
1665.0000,8.786487
1666.0000,9.425144
1667.0000,11.251738
1668.0000,16.120788
1669.0000,9.218956
1670.0000,5.283193
1671.0000,3.471625
1672.0000,5.252509
1673.0000,-11.003551
1674.0000,1.673122
1675.0000,-2.121099
1676.0000,-8.277376
1677.0000,-2.013295
1678.0000,5.486062
1679.0000,-0.582828
1680.0000,3.805305
1681.0000,3.503368
1682.0000,2.656662
1683.0000,-0.192283
1684.0000,4.748143
1685.0000,7.188763
1686.0000,12.740846
1687.0000,10.597920
1688.0000,-1.039286
1689.0000,-0.926724
1690.0000,7.766298
1691.0000,-0.928215
1692.0000,1.592058
1693.0000,-8.538313
1694.0000,0.048402
1695.0000,-1.164181
1696.0000,-3.171934
1697.0000,6.814829
1698.0000,6.699114
1699.0000,-1.267201
1700.0000,2.393486
1701.0000,-5.927591
1702.0000,-3.907731
1703.0000,6.000898
1704.0000,8.840748
1705.0000,8.128699
1706.0000,0.758907
1707.0000,0.313477
1708.0000,3.122946
1709.0000,-9.031123
1710.0000,9.872643
1711.0000,-7.397570
1712.0000,-5.922915
1713.0000,10.116970
1714.0000,5.790107
1715.0000,-2.585128
1716.0000,2.031004
1717.0000,7.927708
1718.0000,-5.545273
1719.0000,5.713812
1720.0000,-1.989557
1721.0000,7.206876
1722.0000,8.481153
1723.0000,4.025723
1724.0000,12.687755
1725.0000,4.382842
1726.0000,-1.283718
1727.0000,2.533438
1728.0000,-0.156870
1729.0000,-4.895192
1730.0000,5.579037
1731.0000,0.885597
1732.0000,-3.910378
1733.0000,-5.242901
1734.0000,-0.793101
1735.0000,-0.555681
1736.0000,-0.977126
1737.0000,-0.379480
1738.0000,4.320732
1739.0000,-8.956284
1740.0000,11.414348
1741.0000,-2.158919
1742.0000,5.885218
1743.0000,13.254409
1744.0000,5.942653
1745.0000,9.640158
1746.0000,0.032488
1747.0000,-4.268085
1748.0000,-7.213016
1749.0000,0.572337
1750.0000,-6.436894
1751.0000,3.978146
1752.0000,4.648593
1753.0000,0.385454
1754.0000,1.336558
1755.0000,3.216132
1756.0000,4.633115
1757.0000,-8.407110
1758.0000,-5.886836
1759.0000,-5.392080
1760.0000,-1.837836
1761.0000,1.080998
1762.0000,-8.496389
1763.0000,4.385404
1764.0000,-4.759318
1765.0000,3.853644
1766.0000,1.000187
1767.0000,3.192529
1768.0000,1.292734
1769.0000,-1.835978
1770.0000,-2.417608
1771.0000,-0.206748
1772.0000,10.182809
1773.0000,-8.007748
1774.0000,7.470964
1775.0000,-2.845623
1776.0000,3.542029
1777.0000,-0.819856
1778.0000,1.945150
1779.0000,-5.096278
1780.0000,2.754932
1781.0000,1.631320
1782.0000,-6.028158
1783.0000,5.211554
1784.0000,-2.217603
1785.0000,9.322637
1786.0000,7.334460
1787.0000,6.880565
1788.0000,4.312503
1789.0000,-7.841990
1790.0000,-3.002566
1791.0000,10.294493
1792.0000,4.530351
1793.0000,-7.515536
1794.0000,-1.146686
1795.0000,0.266722
1796.0000,-5.502625
1797.0000,16.370080
1798.0000,2.086349
1799.0000,3.600077
1800.0000,8.202578
1801.0000,-9.093989
1802.0000,2.377246
1803.0000,-0.433524
1804.0000,1.387699
1805.0000,7.668227
1806.0000,6.035296
1807.0000,-4.847159
1808.0000,-7.712818
1809.0000,-9.660039
1810.0000,2.762066
1811.0000,-2.973124
1812.0000,2.843931
1813.0000,2.931112
1814.0000,7.965744
1815.0000,11.738862
1816.0000,11.787011
1817.0000,-2.336883
1818.0000,-1.471701
1819.0000,-1.551511
1820.0000,1.071311
1821.0000,-0.301814
1822.0000,-6.906975
1823.0000,-4.121817
1824.0000,-3.071818
1825.0000,10.299181
1826.0000,0.781306
1827.0000,5.968630
1828.0000,-7.328785
1829.0000,-1.335585
1830.0000,-9.127385
1831.0000,2.420905
1832.0000,-4.916536
1833.0000,-4.952739
1834.0000,-0.293862
1835.0000,5.062944
1836.0000,7.400706
1837.0000,0.691286
1838.0000,6.449952
1839.0000,-5.596325
1840.0000,-0.365882
1841.0000,0.968548
1842.0000,-7.042377
1843.0000,-4.162159
1844.0000,5.484379
1845.0000,-6.784127
1846.0000,5.368692
1847.0000,-4.511257
1848.0000,7.989807
1849.0000,-7.791078
1850.0000,-2.933834
1851.0000,4.489606
1852.0000,5.199673
1853.0000,1.937948
1854.0000,-7.629797
1855.0000,1.630074
1856.0000,1.178014
1857.0000,0.685077
1858.0000,5.077268
1859.0000,8.131282
1860.0000,1.970217
1861.0000,-2.323786
1862.0000,7.273996
1863.0000,1.837046
1864.0000,1.729933
1865.0000,7.945601
1866.0000,0.068806
1867.0000,-4.006009
1868.0000,2.746568
1869.0000,0.393387
1870.0000,1.601821
1871.0000,5.009673
1872.0000,-4.321582
1873.0000,1.396193
1874.0000,5.004258
1875.0000,9.479968
1876.0000,1.589372
1877.0000,0.334909
1878.0000,1.067995
1879.0000,-4.883937
1880.0000,-0.867092
1881.0000,1.729137
1882.0000,3.299196
1883.0000,9.945455
1884.0000,-2.460122
1885.0000,-17.142259
1886.0000,-6.888967
1887.0000,-1.575638
1888.0000,6.326678
1889.0000,2.359299
1890.0000,17.872323
1891.0000,2.698756
1892.0000,3.888888
1893.0000,1.934087
1894.0000,-2.839451
1895.0000,-0.639800
1896.0000,-2.187980
1897.0000,2.857977
1898.0000,6.122893
1899.0000,7.009891
1900.0000,-2.478400
1901.0000,-0.751067
1902.0000,0.799815
1903.0000,6.434812
1904.0000,-5.863586
1905.0000,-6.788000
1906.0000,-7.079069
1907.0000,-2.509160
1908.0000,8.404031
1909.0000,15.232739
1910.0000,-5.449837
1911.0000,-5.867851
1912.0000,5.593773
1913.0000,-0.816575
1914.0000,-4.131623
1915.0000,10.361671
1916.0000,18.886211
1917.0000,1.314790
1918.0000,7.310078
1919.0000,5.777312
1920.0000,-0.085276
1921.0000,-8.515160
1922.0000,2.825757
1923.0000,5.898082
1924.0000,-2.153028
1925.0000,-4.161981
1926.0000,-6.152048
1927.0000,3.873374
1928.0000,12.170995
1929.0000,1.459086
1930.0000,3.634316
1931.0000,2.479389
1932.0000,0.738900
1933.0000,2.895355
1934.0000,-3.873898
1935.0000,4.313589
1936.0000,13.072370
1937.0000,-1.204100
1938.0000,0.651706
1939.0000,1.038527
1940.0000,-4.536577
1941.0000,0.826050
1942.0000,-3.277939
1943.0000,2.513681
1944.0000,-13.913584
1945.0000,0.385794
1946.0000,-3.182770
1947.0000,-8.830442
1948.0000,4.644254
1949.0000,1.662408
1950.0000,0.765149
1951.0000,-1.451657
1952.0000,-6.047144
1953.0000,-7.493530
1954.0000,-16.869910
1955.0000,4.412159
1956.0000,-2.676489
1957.0000,-5.811179
1958.0000,-3.019913
1959.0000,-7.350235
1960.0000,7.517813
1961.0000,7.032621
1962.0000,1.032318
1963.0000,2.348936
1964.0000,-3.602678
1965.0000,-1.391050
1966.0000,1.092679
1967.0000,-4.413924
1968.0000,2.868552
1969.0000,2.773504
1970.0000,-0.363005
1971.0000,0.949879
1972.0000,1.703165
1973.0000,-8.074810
1974.0000,3.296700
1975.0000,-4.731322
1976.0000,3.602995
1977.0000,-0.225100
1978.0000,3.308084
1979.0000,2.542378
1980.0000,-11.437530
1981.0000,-6.976518
1982.0000,7.066009
1983.0000,5.697629
1984.0000,1.327561
1985.0000,-12.053014
1986.0000,4.270697
1987.0000,-1.455737
1988.0000,-14.846517
1989.0000,-2.140864
1990.0000,9.779713
1991.0000,5.095480
1992.0000,-2.909065
1993.0000,4.980819
1994.0000,-5.632717
1995.0000,-4.787186
1996.0000,2.475592
1997.0000,11.815019
1998.0000,0.881227
1999.0000,-1.778771
2000.0000,-12.556672
