raman_shift_cm-1,intensity
200.0000,-13.518330
201.0000,-6.963399
202.0000,-0.851724
203.0000,-3.609204
204.0000,-1.715272
205.0000,2.231188
206.0000,4.885600
207.0000,0.222275
208.0000,0.869433
209.0000,6.273053
210.0000,6.552838
211.0000,-4.160485
212.0000,6.282998
213.0000,1.987173
214.0000,5.917040
215.0000,0.915477
216.0000,-0.209027
217.0000,1.681111
218.0000,-1.995375
219.0000,3.109761
220.0000,9.070948
221.0000,2.312939
222.0000,-2.799779
223.0000,6.607925
224.0000,-7.280893
225.0000,-2.023852
226.0000,12.192795
227.0000,3.811223
228.0000,7.176144
229.0000,-3.479819
230.0000,5.300645
231.0000,4.044931
232.0000,4.056817
233.0000,-8.090491
234.0000,1.834171
235.0000,2.111259
236.0000,-0.030424
237.0000,1.296109
238.0000,-2.088052
239.0000,4.197236
240.0000,3.223780
241.0000,-1.470995
242.0000,-0.498936
243.0000,5.643950
244.0000,-11.111511
245.0000,-0.736534
246.0000,-4.760585
247.0000,-8.480349
248.0000,6.120175
249.0000,5.658429
250.0000,-4.682982
251.0000,8.548720
252.0000,-5.458504
253.0000,-1.601865
254.0000,9.059974
255.0000,-1.039012
256.0000,-0.271324
257.0000,-3.627231
258.0000,-4.302370
259.0000,5.143091
260.0000,-1.494433
261.0000,9.163260
262.0000,-9.063681
263.0000,-12.783655
264.0000,0.667158
265.0000,-1.973417
266.0000,3.071823
267.0000,-2.753698
268.0000,-5.652961
269.0000,-5.122658
270.0000,2.751496
271.0000,3.690268
272.0000,-4.904035
273.0000,-7.087753
274.0000,3.059199
275.0000,2.626098
276.0000,-10.426912
277.0000,-3.965629
278.0000,9.916276
279.0000,-6.066605
280.0000,9.205470
281.0000,-3.068183
282.0000,1.858903
283.0000,-6.477266
284.0000,2.204479
285.0000,-4.477093
286.0000,7.680508
287.0000,-1.137255
288.0000,14.513706
289.0000,-7.865823
290.0000,3.552311
291.0000,5.667581
292.0000,-6.791398
293.0000,5.920663
294.0000,-3.081940
295.0000,-4.332239
296.0000,10.866848
297.0000,-8.905030
298.0000,8.820501
299.0000,7.522399
300.0000,-9.487233
301.0000,2.924067
302.0000,-0.892099
303.0000,7.088325
304.0000,1.297313
305.0000,-1.397508
306.0000,1.395202
307.0000,5.550167
308.0000,-3.592586
309.0000,2.503047
310.0000,-5.463319
311.0000,-5.258272
312.0000,-7.150516
313.0000,0.710378
314.0000,3.430906
315.0000,0.313718
316.0000,7.255943
317.0000,-5.297233
318.0000,-2.906934
319.0000,1.046275
320.0000,2.268265
321.0000,-5.003687
322.0000,8.458538
323.0000,3.938753
324.0000,10.014587
325.0000,1.967811
326.0000,8.126039
327.0000,-2.439956
328.0000,-3.587871
329.0000,4.113555
330.0000,8.313120
331.0000,1.999502
332.0000,2.744125
333.0000,-4.201088
334.0000,-7.667229
335.0000,6.968049
336.0000,-0.679370
337.0000,-9.213807
338.0000,7.112307
339.0000,6.711912
340.0000,-2.339887
341.0000,2.964698
342.0000,11.803312
343.0000,4.600363
344.0000,-2.486882
345.0000,5.117944
346.0000,3.642822
347.0000,3.745260
348.0000,1.581950
349.0000,-6.488675
350.0000,3.846804
351.0000,-2.402302
352.0000,1.638869
353.0000,5.351259
354.0000,-7.276542
355.0000,-2.636218
356.0000,1.697588
357.0000,-4.921904
358.0000,-3.250246
359.0000,5.978235
360.0000,-4.932297
361.0000,3.730523
362.0000,6.945648
363.0000,-3.043078
364.0000,-4.897199
365.0000,-4.428047
366.0000,-2.841778
367.0000,4.479525
368.0000,-1.363900
369.0000,1.991730
370.0000,1.023026
371.0000,5.575619
372.0000,1.623970
373.0000,0.625782
374.0000,-5.036640
375.0000,9.105883
376.0000,-2.191823
377.0000,-3.182541
378.0000,6.288211
379.0000,-3.555136
380.0000,-0.931709
381.0000,8.170945
382.0000,-3.340138
383.0000,11.620582
384.0000,-8.534278
385.0000,2.470618
386.0000,-2.544540
387.0000,4.688922
388.0000,-0.135759
389.0000,-10.253849
390.0000,-1.404763
391.0000,4.581439
392.0000,2.989847
393.0000,9.320013
394.0000,8.785225
395.0000,-0.083289
396.0000,2.318761
397.0000,0.032396
398.0000,-2.341867
399.0000,1.233309
400.0000,-1.540124
401.0000,-3.140449
402.0000,10.531037
403.0000,-5.682657
404.0000,7.100892
405.0000,3.637883
406.0000,3.894677
407.0000,13.846111
408.0000,-0.642377
409.0000,4.903491
410.0000,1.461723
411.0000,11.552627
412.0000,5.608702
413.0000,-2.954299
414.0000,7.390880
415.0000,0.915868
416.0000,-6.787796
417.0000,-3.747948
418.0000,0.182535
419.0000,3.138115
420.0000,1.376818
421.0000,3.914280
422.0000,10.205522
423.0000,9.059389
424.0000,-8.492621
425.0000,4.272388
426.0000,-3.541851
427.0000,-9.521909
428.0000,2.343674
429.0000,6.726172
430.0000,-0.052559
431.0000,2.678559
432.0000,6.908501
433.0000,0.498385
434.0000,6.313890
435.0000,4.921224
436.0000,5.303446
437.0000,1.387462
438.0000,-6.494309
439.0000,-5.111547
440.0000,10.052465
441.0000,13.464016
442.0000,-3.089483
443.0000,-3.048036
444.0000,-8.584883
445.0000,-4.007297
446.0000,-10.366136
447.0000,-4.324355
448.0000,-1.328296
449.0000,-5.463034
450.0000,7.179947
451.0000,-4.196347
452.0000,6.767223
453.0000,0.302575
454.0000,6.678059
455.0000,9.184052
456.0000,-6.465864
457.0000,-2.334849
458.0000,-9.033789
459.0000,2.876675
460.0000,5.100544
461.0000,2.454773
462.0000,4.446128
463.0000,4.007588
464.0000,0.391707
465.0000,4.007299
466.0000,10.836281
467.0000,0.992730
468.0000,-10.882847
469.0000,6.305980
470.0000,2.575223
471.0000,6.813382
472.0000,-10.342846
473.0000,11.611226
474.0000,6.503144
475.0000,10.631207
476.0000,7.855194
477.0000,5.813381
478.0000,-3.171344
479.0000,4.147641
480.0000,15.988054
481.0000,6.419423
482.0000,-0.558328
483.0000,6.601789
484.0000,8.576593
485.0000,9.129144
486.0000,-1.077782
487.0000,4.912463
488.0000,13.313240
489.0000,7.520640
490.0000,7.281371
491.0000,15.468582
492.0000,2.877448
493.0000,2.746114
494.0000,24.350142
495.0000,15.566725
496.0000,10.272690
497.0000,11.079038
498.0000,21.507832
499.0000,10.977424
500.0000,17.437206
501.0000,11.512308
502.0000,15.986131
503.0000,29.094090
504.0000,32.632605
505.0000,34.309351
506.0000,25.135623
507.0000,28.651681
508.0000,41.266717
509.0000,56.424697
510.0000,53.186183
511.0000,65.915315
512.0000,73.655347
513.0000,106.721751
514.0000,130.880744
515.0000,172.727800
516.0000,240.818102
517.0000,334.388674
518.0000,478.231513
519.0000,703.670472
520.0000,941.304711
521.0000,999.994910
522.0000,808.055789
523.0000,569.885731
524.0000,379.362700
525.0000,266.820396
526.0000,189.710682
527.0000,147.669354
528.0000,120.542366
529.0000,99.817002
530.0000,70.426024
531.0000,55.894547
532.0000,40.640099
533.0000,43.561867
534.0000,30.939594
535.0000,22.891980
536.0000,30.300946
537.0000,26.374656
538.0000,17.718545
539.0000,22.849264
540.0000,20.943976
541.0000,19.211751
542.0000,13.208098
543.0000,15.988783
544.0000,0.999669
545.0000,9.900258
546.0000,8.842619
547.0000,6.937404
548.0000,-2.184225
549.0000,3.634612
550.0000,3.178524
551.0000,12.785434
552.0000,11.885398
553.0000,11.437030
554.0000,10.612897
555.0000,-1.543787
556.0000,4.973184
557.0000,3.792600
558.0000,5.285037
559.0000,7.951969
560.0000,8.380408
561.0000,0.646971
562.0000,-2.017096
563.0000,5.215864
564.0000,5.434655
565.0000,3.384875
566.0000,2.271160
567.0000,5.975798
568.0000,-0.041860
569.0000,7.950456
570.0000,0.594964
571.0000,0.857362
572.0000,7.200203
573.0000,-9.549720
574.0000,13.553334
575.0000,-3.034963
576.0000,9.267969
577.0000,11.948143
578.0000,-12.151894
579.0000,-0.585160
580.0000,3.033979
581.0000,3.015863
582.0000,-0.772005
583.0000,5.864578
584.0000,0.259496
585.0000,-6.835254
586.0000,5.396383
587.0000,2.189135
588.0000,-0.275857
589.0000,1.377921
590.0000,8.685418
591.0000,0.922105
592.0000,1.284191
593.0000,-2.718714
594.0000,6.189112
595.0000,-1.265317
596.0000,-0.669843
597.0000,4.901767
598.0000,7.976734
599.0000,-1.904394
600.0000,-5.527907
601.0000,4.507155
602.0000,13.262971
603.0000,6.993111
604.0000,-5.241902
605.0000,9.088083
606.0000,2.483535
607.0000,3.924309
608.0000,2.760938
609.0000,4.883226
610.0000,-0.395581
611.0000,12.465908
612.0000,-6.573229
613.0000,2.462169
614.0000,-1.731353
615.0000,7.308809
616.0000,6.174437
617.0000,-8.054469
618.0000,-10.277126
619.0000,-16.340411
620.0000,5.353331
621.0000,-6.748836
622.0000,15.059746
623.0000,1.408930
624.0000,0.866775
625.0000,2.025729
626.0000,9.712434
627.0000,5.889908
628.0000,7.343133
629.0000,4.087855
630.0000,-9.474412
631.0000,-3.161127
632.0000,1.238887
633.0000,9.530855
634.0000,-5.206087
635.0000,-5.949492
636.0000,-2.470664
637.0000,11.126866
638.0000,-0.371802
639.0000,6.844076
640.0000,1.016911
641.0000,-0.604254
642.0000,12.339945
643.0000,4.474729
644.0000,-3.126410
645.0000,3.618923
646.0000,1.937378
647.0000,-4.494987
648.0000,-10.059898
649.0000,-1.178045
650.0000,8.664330
651.0000,11.310817
652.0000,-5.306870
653.0000,-0.493960
654.0000,1.041428
655.0000,-2.438266
656.0000,9.120074
657.0000,8.755881
658.0000,11.294737
659.0000,8.612800
660.0000,6.621719
661.0000,-6.492100
662.0000,-8.506153
663.0000,5.792508
664.0000,0.432069
665.0000,0.201512
666.0000,-10.777578
667.0000,-3.721223
668.0000,4.235327
669.0000,5.178737
670.0000,6.939565
671.0000,-0.110358
672.0000,-0.610786
673.0000,-0.007235
674.0000,3.703977
675.0000,1.095076
676.0000,-0.633851
677.0000,-16.960315
678.0000,-4.134026
679.0000,-7.443614
680.0000,-1.609658
681.0000,-6.955040
682.0000,-0.566728
683.0000,6.663615
684.0000,11.631046
685.0000,4.160106
686.0000,-8.870208
687.0000,-2.616691
688.0000,-7.587752
689.0000,-3.282826
690.0000,2.755379
691.0000,0.856731
692.0000,-2.974152
693.0000,-8.144494
694.0000,10.473300
695.0000,1.249476
696.0000,-0.892845
697.0000,-1.623963
698.0000,-5.269349
699.0000,6.212337
700.0000,-6.414276
701.0000,2.112067
702.0000,-7.316839
703.0000,-4.053873
704.0000,0.113179
705.0000,4.147995
706.0000,-3.473272
707.0000,1.659385
708.0000,-7.966645
709.0000,-1.990004
710.0000,7.194490
711.0000,3.259702
712.0000,-1.562651
713.0000,1.619732
714.0000,3.770107
715.0000,4.734074
716.0000,6.592491
717.0000,0.232390
718.0000,0.929596
719.0000,-3.567501
720.0000,-1.041869
721.0000,-1.430843
722.0000,5.612269
723.0000,-9.578179
724.0000,13.273094
725.0000,5.914366
726.0000,-5.830802
727.0000,-0.659201
728.0000,-2.261361
729.0000,-3.960952
730.0000,-2.469071
731.0000,-6.344504
732.0000,-1.136809
733.0000,-4.251361
734.0000,0.187704
735.0000,-1.632796
736.0000,4.733189
737.0000,2.713393
738.0000,0.613159
739.0000,7.664968
740.0000,-6.151773
741.0000,4.994004
742.0000,-10.327797
743.0000,4.899339
744.0000,12.233533
745.0000,-10.512579
746.0000,-0.810401
747.0000,-4.281283
748.0000,3.618101
749.0000,10.056563
750.0000,-7.299203
751.0000,4.217472
752.0000,0.901000
753.0000,0.015471
754.0000,9.361654
755.0000,-6.464785
756.0000,-0.501626
757.0000,-6.298487
758.0000,-7.798958
759.0000,3.966863
760.0000,9.299887
761.0000,1.645063
762.0000,-8.409187
763.0000,1.152207
764.0000,-0.443171
765.0000,-7.221632
766.0000,-6.813265
767.0000,-10.451969
768.0000,-5.276399
769.0000,1.259771
770.0000,0.068051
771.0000,8.837398
772.0000,3.794032
773.0000,-1.298299
774.0000,-4.293765
775.0000,3.186043
776.0000,-2.759044
777.0000,9.434716
778.0000,1.196492
779.0000,2.325247
780.0000,-10.596037
781.0000,6.689474
782.0000,3.293685
783.0000,0.916718
784.0000,1.825256
785.0000,-2.300589
786.0000,-0.822338
787.0000,-4.917469
788.0000,3.396983
789.0000,7.635208
790.0000,-3.156925
791.0000,8.160766
792.0000,0.758952
793.0000,4.557938
794.0000,3.018492
795.0000,2.987144
796.0000,-1.385224
797.0000,3.881653
798.0000,-17.497048
799.0000,-10.225655
800.0000,-0.501897
801.0000,10.012154
802.0000,3.948498
803.0000,3.508726
804.0000,-6.079221
805.0000,6.176175
806.0000,1.309648
807.0000,-4.260274
808.0000,4.871295
809.0000,-0.411784
810.0000,-5.515217
811.0000,-3.163751
812.0000,5.739151
813.0000,-4.746723
814.0000,14.789018
815.0000,-0.065908
816.0000,-7.552331
817.0000,2.009440
818.0000,9.392617
819.0000,5.547005
820.0000,-4.729787
821.0000,-1.281341
822.0000,5.063375
823.0000,-4.984974
824.0000,14.070666
825.0000,-5.999434
826.0000,7.802268
827.0000,-3.161804
828.0000,-5.159265
829.0000,2.886892
830.0000,2.181935
831.0000,-3.530361
832.0000,9.918401
833.0000,-7.374847
834.0000,12.650863
835.0000,3.959164
836.0000,-9.290809
837.0000,2.576066
838.0000,2.992315
839.0000,8.709379
840.0000,2.370312
841.0000,-9.697754
842.0000,-4.198045
843.0000,-6.035390
844.0000,1.097376
845.0000,9.459885
846.0000,1.902398
847.0000,7.277928
848.0000,0.388311
849.0000,2.945898
850.0000,16.591322
851.0000,0.792735
852.0000,5.894372
853.0000,8.477790
854.0000,3.735696
855.0000,-4.503653
856.0000,3.786267
857.0000,6.336577
858.0000,-7.394916
859.0000,2.447399
860.0000,-2.800814
861.0000,1.811689
862.0000,-5.227724
863.0000,14.858598
864.0000,6.292166
865.0000,2.213912
866.0000,8.986774
867.0000,4.779412
868.0000,4.966304
869.0000,-13.865568
870.0000,3.191689
871.0000,2.886819
872.0000,-2.141051
873.0000,7.372081
874.0000,-1.272823
875.0000,2.713348
876.0000,-5.582714
877.0000,-10.035006
878.0000,-1.147754
879.0000,2.839397
880.0000,10.229853
881.0000,-1.048596
882.0000,9.414625
883.0000,-5.030967
884.0000,7.889704
885.0000,11.938934
886.0000,3.590838
887.0000,9.834799
888.0000,5.606824
889.0000,11.441828
890.0000,11.598498
891.0000,7.148780
892.0000,3.770587
893.0000,7.850702
894.0000,4.030282
895.0000,-0.064954
896.0000,-0.173626
897.0000,11.840242
898.0000,2.213368
899.0000,10.993693
900.0000,3.441184
901.0000,13.488411
902.0000,6.210465
903.0000,10.747801
904.0000,3.815260
905.0000,12.934151
906.0000,8.343205
907.0000,12.698991
908.0000,9.516422
909.0000,8.602557
910.0000,13.636328
911.0000,16.663860
912.0000,10.609726
913.0000,16.856902
914.0000,23.345294
915.0000,12.988170
916.0000,22.905412
917.0000,19.463313
918.0000,20.009583
919.0000,19.899347
920.0000,14.958747
921.0000,6.582526
922.0000,7.139748
923.0000,19.560807
924.0000,12.802790
925.0000,20.759646
926.0000,13.162709
927.0000,20.164645
928.0000,23.387554
929.0000,23.281676
930.0000,25.665959
931.0000,32.332134
932.0000,21.283365
933.0000,26.133022
934.0000,28.921373
935.0000,26.990883
936.0000,23.442411
937.0000,26.781965
938.0000,40.085226
939.0000,27.196187
940.0000,26.862483
941.0000,39.040099
942.0000,37.891514
943.0000,28.120854
944.0000,31.616246
945.0000,34.871354
946.0000,35.183636
947.0000,42.142504
948.0000,38.254503
949.0000,45.975738
950.0000,49.191805
951.0000,39.015581
952.0000,46.870993
953.0000,38.611228
954.0000,29.878188
955.0000,36.330986
956.0000,37.129371
957.0000,32.092798
958.0000,33.577236
959.0000,41.827750
960.0000,30.191856
961.0000,27.961989
962.0000,30.152223
963.0000,29.720589
964.0000,29.894522
965.0000,41.129421
966.0000,35.308884
967.0000,27.631438
968.0000,27.092025
969.0000,30.363647
970.0000,20.162246
971.0000,31.197499
972.0000,23.584345
973.0000,19.977029
974.0000,8.276316
975.0000,19.911762
976.0000,25.597656
977.0000,24.255422
978.0000,9.812919
979.0000,12.106082
980.0000,13.846381
981.0000,17.063552
982.0000,2.505908
983.0000,7.577651
984.0000,2.699060
985.0000,12.780779
986.0000,9.072549
987.0000,18.146459
988.0000,16.308258
989.0000,16.135407
990.0000,13.949763
991.0000,8.840804
992.0000,15.913704
993.0000,8.118940
994.0000,24.088853
995.0000,11.386310
996.0000,13.968431
997.0000,6.111639
998.0000,5.626774
999.0000,15.366903
1000.0000,9.331324
1001.0000,4.329472
1002.0000,0.669598
1003.0000,3.308667
1004.0000,17.352728
1005.0000,11.377522
1006.0000,-0.902981
1007.0000,-1.752444
1008.0000,-2.837566
1009.0000,-5.472432
1010.0000,2.721994
1011.0000,3.988755
1012.0000,16.525697
1013.0000,7.239809
1014.0000,10.077079
1015.0000,-1.404697
1016.0000,8.864444
1017.0000,8.661813
1018.0000,9.860142
1019.0000,-1.720966
1020.0000,19.130452
1021.0000,11.177901
1022.0000,4.664809
1023.0000,6.836185
1024.0000,0.749412
1025.0000,2.141735
1026.0000,-1.666979
1027.0000,-4.599482
1028.0000,13.737867
1029.0000,-0.810325
1030.0000,6.772232
1031.0000,0.651559
1032.0000,-1.127174
1033.0000,7.320687
1034.0000,8.617267
1035.0000,-6.151682
1036.0000,4.753744
1037.0000,-2.427980
1038.0000,-1.984398
1039.0000,6.091440
1040.0000,4.448935
1041.0000,-4.449764
1042.0000,1.233552
1043.0000,-6.665393
1044.0000,3.190674
1045.0000,9.244254
1046.0000,2.373087
1047.0000,-7.683655
1048.0000,7.372563
1049.0000,5.400716
1050.0000,-12.293839
1051.0000,-0.302062
1052.0000,-4.846916
1053.0000,16.813393
1054.0000,-10.432772
1055.0000,-4.848899
1056.0000,4.594246
1057.0000,-5.870589
1058.0000,3.131684
1059.0000,3.146155
1060.0000,1.350683
1061.0000,1.097550
1062.0000,-6.432097
1063.0000,4.379558
1064.0000,-8.823762
1065.0000,-3.390449
1066.0000,2.804470
1067.0000,0.092004
1068.0000,2.646025
1069.0000,-2.441953
1070.0000,-6.398265
1071.0000,5.197782
1072.0000,-3.212943
1073.0000,1.173743
1074.0000,-0.019584
1075.0000,10.239334
1076.0000,-9.790398
1077.0000,-6.373631
1078.0000,2.191405
1079.0000,7.518367
1080.0000,2.456344
1081.0000,3.033176
1082.0000,2.071091
1083.0000,-6.810256
1084.0000,-9.126061
1085.0000,0.061831
1086.0000,-17.135660
1087.0000,3.981335
1088.0000,-14.864240
1089.0000,-0.009588
1090.0000,2.242102
1091.0000,-1.590245
1092.0000,6.597815
1093.0000,10.349774
1094.0000,10.587842
1095.0000,8.759830
1096.0000,-1.243760
1097.0000,-7.038120
1098.0000,-5.428353
1099.0000,-1.089706
1100.0000,-10.814590
1101.0000,4.893574
1102.0000,8.659464
1103.0000,-5.797327
1104.0000,-4.059588
1105.0000,-4.817185
1106.0000,4.720717
1107.0000,-8.191454
1108.0000,14.108308
1109.0000,7.329636
1110.0000,16.093294
1111.0000,-2.562562
1112.0000,-7.951243
1113.0000,16.906674
1114.0000,-1.397755
1115.0000,8.525997
1116.0000,-0.647280
1117.0000,4.390152
1118.0000,-8.404327
1119.0000,-5.827830
1120.0000,12.627826
1121.0000,-3.824228
1122.0000,-1.018921
1123.0000,-3.804611
1124.0000,-5.314390
1125.0000,-0.036146
1126.0000,-9.845400
1127.0000,12.107865
1128.0000,-0.658124
1129.0000,17.778893
1130.0000,6.955922
1131.0000,3.059550
1132.0000,-12.238672
1133.0000,2.352722
1134.0000,7.639248
1135.0000,-12.048385
1136.0000,-1.310191
1137.0000,6.821229
1138.0000,5.649715
1139.0000,3.448223
1140.0000,3.955927
1141.0000,4.764293
1142.0000,-9.861589
1143.0000,-4.663235
1144.0000,14.229137
1145.0000,3.085305
1146.0000,1.838214
1147.0000,-1.511938
1148.0000,-5.918612
1149.0000,2.970191
1150.0000,-6.810391
1151.0000,2.977414
1152.0000,-11.897946
1153.0000,8.451515
1154.0000,1.972683
1155.0000,0.150474
1156.0000,-3.178191
1157.0000,1.945203
1158.0000,1.977489
1159.0000,-6.730066
1160.0000,-1.491517
1161.0000,-6.839268
1162.0000,4.118471
1163.0000,4.314597
1164.0000,-0.789288
1165.0000,11.740572
1166.0000,-12.091493
1167.0000,-7.680282
1168.0000,-5.017878
1169.0000,5.665543
1170.0000,0.156800
1171.0000,5.702809
1172.0000,6.503797
1173.0000,-0.196836
1174.0000,15.357069
1175.0000,13.116663
1176.0000,-0.643316
1177.0000,5.543829
1178.0000,4.548599
1179.0000,5.848153
1180.0000,-7.913456
1181.0000,5.305700
1182.0000,2.784653
1183.0000,2.906383
1184.0000,-2.557845
1185.0000,1.638178
1186.0000,7.499730
1187.0000,-2.859402
1188.0000,3.292841
1189.0000,-8.530769
1190.0000,-5.508011
1191.0000,-9.777458
1192.0000,1.555217
1193.0000,10.455078
1194.0000,6.096945
1195.0000,10.016128
1196.0000,1.469387
1197.0000,3.653360
1198.0000,0.469817
1199.0000,14.818435
1200.0000,-3.964000
1201.0000,5.434821
1202.0000,5.017857
1203.0000,-3.823129
1204.0000,-1.843708
1205.0000,-8.497161
1206.0000,-4.269101
1207.0000,3.068409
1208.0000,-3.407823
1209.0000,3.379169
1210.0000,5.336686
1211.0000,1.466797
1212.0000,-11.676214
1213.0000,-9.134676
1214.0000,1.782689
1215.0000,-3.318964
1216.0000,-5.247534
1217.0000,3.011866
1218.0000,-3.917734
1219.0000,-8.969287
1220.0000,-4.345621
1221.0000,1.242043
1222.0000,9.919552
1223.0000,4.192408
1224.0000,11.593437
1225.0000,-7.544168
1226.0000,10.020483
1227.0000,-0.058656
1228.0000,-8.666477
1229.0000,-7.608149
1230.0000,-6.756862
1231.0000,6.987574
1232.0000,-2.068446
1233.0000,-2.328670
1234.0000,-3.526488
1235.0000,-4.924186
1236.0000,8.562595
1237.0000,8.477301
1238.0000,-3.386827
1239.0000,-1.709977
1240.0000,-2.305035
1241.0000,-4.195385
1242.0000,8.008510
1243.0000,4.481134
1244.0000,2.985485
1245.0000,8.960291
1246.0000,4.949117
1247.0000,1.325915
1248.0000,1.428073
1249.0000,-7.830335
1250.0000,-0.352183
1251.0000,-1.587076
1252.0000,-2.768209
1253.0000,7.490330
1254.0000,6.134094
1255.0000,-1.740917
1256.0000,3.235637
1257.0000,7.136274
1258.0000,-2.366962
1259.0000,2.883113
1260.0000,6.969315
1261.0000,8.185700
1262.0000,-1.311267
1263.0000,-7.421633
1264.0000,3.633931
1265.0000,4.098881
1266.0000,0.121871
1267.0000,-1.125724
1268.0000,-2.526729
1269.0000,-1.325216
1270.0000,-10.278245
1271.0000,2.345609
1272.0000,0.903664
1273.0000,1.490980
1274.0000,-1.068090
1275.0000,-7.735018
1276.0000,-3.719688
1277.0000,-1.514009
1278.0000,-7.146465
1279.0000,-6.948778
1280.0000,3.595273
1281.0000,3.478201
1282.0000,-2.162345
1283.0000,1.775786
1284.0000,10.703602
1285.0000,-3.121025
1286.0000,-0.780222
1287.0000,-5.914216
1288.0000,2.455086
1289.0000,7.350653
1290.0000,13.393520
1291.0000,-1.443405
1292.0000,-11.971590
1293.0000,4.648632
1294.0000,5.886514
1295.0000,7.941442
1296.0000,0.610266
1297.0000,5.639192
1298.0000,3.255006
1299.0000,8.946655
1300.0000,8.781472
1301.0000,8.401730
1302.0000,0.974043
1303.0000,9.175673
1304.0000,-6.230344
1305.0000,-5.238792
1306.0000,10.278692
1307.0000,-7.204014
1308.0000,-2.418900
1309.0000,-1.608384
1310.0000,-1.103591
1311.0000,4.754649
1312.0000,-2.023543
1313.0000,9.067885
1314.0000,4.041877
1315.0000,1.380650
1316.0000,4.385967
1317.0000,-1.224957
1318.0000,-1.980589
1319.0000,3.123239
1320.0000,7.643696
1321.0000,4.103915
1322.0000,-11.325822
1323.0000,-4.742035
1324.0000,-0.805105
1325.0000,-1.413923
1326.0000,5.063449
1327.0000,-6.633865
1328.0000,-1.221367
1329.0000,-0.848311
1330.0000,6.465468
1331.0000,3.914015
1332.0000,-11.997473
1333.0000,1.826982
1334.0000,0.046254
1335.0000,-2.982576
1336.0000,-1.191530
1337.0000,-14.162248
1338.0000,7.100765
1339.0000,15.476183
1340.0000,-3.750481
1341.0000,4.587033
1342.0000,3.001938
1343.0000,0.159520
1344.0000,11.916334
1345.0000,6.705192
1346.0000,-8.500175
1347.0000,0.235559
1348.0000,-4.477017
1349.0000,-1.603343
1350.0000,-8.919547
1351.0000,-4.100591
1352.0000,-1.778970
1353.0000,1.116756
1354.0000,6.329427
1355.0000,4.241671
1356.0000,-3.232493
1357.0000,3.333357
1358.0000,-3.581688
1359.0000,-11.085840
1360.0000,5.732087
1361.0000,1.838243
1362.0000,5.711528
1363.0000,0.766759
1364.0000,6.265764
1365.0000,3.252115
1366.0000,-7.232622
1367.0000,-10.713081
1368.0000,-4.665700
1369.0000,5.169357
1370.0000,0.284855
1371.0000,-4.779933
1372.0000,-0.903285
1373.0000,1.927724
1374.0000,9.915620
1375.0000,5.191004
1376.0000,-2.722125
1377.0000,5.731646
1378.0000,1.405920
1379.0000,6.666857
1380.0000,-4.142287
1381.0000,-12.740477
1382.0000,-5.953708
1383.0000,6.383103
1384.0000,-1.080108
1385.0000,1.880715
1386.0000,-0.027302
1387.0000,2.040079
1388.0000,0.980054
1389.0000,-0.307826
1390.0000,-4.625213
1391.0000,0.265561
1392.0000,-2.159027
1393.0000,1.563514
1394.0000,-0.098587
1395.0000,-1.955564
1396.0000,3.551045
1397.0000,9.478112
1398.0000,-5.753456
1399.0000,-5.079621
1400.0000,-6.832596
1401.0000,-8.308464
1402.0000,-6.797450
1403.0000,-2.163952
1404.0000,0.852769
1405.0000,-2.389188
1406.0000,-1.667891
1407.0000,10.988173
1408.0000,-2.232394
1409.0000,-0.130707
1410.0000,-1.960291
1411.0000,-6.504626
1412.0000,5.020696
1413.0000,7.105878
1414.0000,-0.372011
1415.0000,14.180662
1416.0000,5.620603
1417.0000,3.726881
1418.0000,-2.941204
1419.0000,4.675449
1420.0000,-0.857194
1421.0000,4.226412
1422.0000,-7.064549
1423.0000,5.208652
1424.0000,-12.876698
1425.0000,9.484552
1426.0000,9.141150
1427.0000,-13.636806
1428.0000,-5.634420
1429.0000,-5.184897
1430.0000,-3.300065
1431.0000,-7.070005
1432.0000,-2.894236
1433.0000,-10.335996
1434.0000,-4.586048
1435.0000,3.421713
1436.0000,12.033486
1437.0000,-0.693443
1438.0000,-1.565231
1439.0000,3.345217
1440.0000,-5.035126
1441.0000,-5.290077
1442.0000,3.351999
1443.0000,6.058708
1444.0000,-3.911025
1445.0000,3.232326
1446.0000,4.964124
1447.0000,-5.005176
1448.0000,-5.654204
1449.0000,-3.750546
1450.0000,-4.066415
1451.0000,5.176338
1452.0000,0.338452
1453.0000,5.261521
1454.0000,-0.312628
1455.0000,-10.918035
1456.0000,-10.587339
1457.0000,1.013657
1458.0000,-7.733957
1459.0000,-0.615730
1460.0000,12.994383
1461.0000,-7.288759
1462.0000,-5.120228
1463.0000,-0.081953
1464.0000,-6.223187
1465.0000,3.505564
1466.0000,3.588535
1467.0000,-6.402548
1468.0000,5.988468
1469.0000,-2.128654
1470.0000,-3.833745
1471.0000,-2.413951
1472.0000,1.840208
1473.0000,-1.551789
1474.0000,7.859760
1475.0000,3.244229
1476.0000,-3.157126
1477.0000,-4.184787
1478.0000,3.147699
1479.0000,-4.328564
1480.0000,-8.071589
1481.0000,-1.618332
1482.0000,1.197160
1483.0000,-0.340189
1484.0000,10.091772
1485.0000,3.938955
1486.0000,-6.668919
1487.0000,-2.317435
1488.0000,-1.318974
1489.0000,5.065891
1490.0000,1.748527
1491.0000,-0.065829
1492.0000,0.018935
1493.0000,-7.973446
1494.0000,5.633617
1495.0000,0.009585
1496.0000,6.100840
1497.0000,-0.497207
1498.0000,0.383237
1499.0000,2.840458
1500.0000,12.772421
1501.0000,-8.189422
1502.0000,-11.040729
1503.0000,-1.102524
1504.0000,6.532260
1505.0000,1.252266
1506.0000,6.582231
1507.0000,-10.852400
1508.0000,4.635760
1509.0000,3.781688
1510.0000,11.157882
1511.0000,-5.620636
1512.0000,3.245767
1513.0000,-1.287170
1514.0000,1.187072
1515.0000,-3.357251
1516.0000,2.935033
1517.0000,0.288459
1518.0000,6.772249
1519.0000,-7.438093
1520.0000,4.440838
1521.0000,1.552898
1522.0000,-4.946645
1523.0000,0.192611
1524.0000,0.919450
1525.0000,9.958524
1526.0000,-3.458849
1527.0000,-2.067760
1528.0000,-5.093565
1529.0000,7.549674
1530.0000,-0.007583
1531.0000,3.041070
1532.0000,-6.827103
1533.0000,-6.997659
1534.0000,4.649685
1535.0000,1.173627
1536.0000,-2.501117
1537.0000,3.055445
1538.0000,-16.989493
1539.0000,-2.868793
1540.0000,-9.812453
1541.0000,-2.060514
1542.0000,3.601606
1543.0000,6.130737
1544.0000,9.688600
1545.0000,-0.523275
1546.0000,1.841671
1547.0000,-2.439985
1548.0000,-9.442635
1549.0000,-5.603008
1550.0000,11.535410
1551.0000,0.768387
1552.0000,-2.611246
1553.0000,-5.799912
1554.0000,7.728788
1555.0000,0.274238
1556.0000,0.123642
1557.0000,-3.057619
1558.0000,-3.547349
1559.0000,-0.932104
1560.0000,-3.279408
1561.0000,-0.324022
1562.0000,-2.016516
1563.0000,1.624781
1564.0000,6.301370
1565.0000,-7.566581
1566.0000,4.463890
1567.0000,0.656972
1568.0000,8.778517
1569.0000,-6.459122
1570.0000,2.066357
1571.0000,-0.123369
1572.0000,-9.071110
1573.0000,6.549063
1574.0000,-6.923627
1575.0000,-1.703442
1576.0000,0.801489
1577.0000,0.266861
1578.0000,-1.290356
1579.0000,-2.042578
1580.0000,6.476574
1581.0000,5.659474
1582.0000,-7.476437
1583.0000,2.455273
1584.0000,1.128178
1585.0000,-3.832768
1586.0000,-4.543688
1587.0000,8.605429
1588.0000,7.565708
1589.0000,-2.341312
1590.0000,-1.480169
1591.0000,-0.093027
1592.0000,7.192429
1593.0000,-6.821099
1594.0000,-0.013854
1595.0000,-2.380088
1596.0000,6.542146
1597.0000,-2.739077
1598.0000,2.853666
1599.0000,-3.856985
1600.0000,1.591109
1601.0000,-6.268401
1602.0000,3.848493
1603.0000,-1.577344
1604.0000,-2.631993
1605.0000,-5.962442
1606.0000,-5.129184
1607.0000,-5.238487
1608.0000,3.179031
1609.0000,-1.371411
1610.0000,-1.550063
1611.0000,2.181118
1612.0000,1.291963
1613.0000,-5.040183
1614.0000,-2.968851
1615.0000,-6.435516
1616.0000,-3.308447
1617.0000,-4.747912
1618.0000,1.651680
1619.0000,-3.719261
1620.0000,9.866809
1621.0000,5.563005
1622.0000,0.003167
1623.0000,3.089254
1624.0000,-4.640665
1625.0000,-4.336405
1626.0000,-2.553748
1627.0000,-10.380967
1628.0000,3.519671
1629.0000,-0.108891
1630.0000,8.569302
1631.0000,-8.841648
1632.0000,8.886066
1633.0000,3.660234
1634.0000,-14.804072
1635.0000,-1.126077
1636.0000,-0.752270
1637.0000,-12.462915
1638.0000,0.233685
1639.0000,-0.069596
1640.0000,2.829972
1641.0000,1.858090
1642.0000,-5.628804
1643.0000,-6.196553
1644.0000,4.042136
1645.0000,1.507471
1646.0000,-4.061393
1647.0000,1.497477
1648.0000,-2.653601
1649.0000,6.694501
1650.0000,6.758003
1651.0000,-8.281085
1652.0000,9.348960
1653.0000,-1.803330
1654.0000,-0.042057
1655.0000,-5.174789
1656.0000,2.327444
1657.0000,-6.647593
1658.0000,-6.393764
1659.0000,0.180455
1660.0000,2.414972
1661.0000,-8.619942
1662.0000,-3.987296
1663.0000,1.450344
1664.0000,5.296894
1665.0000,4.123390
1666.0000,-0.593297
1667.0000,3.142244
1668.0000,0.365508
1669.0000,8.863026
1670.0000,3.170895
1671.0000,6.754475
1672.0000,-2.205314
1673.0000,-0.668383
1674.0000,8.961627
1675.0000,-3.865802
1676.0000,1.157986
1677.0000,2.049440
1678.0000,5.638876
1679.0000,-3.945988
1680.0000,5.041997
1681.0000,-0.687417
1682.0000,-2.661098
1683.0000,6.564581
1684.0000,0.269710
1685.0000,2.049161
1686.0000,2.697289
1687.0000,4.224718
1688.0000,-5.940759
1689.0000,-4.350584
1690.0000,3.935107
1691.0000,7.799526
1692.0000,6.555024
1693.0000,-11.828891
1694.0000,4.122311
1695.0000,4.574630
1696.0000,3.483722
1697.0000,6.252232
1698.0000,1.511837
1699.0000,3.741597
1700.0000,-7.216010
1701.0000,-12.581168
1702.0000,4.957247
1703.0000,2.551966
1704.0000,10.262861
1705.0000,-1.992942
1706.0000,3.067198
1707.0000,-0.063126
1708.0000,-2.515195
1709.0000,-3.922613
1710.0000,12.236404
1711.0000,-1.387129
1712.0000,-3.375379
1713.0000,0.078039
1714.0000,-1.112156
1715.0000,0.734080
1716.0000,2.848872
1717.0000,1.355158
1718.0000,-7.631124
1719.0000,-0.148458
1720.0000,2.675978
1721.0000,-8.645834
1722.0000,-6.477823
1723.0000,8.716372
1724.0000,-1.624742
1725.0000,0.004863
1726.0000,15.973074
1727.0000,3.994239
1728.0000,-6.338957
1729.0000,3.615591
1730.0000,1.105005
1731.0000,2.283347
1732.0000,-11.173672
1733.0000,-11.848406
1734.0000,-6.767881
1735.0000,4.188005
1736.0000,8.931501
1737.0000,-4.542367
1738.0000,0.149876
1739.0000,-5.653270
1740.0000,2.493694
1741.0000,4.675350
1742.0000,-5.168394
1743.0000,3.513775
1744.0000,-8.164718
1745.0000,5.698693
1746.0000,0.107763
1747.0000,3.493204
1748.0000,7.015789
1749.0000,-0.288130
1750.0000,-0.552876
1751.0000,-12.799607
1752.0000,4.699709
1753.0000,-8.679886
1754.0000,-4.203736
1755.0000,-1.615347
1756.0000,6.617562
1757.0000,-3.122894
1758.0000,5.308279
1759.0000,4.172789
1760.0000,-0.070000
1761.0000,2.645576
1762.0000,3.993722
1763.0000,-6.129292
1764.0000,4.388584
1765.0000,-3.033690
1766.0000,7.885691
1767.0000,13.424222
1768.0000,-3.004054
1769.0000,-4.870042
1770.0000,-14.675847
1771.0000,-5.136965
1772.0000,4.190764
1773.0000,-2.338506
1774.0000,-1.252541
1775.0000,-2.047441
1776.0000,7.165972
1777.0000,1.423286
1778.0000,-0.218781
1779.0000,2.089827
1780.0000,11.618241
1781.0000,14.025190
1782.0000,0.491450
1783.0000,-6.333478
1784.0000,-11.122912
1785.0000,-0.565247
1786.0000,0.116649
1787.0000,4.017008
1788.0000,6.066659
1789.0000,3.218552
1790.0000,-3.689703
1791.0000,3.197624
1792.0000,3.705846
1793.0000,-6.851571
1794.0000,6.671168
1795.0000,0.132240
1796.0000,-2.597478
1797.0000,-3.309376
1798.0000,2.444655
1799.0000,-2.986018
1800.0000,5.071250
1801.0000,-6.453303
1802.0000,-4.370710
1803.0000,6.373801
1804.0000,10.644822
1805.0000,-1.448772
1806.0000,-6.169127
1807.0000,-1.286431
1808.0000,2.248179
1809.0000,1.037301
1810.0000,2.043694
1811.0000,-2.219620
1812.0000,-1.480850
1813.0000,-6.782830
1814.0000,-4.308216
1815.0000,7.511252
1816.0000,-7.862217
1817.0000,-7.957408
1818.0000,6.312715
1819.0000,4.390580
1820.0000,-2.001244
1821.0000,-8.551126
1822.0000,-4.268347
1823.0000,-0.435227
1824.0000,-0.391851
1825.0000,1.757983
1826.0000,3.814009
1827.0000,7.767051
1828.0000,4.922283
1829.0000,3.079100
1830.0000,14.529672
1831.0000,4.065087
1832.0000,-0.520316
1833.0000,-2.749096
1834.0000,12.587169
1835.0000,4.212306
1836.0000,-3.923061
1837.0000,-5.433136
1838.0000,-1.414525
1839.0000,6.928723
1840.0000,-2.134198
1841.0000,1.581289
1842.0000,8.415767
1843.0000,-6.775115
1844.0000,2.004459
1845.0000,2.350875
1846.0000,-7.554053
1847.0000,3.266879
1848.0000,-7.793504
1849.0000,-1.287291
1850.0000,0.332502
1851.0000,2.327048
1852.0000,3.944865
1853.0000,5.881006
1854.0000,1.958627
1855.0000,-4.145609
1856.0000,-0.067954
1857.0000,-3.745428
1858.0000,3.637782
1859.0000,-3.810354
1860.0000,-19.307895
1861.0000,13.472871
1862.0000,5.201343
1863.0000,-1.826989
1864.0000,5.183152
1865.0000,-10.034558
1866.0000,6.713376
1867.0000,-4.867206
1868.0000,-2.784766
1869.0000,12.839254
1870.0000,2.303772
1871.0000,8.382797
1872.0000,-14.056485
1873.0000,4.220104
1874.0000,3.997261
1875.0000,2.599076
1876.0000,-0.163545
1877.0000,5.795826
1878.0000,5.836929
1879.0000,-7.359430
1880.0000,3.617490
1881.0000,0.340493
1882.0000,-4.001701
1883.0000,-3.987352
1884.0000,4.071711
1885.0000,-2.269639
1886.0000,2.143664
1887.0000,-12.366772
1888.0000,-0.363296
1889.0000,1.051848
1890.0000,-3.506838
1891.0000,-11.679517
1892.0000,0.292356
1893.0000,-0.162782
1894.0000,2.497966
1895.0000,-3.626090
1896.0000,1.350848
1897.0000,-1.015916
1898.0000,1.776276
1899.0000,8.608134
1900.0000,2.953700
1901.0000,6.083549
1902.0000,9.148872
1903.0000,-5.700279
1904.0000,-0.274800
1905.0000,4.392939
1906.0000,0.676210
1907.0000,-2.493828
1908.0000,1.407775
1909.0000,-2.541959
1910.0000,5.067926
1911.0000,23.235399
1912.0000,8.012055
1913.0000,-2.730657
1914.0000,-6.474514
1915.0000,8.950276
1916.0000,-5.475431
1917.0000,13.999480
1918.0000,-8.150460
1919.0000,2.124612
1920.0000,-3.198389
1921.0000,4.555491
1922.0000,0.903908
1923.0000,3.770579
1924.0000,2.592130
1925.0000,-2.372286
1926.0000,-7.556294
1927.0000,-5.396420
1928.0000,1.815661
1929.0000,-3.862742
1930.0000,-2.750422
1931.0000,1.187245
1932.0000,8.609746
1933.0000,-4.465597
1934.0000,0.001946
1935.0000,-10.292253
1936.0000,6.506967
1937.0000,-0.904664
1938.0000,6.427337
1939.0000,-4.168118
1940.0000,5.040754
1941.0000,-9.427665
1942.0000,6.435213
1943.0000,3.476284
1944.0000,-7.148282
1945.0000,-13.266239
1946.0000,0.227399
1947.0000,-3.514469
1948.0000,-5.808812
1949.0000,-12.893456
1950.0000,-1.877605
1951.0000,12.272360
1952.0000,3.733162
1953.0000,-0.741916
1954.0000,0.750808
1955.0000,-2.836729
1956.0000,2.541333
1957.0000,0.409021
1958.0000,2.773743
1959.0000,2.131279
1960.0000,0.039892
1961.0000,-7.484084
1962.0000,-20.609342
1963.0000,-0.059588
1964.0000,8.552790
1965.0000,-4.906692
1966.0000,-5.057892
1967.0000,-11.453928
1968.0000,-2.855997
1969.0000,1.759843
1970.0000,-4.043606
1971.0000,-8.414987
1972.0000,-4.677515
1973.0000,-7.028979
1974.0000,-9.178072
1975.0000,2.650799
1976.0000,-2.308411
1977.0000,3.299289
1978.0000,0.978473
1979.0000,5.692975
1980.0000,-5.511017
1981.0000,-3.738014
1982.0000,2.525229
1983.0000,9.217868
1984.0000,5.550226
1985.0000,0.735013
1986.0000,-4.802258
1987.0000,5.908619
1988.0000,5.141561
1989.0000,10.898699
1990.0000,4.372212
1991.0000,-2.881106
1992.0000,-2.622577
1993.0000,-9.896979
1994.0000,13.067032
1995.0000,-5.749281
1996.0000,-6.023546
1997.0000,-10.201827
1998.0000,3.461676
1999.0000,4.528986
2000.0000,5.813189
