raman_shift_cm-1,intensity
200.000000,0.006596685437
201.000000,0.007400153902
202.000000,0.007351448497
203.000000,0.009370651258
204.000000,0.005448947156
205.000000,0.009696541918
206.000000,0.008160105057
207.000000,0.0118619923
208.000000,0.01198871606
209.000000,0.01285976893
210.000000,0.01161042483
211.000000,0.009969658444
212.000000,0.01179554064
213.000000,0.01308715092
214.000000,0.008769236768
215.000000,0.01129736666
216.000000,0.009991556549
217.000000,0.01295717882
218.000000,0.008403597819
219.000000,0.009474538477
220.000000,0.01080255407
221.000000,0.01059434398
222.000000,0.006799475453
223.000000,0.01079893116
224.000000,0.009841876024
225.000000,0.009599627859
226.000000,0.009768773792
227.000000,0.01051757552
228.000000,0.006447097232
229.000000,0.0131850796
230.000000,0.00835752249
231.000000,0.005597930984
232.000000,0.009916980074
233.000000,0.01299615377
234.000000,0.009044256392
235.000000,0.01318427651
236.000000,0.01319587776
237.000000,0.008356799978
238.000000,0.005152293813
239.000000,0.007612443154
240.000000,0.01245794794
241.000000,0.008449815603
242.000000,0.007062283057
243.000000,0.007408528426
244.000000,0.01008455946
245.000000,0.01003226529
246.000000,0.01182885686
247.000000,0.01206315346
248.000000,0.008220843684
249.000000,0.009772114283
250.000000,0.007818054096
251.000000,0.01022999821
252.000000,0.007785296497
253.000000,0.007686306106
254.000000,0.01433395198
255.000000,0.01015218663
256.000000,0.01137406867
257.000000,0.01516421267
258.000000,0.01165999992
259.000000,0.009860345332
260.000000,0.01019812063
261.000000,0.008600268931
262.000000,0.01227824385
263.000000,0.009429325676
264.000000,0.01361569218
265.000000,0.009401004149
266.000000,0.009383597508
267.000000,0.009252412771
268.000000,0.01134288161
269.000000,0.01046569436
270.000000,0.01283501754
271.000000,0.00898578611
272.000000,0.01067329644
273.000000,0.0139690806
274.000000,0.009612732934
275.000000,0.0111590633
276.000000,0.01323794584
277.000000,0.01120141884
278.000000,0.008825865161
279.000000,0.005970525988
280.000000,0.01488190618
281.000000,0.01095656268
282.000000,0.0126173495
283.000000,0.009144024653
284.000000,0.01373397765
285.000000,0.01113645784
286.000000,0.01019734141
287.000000,0.008294482049
288.000000,0.01083485832
289.000000,0.009125803819
290.000000,0.00965370312
291.000000,0.006854600056
292.000000,0.009118896684
293.000000,0.01042014814
294.000000,0.007599165974
295.000000,0.01024896226
296.000000,0.01142815071
297.000000,0.009488439566
298.000000,0.008860790437
299.000000,0.008862512537
300.000000,0.01198545056
301.000000,0.007034563794
302.000000,0.009503081977
303.000000,0.009265588399
304.000000,0.01039280955
305.000000,0.009966095185
306.000000,0.007890646006
307.000000,0.01418626336
308.000000,0.01046173713
309.000000,0.007422869312
310.000000,0.008324514653
311.000000,0.01030299014
312.000000,0.01133420237
313.000000,0.0074243978
314.000000,0.01153183047
315.000000,0.007363024736
316.000000,0.008521286841
317.000000,0.01181672613
318.000000,0.01351298067
319.000000,0.009942036624
320.000000,0.009492844884
321.000000,0.0126481938
322.000000,0.007968914801
323.000000,0.01066919703
324.000000,0.01058032907
325.000000,0.01213296981
326.000000,0.01071197539
327.000000,0.009582525977
328.000000,0.01134492389
329.000000,0.007863189075
330.000000,0.01174497978
331.000000,0.008771986115
332.000000,0.00829712369
333.000000,0.009383083266
334.000000,0.01021090373
335.000000,0.01154060177
336.000000,0.009694622052
337.000000,0.01159194696
338.000000,0.01207120855
339.000000,0.0099100728
340.000000,0.008159047607
341.000000,0.01196220005
342.000000,0.0106741551
343.000000,0.005893437022
344.000000,0.008147817086
345.000000,0.01041129294
346.000000,0.007381738639
347.000000,0.00876329449
348.000000,0.006700880667
349.000000,0.01093184748
350.000000,0.01061095637
351.000000,0.01048077773
352.000000,0.01302408576
353.000000,0.009424550815
354.000000,0.009552015785
355.000000,0.01417085027
356.000000,0.007529910946
357.000000,0.01159060159
358.000000,0.007502727385
359.000000,0.01060608257
360.000000,0.01436579271
361.000000,0.01067760202
362.000000,0.008591913033
363.000000,0.0149046655
364.000000,0.009049271713
365.000000,0.009725208914
366.000000,0.01074703994
367.000000,0.007453865884
368.000000,0.01236989995
369.000000,0.01337806733
370.000000,0.01165866952
371.000000,0.01080258754
372.000000,0.00984400475
373.000000,0.01191681306
374.000000,0.00384393435
375.000000,0.009895306745
376.000000,0.01065786254
377.000000,0.006175322075
378.000000,0.0109994962
379.000000,0.009892938402
380.000000,0.01007961119
381.000000,0.01035232839
382.000000,0.0113006309
383.000000,0.01106710118
384.000000,0.008077299749
385.000000,0.009918915926
386.000000,0.009789488057
387.000000,0.01023138321
388.000000,0.008973218321
389.000000,0.01209598037
390.000000,0.01276625015
391.000000,0.01320144322
392.000000,0.01397024797
393.000000,0.01314641416
394.000000,0.00924090884
395.000000,0.008932947608
396.000000,0.009367362879
397.000000,0.01128046755
398.000000,0.009904889377
399.000000,0.01214770868
400.000000,0.0134672862
401.000000,0.009306973464
402.000000,0.01212791532
403.000000,0.009383625605
404.000000,0.007637547079
405.000000,0.007633893703
406.000000,0.009534372149
407.000000,0.00637549243
408.000000,0.01117339056
409.000000,0.0131972195
410.000000,0.007846834013
411.000000,0.009509443857
412.000000,0.01326631578
413.000000,0.0108748038
414.000000,0.0105728275
415.000000,0.009659594744
416.000000,0.01222116306
417.000000,0.01084352744
418.000000,0.008017879439
419.000000,0.005323295478
420.000000,0.004825340051
421.000000,0.01150532576
422.000000,0.009659088067
423.000000,0.01308880701
424.000000,0.01121384346
425.000000,0.007651104243
426.000000,0.01077729713
427.000000,0.01258160101
428.000000,0.008395740868
429.000000,0.009183164149
430.000000,0.01368403645
431.000000,0.006710710234
432.000000,0.008024371895
433.000000,0.01230649663
434.000000,0.01060589965
435.000000,0.007924438251
436.000000,0.007300461847
437.000000,0.01113941624
438.000000,0.01264262166
439.000000,0.01186884972
440.000000,0.01103967217
441.000000,0.01320989199
442.000000,0.0108428988
443.000000,0.008557350584
444.000000,0.01428778242
445.000000,0.007757655235
446.000000,0.009958453982
447.000000,0.01008319031
448.000000,0.01309341836
449.000000,0.008705587655
450.000000,0.009681430375
451.000000,0.006675963026
452.000000,0.01091378011
453.000000,0.0111310002
454.000000,0.01154402531
455.000000,0.008391229981
456.000000,0.010719482
457.000000,0.008480559192
458.000000,0.00929273697
459.000000,0.01009597514
460.000000,0.01284062361
461.000000,0.009376999711
462.000000,0.01060777722
463.000000,0.008567269795
464.000000,0.00911791519
465.000000,0.008856492928
466.000000,0.009943199663
467.000000,0.01179550551
468.000000,0.00805167011
469.000000,0.01170229828
470.000000,0.00836155964
471.000000,0.01093609252
472.000000,0.009163029592
473.000000,0.009663030666
474.000000,0.009485968547
475.000000,0.01246727374
476.000000,0.01077498013
477.000000,0.01241097325
478.000000,0.009535204521
479.000000,0.009788547939
480.000000,0.01349292826
481.000000,0.006970450523
482.000000,0.008511681392
483.000000,0.009914966671
484.000000,0.01391674504
485.000000,0.00905794171
486.000000,0.01186813345
487.000000,0.01344847678
488.000000,0.009813739238
489.000000,0.009942469045
490.000000,0.01363536971
491.000000,0.00918934661
492.000000,0.008193589769
493.000000,0.01196087168
494.000000,0.009275313937
495.000000,0.01290769404
496.000000,0.01139474913
497.000000,0.006812259294
498.000000,0.0108832528
499.000000,0.01035280265
500.000000,0.00900730322
501.000000,0.01254796917
502.000000,0.006800110445
503.000000,0.007840791168
504.000000,0.0093591723
505.000000,0.01194377159
506.000000,0.007277829729
507.000000,0.009090115883
508.000000,0.008937837319
509.000000,0.007348953836
510.000000,0.0096002356
511.000000,0.008074701908
512.000000,0.009474470746
513.000000,0.01095630999
514.000000,0.008558768106
515.000000,0.008643862243
516.000000,0.008416145152
517.000000,0.008700047537
518.000000,0.007264463142
519.000000,0.008048884019
520.000000,0.0106638978
521.000000,0.008668858009
522.000000,0.0169936555
523.000000,0.008814351569
524.000000,0.01137520121
525.000000,0.007447892712
526.000000,0.009936368292
527.000000,0.009388580303
528.000000,0.01033772341
529.000000,0.01318027308
530.000000,0.01018516833
531.000000,0.008112175938
532.000000,0.01079072756
533.000000,0.008627738005
534.000000,0.01034142186
535.000000,0.01380581069
536.000000,0.012533044
537.000000,0.0128200817
538.000000,0.01174201978
539.000000,0.01065043308
540.000000,0.007612450166
541.000000,0.009774208793
542.000000,0.00967792946
543.000000,0.01212789046
544.000000,0.01278172177
545.000000,0.01176741073
546.000000,0.009229543027
547.000000,0.01454872474
548.000000,0.01370733041
549.000000,0.01045300675
550.000000,0.01130404922
551.000000,0.01221280505
552.000000,0.01116341314
553.000000,0.01078296144
554.000000,0.01199435245
555.000000,0.01105294953
556.000000,0.01146859962
557.000000,0.007866407982
558.000000,0.007904435767
559.000000,0.01463375811
560.000000,0.008140377562
561.000000,0.01219477219
562.000000,0.01189804748
563.000000,0.01174119513
564.000000,0.009949892569
565.000000,0.0134117697
566.000000,0.01212771183
567.000000,0.01078933975
568.000000,0.008709940045
569.000000,0.01111858651
570.000000,0.0104368867
571.000000,0.009178381062
572.000000,0.01252117868
573.000000,0.01299252987
574.000000,0.01357008458
575.000000,0.01222463798
576.000000,0.01158171408
577.000000,0.01444449372
578.000000,0.01380692865
579.000000,0.016982715
580.000000,0.01360381445
581.000000,0.01073043852
582.000000,0.01466854061
583.000000,0.01754128672
584.000000,0.0135727455
585.000000,0.01282093945
586.000000,0.01216869225
587.000000,0.01738123031
588.000000,0.01339295437
589.000000,0.01350332348
590.000000,0.0148570252
591.000000,0.01167459442
592.000000,0.01428131335
593.000000,0.01262467784
594.000000,0.01525435397
595.000000,0.0169535987
596.000000,0.01828255141
597.000000,0.01611502822
598.000000,0.01919445353
599.000000,0.0174407594
600.000000,0.01568608884
601.000000,0.02104066451
602.000000,0.02051076921
603.000000,0.02234740711
604.000000,0.01828913569
605.000000,0.02564398224
606.000000,0.02771379672
607.000000,0.03012087091
608.000000,0.03464912342
609.000000,0.03545975923
610.000000,0.04500208772
611.000000,0.04785071789
612.000000,0.05475836261
613.000000,0.05804043619
614.000000,0.07126359582
615.000000,0.09397302565
616.000000,0.111758079
617.000000,0.1369109412
618.000000,0.1599850853
619.000000,0.1817344723
620.000000,0.1916313789
621.000000,0.180407933
622.000000,0.1634327678
623.000000,0.1328736244
624.000000,0.1114844471
625.000000,0.09050989051
626.000000,0.07601982282
627.000000,0.0656533713
628.000000,0.05154967197
629.000000,0.04744870446
630.000000,0.04110325527
631.000000,0.03804999767
632.000000,0.03270839536
633.000000,0.02884534978
634.000000,0.02843578888
635.000000,0.02811263653
636.000000,0.02541647739
637.000000,0.02269169925
638.000000,0.02203731684
639.000000,0.01707702062
640.000000,0.01819646369
641.000000,0.01800653516
642.000000,0.01676633485
643.000000,0.01584979005
644.000000,0.01663610212
645.000000,0.01707196297
646.000000,0.01973948061
647.000000,0.01408845052
648.000000,0.01334177608
649.000000,0.0168566361
650.000000,0.01490525412
651.000000,0.01257347618
652.000000,0.01719327619
653.000000,0.01351067519
654.000000,0.01308990108
655.000000,0.01234349856
656.000000,0.01157283724
657.000000,0.0134726663
658.000000,0.01122215151
659.000000,0.01792392391
660.000000,0.01356336305
661.000000,0.01229103092
662.000000,0.01113777455
663.000000,0.01310131546
664.000000,0.01449095409
665.000000,0.01289857146
666.000000,0.01005388868
667.000000,0.01180428796
668.000000,0.008788461725
669.000000,0.01500433303
670.000000,0.0134440485
671.000000,0.01244001011
672.000000,0.01256097351
673.000000,0.01079545812
674.000000,0.01159726165
675.000000,0.01377176064
676.000000,0.01172461521
677.000000,0.01295568397
678.000000,0.01218604549
679.000000,0.01217976989
680.000000,0.01232546472
681.000000,0.01374329356
682.000000,0.01105652274
683.000000,0.01297698056
684.000000,0.01001717154
685.000000,0.01041668709
686.000000,0.01012923567
687.000000,0.01325211568
688.000000,0.01092866887
689.000000,0.0139716653
690.000000,0.009467891629
691.000000,0.01226697295
692.000000,0.009174736024
693.000000,0.01372109706
694.000000,0.01008096457
695.000000,0.01237039121
696.000000,0.01007445383
697.000000,0.009911884317
698.000000,0.01191794811
699.000000,0.007998194591
700.000000,0.009039057501
701.000000,0.01444053969
702.000000,0.009773087399
703.000000,0.01304257521
704.000000,0.009689366837
705.000000,0.008127725137
706.000000,0.01058013568
707.000000,0.01313681215
708.000000,0.01135432417
709.000000,0.01081622396
710.000000,0.0131176462
711.000000,0.0098907388
712.000000,0.01285764054
713.000000,0.01203914207
714.000000,0.009364117763
715.000000,0.01326949572
716.000000,0.01366978277
717.000000,0.01094262332
718.000000,0.01167516242
719.000000,0.01088270544
720.000000,0.009206936587
721.000000,0.01304035782
722.000000,0.009450875902
723.000000,0.01252947342
724.000000,0.01042476404
725.000000,0.009446209608
726.000000,0.01274118606
727.000000,0.01199718917
728.000000,0.01523790735
729.000000,0.01142591632
730.000000,0.01188667544
731.000000,0.01184192293
732.000000,0.01113577742
733.000000,0.01429395076
734.000000,0.01469673249
735.000000,0.01308063444
736.000000,0.009737089608
737.000000,0.01269009338
738.000000,0.01194194892
739.000000,0.01096454902
740.000000,0.008800924442
741.000000,0.01371274899
742.000000,0.01438842967
743.000000,0.012658644
744.000000,0.01299643246
745.000000,0.01565402037
746.000000,0.01606424848
747.000000,0.01269838421
748.000000,0.006613011253
749.000000,0.01381002482
750.000000,0.01276229958
751.000000,0.01390418817
752.000000,0.01158333496
753.000000,0.01070278945
754.000000,0.01381766454
755.000000,0.01230168564
756.000000,0.01321403901
757.000000,0.01395841787
758.000000,0.0134569613
759.000000,0.01051358517
760.000000,0.01468259896
761.000000,0.01271918997
762.000000,0.01344833757
763.000000,0.01490840584
764.000000,0.01136693154
765.000000,0.01396812232
766.000000,0.01110018306
767.000000,0.01391531672
768.000000,0.01601402879
769.000000,0.01539127011
770.000000,0.01549078961
771.000000,0.01762501242
772.000000,0.01614714207
773.000000,0.01430396153
774.000000,0.0202292022
775.000000,0.0192130969
776.000000,0.02117006683
777.000000,0.01970311464
778.000000,0.02072020579
779.000000,0.02134808931
780.000000,0.02043929609
781.000000,0.02506409246
782.000000,0.02683158952
783.000000,0.03361839394
784.000000,0.02958439121
785.000000,0.03697623006
786.000000,0.04084321008
787.000000,0.04626521786
788.000000,0.05246221025
789.000000,0.06083932211
790.000000,0.07111754686
791.000000,0.07631998708
792.000000,0.09204615925
793.000000,0.09981377274
794.000000,0.1056941772
795.000000,0.1066469448
796.000000,0.1040052709
797.000000,0.1001926706
798.000000,0.08809543308
799.000000,0.07731673598
800.000000,0.06836217446
801.000000,0.06037277328
802.000000,0.05174928371
803.000000,0.04407691288
804.000000,0.03986376214
805.000000,0.03647152352
806.000000,0.0311896052
807.000000,0.03217012092
808.000000,0.03046855937
809.000000,0.02847920981
810.000000,0.02354276251
811.000000,0.02204736135
812.000000,0.01965581386
813.000000,0.02316422077
814.000000,0.0185431094
815.000000,0.02303146469
816.000000,0.01391900174
817.000000,0.01781995927
818.000000,0.0178284894
819.000000,0.0163552529
820.000000,0.01708196894
821.000000,0.01951588169
822.000000,0.01510992159
823.000000,0.01652749717
824.000000,0.01371546682
825.000000,0.01186010225
826.000000,0.012020673
827.000000,0.01559651846
828.000000,0.01437225575
829.000000,0.01070150646
830.000000,0.01403326593
831.000000,0.01446789672
832.000000,0.01410616297
833.000000,0.01526620555
834.000000,0.01000298114
835.000000,0.01092224886
836.000000,0.01057382875
837.000000,0.01291404524
838.000000,0.01514946805
839.000000,0.01159375682
840.000000,0.01308836859
841.000000,0.01407137377
842.000000,0.01136415314
843.000000,0.013832967
844.000000,0.01193894987
845.000000,0.01564929895
846.000000,0.01487459739
847.000000,0.01115156847
848.000000,0.01094011568
849.000000,0.01565286395
850.000000,0.01021218373
851.000000,0.01422544142
852.000000,0.01106839839
853.000000,0.009555089169
854.000000,0.01528247123
855.000000,0.0126834244
856.000000,0.009729203938
857.000000,0.01129815662
858.000000,0.01029041198
859.000000,0.009804458702
860.000000,0.01150481565
861.000000,0.01387981391
862.000000,0.008862449368
863.000000,0.01265806006
864.000000,0.008751607074
865.000000,0.01149513351
866.000000,0.008737956187
867.000000,0.008936605741
868.000000,0.01021187339
869.000000,0.01354558565
870.000000,0.01321148348
871.000000,0.0112591038
872.000000,0.01088973829
873.000000,0.01174977973
874.000000,0.017141148
875.000000,0.01220473329
876.000000,0.01124805789
877.000000,0.01054231059
878.000000,0.01088470854
879.000000,0.01274453597
880.000000,0.01266285891
881.000000,0.006739535193
882.000000,0.01570877684
883.000000,0.01240039303
884.000000,0.01133011692
885.000000,0.01688015643
886.000000,0.008440922498
887.000000,0.009037580347
888.000000,0.01378160283
889.000000,0.01155611703
890.000000,0.01333206988
891.000000,0.0140259065
892.000000,0.01523830402
893.000000,0.01292686131
894.000000,0.01033448049
895.000000,0.00826764145
896.000000,0.01190396511
897.000000,0.008127609676
898.000000,0.01177965755
899.000000,0.0100768348
900.000000,0.01245438049
901.000000,0.0130977082
902.000000,0.01164052686
903.000000,0.008983529418
904.000000,0.01205580329
905.000000,0.01033013466
906.000000,0.01242219971
907.000000,0.0109056322
908.000000,0.01651829978
909.000000,0.01076965608
910.000000,0.00803129279
911.000000,0.01008695325
912.000000,0.01211006386
913.000000,0.01754231393
914.000000,0.01481372239
915.000000,0.01084346886
916.000000,0.01207739095
917.000000,0.009682704437
918.000000,0.00919764636
919.000000,0.0140541546
920.000000,0.01303395994
921.000000,0.01072974741
922.000000,0.01084113817
923.000000,0.01318213527
924.000000,0.01373245581
925.000000,0.01080060255
926.000000,0.009020214859
927.000000,0.01432002746
928.000000,0.01108686692
929.000000,0.008941088957
930.000000,0.01229449952
931.000000,0.01316173485
932.000000,0.01473274732
933.000000,0.01198778367
934.000000,0.01348959675
935.000000,0.01045051963
936.000000,0.01401333257
937.000000,0.01005067294
938.000000,0.01445538834
939.000000,0.01365987314
940.000000,0.01034559778
941.000000,0.01223575161
942.000000,0.01693712733
943.000000,0.0115716792
944.000000,0.0104939866
945.000000,0.01334358256
946.000000,0.01437865564
947.000000,0.01581844359
948.000000,0.01401153805
949.000000,0.01351133686
950.000000,0.01412640181
951.000000,0.01630786836
952.000000,0.01456149295
953.000000,0.01622091103
954.000000,0.01169163222
955.000000,0.01476403877
956.000000,0.0155238598
957.000000,0.01800883518
958.000000,0.01709839619
959.000000,0.01686326489
960.000000,0.01888649718
961.000000,0.01735350338
962.000000,0.02366325514
963.000000,0.01584342352
964.000000,0.01829829626
965.000000,0.02216011902
966.000000,0.0204622534
967.000000,0.01999234185
968.000000,0.02190992134
969.000000,0.01949899878
970.000000,0.02128648106
971.000000,0.02207848295
972.000000,0.02637120601
973.000000,0.02393695581
974.000000,0.02836146721
975.000000,0.02512848041
976.000000,0.02683542071
977.000000,0.02412362988
978.000000,0.03022846881
979.000000,0.02657743447
980.000000,0.03373643707
981.000000,0.03644265237
982.000000,0.03768155032
983.000000,0.03754763805
984.000000,0.04235547365
985.000000,0.04144531103
986.000000,0.04994325956
987.000000,0.05742069157
988.000000,0.06373592526
989.000000,0.07137572943
990.000000,0.08529945169
991.000000,0.09686009878
992.000000,0.1137461327
993.000000,0.1375954309
994.000000,0.1671428412
995.000000,0.2139601763
996.000000,0.2753028691
997.000000,0.3692248236
998.000000,0.5143375324
999.000000,0.7095074024
1000.000000,0.9134372369
1001.000000,1.016792155
1002.000000,0.9128788361
1003.000000,0.7090866692
1004.000000,0.5173504447
1005.000000,0.3778385229
1006.000000,0.2802531587
1007.000000,0.2202392767
1008.000000,0.1764656412
1009.000000,0.1451392008
1010.000000,0.1263325856
1011.000000,0.1047448963
1012.000000,0.09381782243
1013.000000,0.08699771724
1014.000000,0.07536989279
1015.000000,0.07167818247
1016.000000,0.07280163944
1017.000000,0.06841966953
1018.000000,0.06742667786
1019.000000,0.07140381181
1020.000000,0.07066822535
1021.000000,0.07860044813
1022.000000,0.08356077181
1023.000000,0.09489819022
1024.000000,0.1058631065
1025.000000,0.1329304026
1026.000000,0.1633039984
1027.000000,0.2053993486
1028.000000,0.2634739992
1029.000000,0.3389386643
1030.000000,0.4123701858
1031.000000,0.4421863917
1032.000000,0.4066786994
1033.000000,0.336353481
1034.000000,0.260352218
1035.000000,0.2014873097
1036.000000,0.1543591328
1037.000000,0.1270915029
1038.000000,0.09953459356
1039.000000,0.08224290288
1040.000000,0.07234850814
1041.000000,0.0653331705
1042.000000,0.05116712452
1043.000000,0.04874565543
1044.000000,0.04512650624
1045.000000,0.04539730634
1046.000000,0.03373905395
1047.000000,0.03634038018
1048.000000,0.03033216213
1049.000000,0.02920272832
1050.000000,0.03012142168
1051.000000,0.02686837219
1052.000000,0.02276013544
1053.000000,0.02395082509
1054.000000,0.02263431597
1055.000000,0.0229023747
1056.000000,0.01987194161
1057.000000,0.01967181654
1058.000000,0.01975593261
1059.000000,0.01991707665
1060.000000,0.0190118782
1061.000000,0.01975129536
1062.000000,0.0197482319
1063.000000,0.0187297721
1064.000000,0.01638910922
1065.000000,0.0142684584
1066.000000,0.01529299052
1067.000000,0.01542115723
1068.000000,0.01600336094
1069.000000,0.01811057059
1070.000000,0.01588617332
1071.000000,0.01391189093
1072.000000,0.01298544033
1073.000000,0.01520152408
1074.000000,0.01475629795
1075.000000,0.01297462577
1076.000000,0.01166650847
1077.000000,0.0141313096
1078.000000,0.01547700951
1079.000000,0.01500000391
1080.000000,0.0115579516
1081.000000,0.01349502433
1082.000000,0.01388763537
1083.000000,0.01225160729
1084.000000,0.01393658048
1085.000000,0.0127514614
1086.000000,0.01582048858
1087.000000,0.01260060532
1088.000000,0.01710493724
1089.000000,0.01584856087
1090.000000,0.01456442837
1091.000000,0.01429593125
1092.000000,0.01657474988
1093.000000,0.01301774406
1094.000000,0.01456766356
1095.000000,0.01321754213
1096.000000,0.01677381932
1097.000000,0.01308831969
1098.000000,0.01317625274
1099.000000,0.008390433832
1100.000000,0.01416356071
1101.000000,0.01295099896
1102.000000,0.01481328494
1103.000000,0.01075206283
1104.000000,0.0119615396
1105.000000,0.01634414049
1106.000000,0.01221551563
1107.000000,0.01417933699
1108.000000,0.01565443668
1109.000000,0.0140273611
1110.000000,0.01404226596
1111.000000,0.0164010208
1112.000000,0.01297778812
1113.000000,0.01526660096
1114.000000,0.01365947391
1115.000000,0.01203016269
1116.000000,0.01447848995
1117.000000,0.01715918262
1118.000000,0.01427852609
1119.000000,0.01335623168
1120.000000,0.01448429935
1121.000000,0.01408733495
1122.000000,0.01625464003
1123.000000,0.01341897694
1124.000000,0.01744403975
1125.000000,0.01670769098
1126.000000,0.01859583438
1127.000000,0.01551846031
1128.000000,0.01864534428
1129.000000,0.01512598537
1130.000000,0.01873585748
1131.000000,0.01753034908
1132.000000,0.0162525421
1133.000000,0.02065532013
1134.000000,0.02264318232
1135.000000,0.0240634581
1136.000000,0.02225228077
1137.000000,0.02185952774
1138.000000,0.02645202283
1139.000000,0.0229415122
1140.000000,0.02671238072
1141.000000,0.02535038528
1142.000000,0.03085802308
1143.000000,0.03381384554
1144.000000,0.03581174408
1145.000000,0.04282060909
1146.000000,0.04556384785
1147.000000,0.05316427213
1148.000000,0.06135694854
1149.000000,0.07021425906
1150.000000,0.07806277592
1151.000000,0.09785713332
1152.000000,0.1167231126
1153.000000,0.1322627355
1154.000000,0.1484961013
1155.000000,0.150974609
1156.000000,0.1500456139
1157.000000,0.136349364
1158.000000,0.1184299426
1159.000000,0.09937387877
1160.000000,0.08589986387
1161.000000,0.07055191227
1162.000000,0.06186725717
1163.000000,0.05681794211
1164.000000,0.04888585353
1165.000000,0.04539805079
1166.000000,0.04261743196
1167.000000,0.04245753585
1168.000000,0.03740860567
1169.000000,0.03675041619
1170.000000,0.03622515835
1171.000000,0.03471632541
1172.000000,0.03950022395
1173.000000,0.03685077178
1174.000000,0.04218872689
1175.000000,0.05041876494
1176.000000,0.05335170007
1177.000000,0.05626376561
1178.000000,0.06872586551
1179.000000,0.08690283209
1180.000000,0.09859349318
1181.000000,0.1196023589
1182.000000,0.1285652536
1183.000000,0.1301116417
1184.000000,0.12959633
1185.000000,0.114182309
1186.000000,0.09784698094
1187.000000,0.07891512991
1188.000000,0.06533929869
1189.000000,0.05561651568
1190.000000,0.04639061378
1191.000000,0.04383577163
1192.000000,0.03937570667
1193.000000,0.03277899106
1194.000000,0.03197655762
1195.000000,0.02616950701
1196.000000,0.02488007185
1197.000000,0.02045539182
1198.000000,0.0248978258
1199.000000,0.02011328447
1200.000000,0.02269482066
1201.000000,0.02181235304
1202.000000,0.01961155041
1203.000000,0.01838302051
1204.000000,0.01528318652
1205.000000,0.01857867617
1206.000000,0.01764486139
1207.000000,0.01823395124
1208.000000,0.01636886594
1209.000000,0.01290048349
1210.000000,0.01279356237
1211.000000,0.01668216097
1212.000000,0.01785691475
1213.000000,0.01383990597
1214.000000,0.01401257654
1215.000000,0.01461473272
1216.000000,0.01421909031
1217.000000,0.01424162476
1218.000000,0.01297851076
1219.000000,0.01374346694
1220.000000,0.01208711435
1221.000000,0.01288566576
1222.000000,0.014340481
1223.000000,0.01299751198
1224.000000,0.01153213471
1225.000000,0.01328571502
1226.000000,0.01040813783
1227.000000,0.01122176948
1228.000000,0.01036087802
1229.000000,0.01295383079
1230.000000,0.01360682993
1231.000000,0.01152335139
1232.000000,0.01040994966
1233.000000,0.01308489285
1234.000000,0.0125922195
1235.000000,0.008895712071
1236.000000,0.01393086194
1237.000000,0.0137933297
1238.000000,0.01138058565
1239.000000,0.01171129644
1240.000000,0.0116030813
1241.000000,0.01080944741
1242.000000,0.01259302924
1243.000000,0.01023733322
1244.000000,0.01103909543
1245.000000,0.01189894239
1246.000000,0.00820160894
1247.000000,0.01051337647
1248.000000,0.009002533441
1249.000000,0.01054662369
1250.000000,0.0104068234
1251.000000,0.01099757093
1252.000000,0.01162955854
1253.000000,0.009267489785
1254.000000,0.01186189782
1255.000000,0.007824388622
1256.000000,0.01308671828
1257.000000,0.01103652261
1258.000000,0.0127499343
1259.000000,0.007329184319
1260.000000,0.0138846396
1261.000000,0.01052796978
1262.000000,0.01176551206
1263.000000,0.01130358241
1264.000000,0.01093592298
1265.000000,0.01013002891
1266.000000,0.007048610946
1267.000000,0.01353830038
1268.000000,0.01477994204
1269.000000,0.009834191375
1270.000000,0.01373838349
1271.000000,0.01293924693
1272.000000,0.01176683682
1273.000000,0.01079380782
1274.000000,0.01225644273
1275.000000,0.009773588973
1276.000000,0.01039800441
1277.000000,0.009996336732
1278.000000,0.009571591857
1279.000000,0.009959342187
1280.000000,0.01226272017
1281.000000,0.0124015245
1282.000000,0.009440493676
1283.000000,0.0109124865
1284.000000,0.01066717507
1285.000000,0.007572361053
1286.000000,0.01329875816
1287.000000,0.008861221332
1288.000000,0.01333213101
1289.000000,0.006398961554
1290.000000,0.009506442313
1291.000000,0.01259888384
1292.000000,0.01195464447
1293.000000,0.01209170493
1294.000000,0.01099984545
1295.000000,0.01520879345
1296.000000,0.01122895613
1297.000000,0.01177949046
1298.000000,0.009654825846
1299.000000,0.009513570355
1300.000000,0.01387106994
1301.000000,0.01388715853
1302.000000,0.007507769308
1303.000000,0.01002584482
1304.000000,0.01365886038
1305.000000,0.01133470492
1306.000000,0.01312116759
1307.000000,0.007549163956
1308.000000,0.01155232778
1309.000000,0.01122088652
1310.000000,0.01132917512
1311.000000,0.009897959584
1312.000000,0.01113262796
1313.000000,0.01478645167
1314.000000,0.009057423305
1315.000000,0.01109276125
1316.000000,0.01061843894
1317.000000,0.0107044048
1318.000000,0.0148874693
1319.000000,0.0144465213
1320.000000,0.01052483748
1321.000000,0.01234531633
1322.000000,0.009634231463
1323.000000,0.01194133038
1324.000000,0.01055050177
1325.000000,0.01429082943
1326.000000,0.01223845537
1327.000000,0.009203434864
1328.000000,0.007716931341
1329.000000,0.009089991942
1330.000000,0.01562599852
1331.000000,0.009401856848
1332.000000,0.008514245448
1333.000000,0.01002200933
1334.000000,0.01040959852
1335.000000,0.01266166729
1336.000000,0.009893891893
1337.000000,0.01481040662
1338.000000,0.01147595881
1339.000000,0.01208757253
1340.000000,0.01436818163
1341.000000,0.01187113522
1342.000000,0.01217685199
1343.000000,0.01283966265
1344.000000,0.01008617888
1345.000000,0.01049118176
1346.000000,0.01296755884
1347.000000,0.01003257213
1348.000000,0.01047334605
1349.000000,0.01353848713
1350.000000,0.0128746015
1351.000000,0.01238117601
1352.000000,0.009412461565
1353.000000,0.01572360932
1354.000000,0.01145147988
1355.000000,0.0111389718
1356.000000,0.01143915091
1357.000000,0.01012796398
1358.000000,0.01129946095
1359.000000,0.01591442012
1360.000000,0.00885633333
1361.000000,0.01644574191
1362.000000,0.01003131628
1363.000000,0.01006185219
1364.000000,0.01476645897
1365.000000,0.01590959168
1366.000000,0.01126926609
1367.000000,0.01378014543
1368.000000,0.01056417288
1369.000000,0.01144214036
1370.000000,0.01067512558
1371.000000,0.01249281034
1372.000000,0.01095135501
1373.000000,0.0125637974
1374.000000,0.01163617248
1375.000000,0.01237189123
1376.000000,0.012552788
1377.000000,0.01109569689
1378.000000,0.01172623505
1379.000000,0.01022967524
1380.000000,0.0136209221
1381.000000,0.01415316558
1382.000000,0.01198364925
1383.000000,0.01220637066
1384.000000,0.01173980726
1385.000000,0.01199982981
1386.000000,0.01328728337
1387.000000,0.009673878463
1388.000000,0.01022870731
1389.000000,0.01337867885
1390.000000,0.01511472366
1391.000000,0.01203485493
1392.000000,0.01514057448
1393.000000,0.01554774297
1394.000000,0.01398415003
1395.000000,0.01836325763
1396.000000,0.01378409351
1397.000000,0.01442962555
1398.000000,0.01202829601
1399.000000,0.01240016587
1400.000000,0.01483090731
1401.000000,0.0159519804
1402.000000,0.01454744716
1403.000000,0.01504850854
1404.000000,0.01556895972
1405.000000,0.01708507674
1406.000000,0.01239122151
1407.000000,0.01762952063
1408.000000,0.01461451833
1409.000000,0.01756422844
1410.000000,0.01845849884
1411.000000,0.01439860272
1412.000000,0.01979206893
1413.000000,0.01805664663
1414.000000,0.0172615321
1415.000000,0.02235631307
1416.000000,0.01671980047
1417.000000,0.01675633817
1418.000000,0.02073326678
1419.000000,0.02185061023
1420.000000,0.02122657616
1421.000000,0.02357542058
1422.000000,0.01853033179
1423.000000,0.02617777941
1424.000000,0.02555680629
1425.000000,0.02417471001
1426.000000,0.02520109795
1427.000000,0.02995405647
1428.000000,0.03140832262
1429.000000,0.03108388352
1430.000000,0.03464551406
1431.000000,0.03679494065
1432.000000,0.04150976048
1433.000000,0.04049500215
1434.000000,0.04785890019
1435.000000,0.05005653027
1436.000000,0.05462363495
1437.000000,0.06105855993
1438.000000,0.06544228606
1439.000000,0.07111803854
1440.000000,0.07964699923
1441.000000,0.09554927042
1442.000000,0.1025131831
1443.000000,0.1226916763
1444.000000,0.1360212662
1445.000000,0.1585101086
1446.000000,0.1746363296
1447.000000,0.1971291909
1448.000000,0.2144346319
1449.000000,0.227845436
1450.000000,0.2299024381
1451.000000,0.2272112735
1452.000000,0.2172820016
1453.000000,0.1938732564
1454.000000,0.1786726502
1455.000000,0.1543267371
1456.000000,0.1395641645
1457.000000,0.1200446849
1458.000000,0.1091191295
1459.000000,0.09325579281
1460.000000,0.08220131907
1461.000000,0.07638056168
1462.000000,0.06626070274
1463.000000,0.0599559592
1464.000000,0.05684889295
1465.000000,0.05316427453
1466.000000,0.04805344249
1467.000000,0.03908777099
1468.000000,0.04061241679
1469.000000,0.03794132119
1470.000000,0.03683243168
1471.000000,0.03523252307
1472.000000,0.03342134871
1473.000000,0.03080678725
1474.000000,0.03252112019
1475.000000,0.0269428428
1476.000000,0.02481146645
1477.000000,0.02264255777
1478.000000,0.02351342065
1479.000000,0.025039736
1480.000000,0.02281375373
1481.000000,0.0249089426
1482.000000,0.02148713541
1483.000000,0.01988044497
1484.000000,0.02349914717
1485.000000,0.01960026867
1486.000000,0.02187250773
1487.000000,0.01471210521
1488.000000,0.01622420254
1489.000000,0.01746278009
1490.000000,0.01612866967
1491.000000,0.0184192787
1492.000000,0.01782647872
1493.000000,0.0178764448
1494.000000,0.01543828486
1495.000000,0.0152724279
1496.000000,0.01550157357
1497.000000,0.01960078778
1498.000000,0.0158718975
1499.000000,0.01811519164
1500.000000,0.01449272944
1501.000000,0.01315315458
1502.000000,0.01611247159
1503.000000,0.01766374398
1504.000000,0.01228894797
1505.000000,0.01444633199
1506.000000,0.01667685359
1507.000000,0.01481137626
1508.000000,0.01466841553
1509.000000,0.01674237106
1510.000000,0.01547357443
1511.000000,0.01546448766
1512.000000,0.01406115606
1513.000000,0.0155796574
1514.000000,0.01399321083
1515.000000,0.01782035042
1516.000000,0.008800398365
1517.000000,0.01519143164
1518.000000,0.01642424253
1519.000000,0.01307213095
1520.000000,0.01617044022
1521.000000,0.01357050735
1522.000000,0.01641286021
1523.000000,0.01835264648
1524.000000,0.01460633291
1525.000000,0.01956652584
1526.000000,0.01511548834
1527.000000,0.01037161596
1528.000000,0.01445213407
1529.000000,0.01558658728
1530.000000,0.01584735982
1531.000000,0.01544025466
1532.000000,0.01632349732
1533.000000,0.01526938641
1534.000000,0.01841766473
1535.000000,0.01651484106
1536.000000,0.01571188931
1537.000000,0.01979029174
1538.000000,0.01370734905
1539.000000,0.01264850042
1540.000000,0.0152093383
1541.000000,0.0116559953
1542.000000,0.01796485121
1543.000000,0.01656135359
1544.000000,0.0216114091
1545.000000,0.01577473624
1546.000000,0.01552584045
1547.000000,0.01955839172
1548.000000,0.01978249444
1549.000000,0.02018538901
1550.000000,0.01805634179
1551.000000,0.01844645189
1552.000000,0.02114820547
1553.000000,0.02021864772
1554.000000,0.02220304296
1555.000000,0.02387329275
1556.000000,0.02168269592
1557.000000,0.0240863338
1558.000000,0.01986609098
1559.000000,0.02774984081
1560.000000,0.02856598927
1561.000000,0.02693060021
1562.000000,0.02735078611
1563.000000,0.02943496125
1564.000000,0.03118522485
1565.000000,0.03228795536
1566.000000,0.03312553761
1567.000000,0.03729609022
1568.000000,0.04181290704
1569.000000,0.03868029409
1570.000000,0.04519478472
1571.000000,0.04898657808
1572.000000,0.05366623101
1573.000000,0.0623744336
1574.000000,0.06600276553
1575.000000,0.07945607011
1576.000000,0.09438292201
1577.000000,0.1100064285
1578.000000,0.1288715654
1579.000000,0.1515830146
1580.000000,0.1792958945
1581.000000,0.2051797687
1582.000000,0.2278810719
1583.000000,0.2385244758
1584.000000,0.2352217955
1585.000000,0.2177666131
1586.000000,0.1960702262
1587.000000,0.1708927635
1588.000000,0.1580866384
1589.000000,0.1466659104
1590.000000,0.1392275137
1591.000000,0.1372404704
1592.000000,0.1446957654
1593.000000,0.1531217072
1594.000000,0.1683188729
1595.000000,0.1906731567
1596.000000,0.2256889483
1597.000000,0.2741616774
1598.000000,0.3412302521
1599.000000,0.4284739951
1600.000000,0.5229071922
1601.000000,0.6044505406
1602.000000,0.6443673606
1603.000000,0.6067620018
1604.000000,0.5152260787
1605.000000,0.4144915205
1606.000000,0.3295398529
1607.000000,0.2622449658
1608.000000,0.2097528379
1609.000000,0.1733110256
1610.000000,0.1407977159
1611.000000,0.1188899935
1612.000000,0.09995718479
1613.000000,0.09015291933
1614.000000,0.07786551354
1615.000000,0.0698660315
1616.000000,0.05710612866
1617.000000,0.05217545223
1618.000000,0.05152440879
1619.000000,0.04783531139
1620.000000,0.04221704372
1621.000000,0.03938855933
1622.000000,0.03880193063
1623.000000,0.03342284343
1624.000000,0.03305839074
1625.000000,0.02933717153
1626.000000,0.02848514681
1627.000000,0.02990480756
1628.000000,0.02352148978
1629.000000,0.02438087067
1630.000000,0.01988000939
1631.000000,0.02457637538
1632.000000,0.02350098848
1633.000000,0.02810725218
1634.000000,0.02086168636
1635.000000,0.021476314
1636.000000,0.02262065838
1637.000000,0.02126740033
1638.000000,0.01884698668
1639.000000,0.0214311474
1640.000000,0.01308955295
1641.000000,0.01909892437
1642.000000,0.01627985635
1643.000000,0.01586364342
1644.000000,0.01499876904
1645.000000,0.01745884501
1646.000000,0.01443670074
1647.000000,0.01653338333
1648.000000,0.01944223078
1649.000000,0.01429966357
1650.000000,0.01572013528
1651.000000,0.01410291546
1652.000000,0.01246611115
1653.000000,0.01607647002
1654.000000,0.01719027051
1655.000000,0.01323192593
1656.000000,0.01451554413
1657.000000,0.0139753431
1658.000000,0.01263179948
1659.000000,0.01563212827
1660.000000,0.009838839328
1661.000000,0.0167096318
1662.000000,0.01251901748
1663.000000,0.01701659556
1664.000000,0.01438295929
1665.000000,0.01311684885
1666.000000,0.009808970554
1667.000000,0.01043371298
1668.000000,0.0143330162
1669.000000,0.01141713645
1670.000000,0.01458309102
1671.000000,0.01015006039
1672.000000,0.01479473168
1673.000000,0.01252589315
1674.000000,0.0132915494
1675.000000,0.01064894771
1676.000000,0.01149702725
1677.000000,0.01329695826
1678.000000,0.01254481977
1679.000000,0.01023007231
1680.000000,0.01251505277
1681.000000,0.009077705492
1682.000000,0.0160305155
1683.000000,0.01307107842
1684.000000,0.01088493423
1685.000000,0.0112298907
1686.000000,0.009739192626
1687.000000,0.01191592909
1688.000000,0.006199474393
1689.000000,0.01160655821
1690.000000,0.014999056
1691.000000,0.007359482607
1692.000000,0.01186616342
1693.000000,0.01038479386
1694.000000,0.01111652849
1695.000000,0.009083527187
1696.000000,0.01336826713
1697.000000,0.00878126686
1698.000000,0.01329490702
1699.000000,0.01347363442
1700.000000,0.01173943892
1701.000000,0.01247143596
1702.000000,0.007340331822
1703.000000,0.009922815389
1704.000000,0.006213962023
1705.000000,0.01245155628
1706.000000,0.01348702213
1707.000000,0.008140229263
1708.000000,0.01154565797
1709.000000,0.01064085413
1710.000000,0.007270468632
1711.000000,0.01036465988
1712.000000,0.01122588346
1713.000000,0.0130481793
1714.000000,0.01081683344
1715.000000,0.01233504932
1716.000000,0.01491126647
1717.000000,0.0133233781
1718.000000,0.009456202172
1719.000000,0.01209796572
1720.000000,0.01444728881
1721.000000,0.01656077468
1722.000000,0.01263347725
1723.000000,0.01344490606
1724.000000,0.01289742111
1725.000000,0.01522673357
1726.000000,0.01297691861
1727.000000,0.01326433945
1728.000000,0.009227640985
1729.000000,0.01038322419
1730.000000,0.007940444843
1731.000000,0.009229891889
1732.000000,0.01163865291
1733.000000,0.0132499375
1734.000000,0.01314145803
1735.000000,0.01195414472
1736.000000,0.01536011807
1737.000000,0.008413216108
1738.000000,0.0109227371
1739.000000,0.01396455661
1740.000000,0.01172795552
1741.000000,0.0113021715
1742.000000,0.01291899622
1743.000000,0.009481269036
1744.000000,0.009510984478
1745.000000,0.01016278086
1746.000000,0.01465690329
1747.000000,0.008307987605
1748.000000,0.009659253024
1749.000000,0.01547271279
1750.000000,0.01167543809
1751.000000,0.01033245896
1752.000000,0.007085482493
1753.000000,0.0111633339
1754.000000,0.01075203757
1755.000000,0.01274356087
1756.000000,0.009092772209
1757.000000,0.009412283782
1758.000000,0.01249545395
1759.000000,0.008811228751
1760.000000,0.01398326405
1761.000000,0.01039680756
1762.000000,0.01159825639
1763.000000,0.009548432704
1764.000000,0.01415490803
1765.000000,0.009554604503
1766.000000,0.01340409748
1767.000000,0.009683710119
1768.000000,0.0115265623
1769.000000,0.008967079399
1770.000000,0.0122738045
1771.000000,0.01388746952
1772.000000,0.009667423097
1773.000000,0.01442405126
1774.000000,0.01090384119
1775.000000,0.009207638642
1776.000000,0.01123956447
1777.000000,0.009785854063
1778.000000,0.01116175674
1779.000000,0.009673332537
1780.000000,0.007481342598
1781.000000,0.01318465292
1782.000000,0.01113606272
1783.000000,0.009953602735
1784.000000,0.01187136211
1785.000000,0.00786171067
1786.000000,0.01015130242
1787.000000,0.01204255781
1788.000000,0.0134241106
1789.000000,0.01100201978
1790.000000,0.01236154942
1791.000000,0.007079326157
1792.000000,0.01057032058
1793.000000,0.01235731446
1794.000000,0.01328770571
1795.000000,0.00821158229
1796.000000,0.0138063903
1797.000000,0.01561177878
1798.000000,0.0110008104
1799.000000,0.007123813836
1800.000000,0.01195990092
1801.000000,0.01191418009
1802.000000,0.009683076163
1803.000000,0.01337460447
1804.000000,0.01419841409
1805.000000,0.008508584791
1806.000000,0.00840739553
1807.000000,0.01103683247
1808.000000,0.01293389432
1809.000000,0.007941802459
1810.000000,0.008857561531
1811.000000,0.009866262573
1812.000000,0.008739693131
1813.000000,0.009897124631
1814.000000,0.01238964041
1815.000000,0.008564060647
1816.000000,0.0118286104
1817.000000,0.01035937343
1818.000000,0.009798914672
1819.000000,0.0075161595
1820.000000,0.01081952569
1821.000000,0.01143230426
1822.000000,0.008711772819
1823.000000,0.01220792389
1824.000000,0.01238605853
1825.000000,0.01067355447
1826.000000,0.008568214415
1827.000000,0.01014622444
1828.000000,0.01227489362
1829.000000,0.01222260593
1830.000000,0.0101983985
1831.000000,0.009937294448
1832.000000,0.01190008034
1833.000000,0.01174112271
1834.000000,0.0124622388
1835.000000,0.008167481527
1836.000000,0.01014712061
1837.000000,0.01219834372
1838.000000,0.008914279435
1839.000000,0.01064411502
1840.000000,0.008913860816
1841.000000,0.01236153519
1842.000000,0.01308705348
1843.000000,0.009350026497
1844.000000,0.01521289895
1845.000000,0.01211825383
1846.000000,0.009809943495
1847.000000,0.01149735375
1848.000000,0.009508077196
1849.000000,0.01254379118
1850.000000,0.01013564023
1851.000000,0.00868326671
1852.000000,0.009918889438
1853.000000,0.007867646807
1854.000000,0.00578147621
1855.000000,0.007511233719
1856.000000,0.01145967305
1857.000000,0.009197636917
1858.000000,0.01110433244
1859.000000,0.00936466413
1860.000000,0.01020014351
1861.000000,0.01091816856
1862.000000,0.01203121631
1863.000000,0.008329278051
1864.000000,0.008585827084
1865.000000,0.01041197882
1866.000000,0.01350107275
1867.000000,0.01086282719
1868.000000,0.009930258699
1869.000000,0.009981206609
1870.000000,0.009808117542
1871.000000,0.00905865983
1872.000000,0.01208638214
1873.000000,0.01409265414
1874.000000,0.0108676355
1875.000000,0.007399261342
1876.000000,0.006641582936
1877.000000,0.01423472851
1878.000000,0.006798217414
1879.000000,0.01506585217
1880.000000,0.01127078206
1881.000000,0.01003758739
1882.000000,0.01202895555
1883.000000,0.01037338716
1884.000000,0.01368288223
1885.000000,0.009328481364
1886.000000,0.01094537087
1887.000000,0.009231126807
1888.000000,0.01136246534
1889.000000,0.01195167738
1890.000000,0.007659791824
1891.000000,0.007005659164
1892.000000,0.01231594672
1893.000000,0.01187725624
1894.000000,0.01124436548
1895.000000,0.008860564901
1896.000000,0.007945339949
1897.000000,0.008233724445
1898.000000,0.01031697668
1899.000000,0.008296789378
1900.000000,0.008278041337
1901.000000,0.01102535588
1902.000000,0.01368104268
1903.000000,0.01420362928
1904.000000,0.01080550927
1905.000000,0.0126329689
1906.000000,0.01129928084
1907.000000,0.01107074167
1908.000000,0.01015145544
1909.000000,0.009067554088
1910.000000,0.009248240608
1911.000000,0.01080532257
1912.000000,0.01325769877
1913.000000,0.007591448039
1914.000000,0.009180693126
1915.000000,0.007962959194
1916.000000,0.01166819168
1917.000000,0.01527458563
1918.000000,0.0112824306
1919.000000,0.007650294225
1920.000000,0.01126263683
1921.000000,0.01432717621
1922.000000,0.008683579236
1923.000000,0.005635956806
1924.000000,0.006193209486
1925.000000,0.01117771492
1926.000000,0.006360804773
1927.000000,0.01336906247
1928.000000,0.005332759411
1929.000000,0.009875889975
1930.000000,0.007555700522
1931.000000,0.01194902095
1932.000000,0.01093561709
1933.000000,0.01147509793
1934.000000,0.01168882676
1935.000000,0.008548304684
1936.000000,0.01039354056
1937.000000,0.008319083727
1938.000000,0.009430681142
1939.000000,0.01055475091
1940.000000,0.009338339759
1941.000000,0.007308427938
1942.000000,0.007462637708
1943.000000,0.007764609812
1944.000000,0.007904561589
1945.000000,0.00779083502
1946.000000,0.01294944427
1947.000000,0.01184936443
1948.000000,0.01077128566
1949.000000,0.01299628109
1950.000000,0.01121784764
1951.000000,0.009170646877
1952.000000,0.0125130285
1953.000000,0.01119912822
1954.000000,0.005883754374
1955.000000,0.01476913173
1956.000000,0.009894517668
1957.000000,0.006595675404
1958.000000,0.01285929252
1959.000000,0.01041350497
1960.000000,0.01047263606
1961.000000,0.01307858765
1962.000000,0.01193775849
1963.000000,0.01084622685
1964.000000,0.01063138324
1965.000000,0.01037813549
1966.000000,0.009812555332
1967.000000,0.007361455626
1968.000000,0.01237117366
1969.000000,0.01017753365
1970.000000,0.00994222563
1971.000000,0.01170504511
1972.000000,0.008760084648
1973.000000,0.009319828085
1974.000000,0.0115479801
1975.000000,0.009699125935
1976.000000,0.007906270343
1977.000000,0.007999578957
1978.000000,0.01610561822
1979.000000,0.009016934176
1980.000000,0.01468141137
1981.000000,0.008650925275
1982.000000,0.0108863275
1983.000000,0.009199693323
1984.000000,0.007724995545
1985.000000,0.009455137672
1986.000000,0.01439163944
1987.000000,0.008532877687
1988.000000,0.008021494272
1989.000000,0.01091846301
1990.000000,0.008019560364
1991.000000,0.008420155635
1992.000000,0.007115264807
1993.000000,0.01207337564
1994.000000,0.01147624851
1995.000000,0.005176898751
1996.000000,0.01146501443
1997.000000,0.009569944287
1998.000000,0.009885572339
1999.000000,0.008524978837
2000.000000,0.01050057469
