raman_shift_cm-1,intensity
200.000000,0.008467544362
201.000000,0.0105591393
202.000000,0.00676097106
203.000000,0.01138609528
204.000000,0.01236101636
205.000000,0.009169114304
206.000000,0.010935535
207.000000,0.01057665707
208.000000,0.009286317474
209.000000,0.008350442741
210.000000,0.006010379753
211.000000,0.01289656497
212.000000,0.009980688189
213.000000,0.01512084343
214.000000,0.01172886233
215.000000,0.01063222542
216.000000,0.008762042088
217.000000,0.01286208377
218.000000,0.00906480963
219.000000,0.01321752996
220.000000,0.009281154325
221.000000,0.0104500313
222.000000,0.007033030572
223.000000,0.01476508546
224.000000,0.009890819764
225.000000,0.009308896379
226.000000,0.01170107238
227.000000,0.008296888439
228.000000,0.01161510311
229.000000,0.007737665649
230.000000,0.01117088938
231.000000,0.007992414221
232.000000,0.006406792844
233.000000,0.008893657767
234.000000,0.007153629503
235.000000,0.01118828173
236.000000,0.01012533599
237.000000,0.0111011568
238.000000,0.01026514109
239.000000,0.009375090609
240.000000,0.01013934218
241.000000,0.01218833811
242.000000,0.009717376362
243.000000,0.008559823363
244.000000,0.008144395918
245.000000,0.009641029977
246.000000,0.008585288441
247.000000,0.01384631807
248.000000,0.007728212873
249.000000,0.007922432514
250.000000,0.009474138764
251.000000,0.01138624436
252.000000,0.009550316012
253.000000,0.008170992967
254.000000,0.008473307339
255.000000,0.009385824826
256.000000,0.01203443689
257.000000,0.008132051994
258.000000,0.009905666792
259.000000,0.008862522651
260.000000,0.01073818078
261.000000,0.01088352445
262.000000,0.007159075889
263.000000,0.01486360771
264.000000,0.01046940793
265.000000,0.009071856894
266.000000,0.008302862399
267.000000,0.009572147084
268.000000,0.01015512731
269.000000,0.01128213902
270.000000,0.01010339487
271.000000,0.01106038319
272.000000,0.00687291774
273.000000,0.008588388961
274.000000,0.008080381039
275.000000,0.01042301131
276.000000,0.01101017951
277.000000,0.007162354732
278.000000,0.009759018174
279.000000,0.01154614747
280.000000,0.01192573485
281.000000,0.007865151222
282.000000,0.01122213764
283.000000,0.01077341022
284.000000,0.009225163529
285.000000,0.01402342715
286.000000,0.007860309998
287.000000,0.009543369026
288.000000,0.01100808352
289.000000,0.01058509454
290.000000,0.009756756107
291.000000,0.01285340029
292.000000,0.01299069434
293.000000,0.01192573627
294.000000,0.01210406937
295.000000,0.009991306089
296.000000,0.007771971847
297.000000,0.01447752176
298.000000,0.008187314937
299.000000,0.01456130893
300.000000,0.009848954033
301.000000,0.01056719852
302.000000,0.009765678385
303.000000,0.0120206305
304.000000,0.009088659061
305.000000,0.01379164255
306.000000,0.01117571511
307.000000,0.01045533606
308.000000,0.008966369779
309.000000,0.0106680531
310.000000,0.01010088781
311.000000,0.01390778491
312.000000,0.0119804935
313.000000,0.006988738769
314.000000,0.01316735143
315.000000,0.005363252181
316.000000,0.01319173597
317.000000,0.006338572855
318.000000,0.01011252184
319.000000,0.01173615863
320.000000,0.01009646286
321.000000,0.007916262884
322.000000,0.01257941242
323.000000,0.006554205409
324.000000,0.00719345528
325.000000,0.01288213338
326.000000,0.008384926695
327.000000,0.01060861829
328.000000,0.01173553812
329.000000,0.009903353713
330.000000,0.01066982331
331.000000,0.01035861287
332.000000,0.01054614468
333.000000,0.01249247604
334.000000,0.01198733717
335.000000,0.01076639051
336.000000,0.01195490079
337.000000,0.009036972863
338.000000,0.008592389165
339.000000,0.008118192256
340.000000,0.0116904098
341.000000,0.01337216384
342.000000,0.01029325917
343.000000,0.006166600958
344.000000,0.009106990894
345.000000,0.01106096851
346.000000,0.01071959168
347.000000,0.01031356386
348.000000,0.01210435071
349.000000,0.01198058145
350.000000,0.007446369414
351.000000,0.01099791439
352.000000,0.008649867548
353.000000,0.01059541771
354.000000,0.01261821575
355.000000,0.01379375339
356.000000,0.01153163237
357.000000,0.009121036403
358.000000,0.009430402304
359.000000,0.01119971592
360.000000,0.008158342616
361.000000,0.009999570368
362.000000,0.01134542359
363.000000,0.01197323148
364.000000,0.009542788401
365.000000,0.01087718569
366.000000,0.01286334237
367.000000,0.01074949938
368.000000,0.006706954389
369.000000,0.01056906775
370.000000,0.01064399614
371.000000,0.009299009102
372.000000,0.01022856355
373.000000,0.007190733343
374.000000,0.01263627843
375.000000,0.01098796501
376.000000,0.009058561375
377.000000,0.01061760846
378.000000,0.01041210272
379.000000,0.008420530952
380.000000,0.004814376756
381.000000,0.004454661706
382.000000,0.0141939807
383.000000,0.00791274985
384.000000,0.009563175747
385.000000,0.01129591141
386.000000,0.009430135383
387.000000,0.01253793195
388.000000,0.008258061647
389.000000,0.01128204206
390.000000,0.005982960915
391.000000,0.01158762291
392.000000,0.0115343533
393.000000,0.01089377453
394.000000,0.01076313114
395.000000,0.01069828346
396.000000,0.01189085804
397.000000,0.01208849578
398.000000,0.00827578573
399.000000,0.01228051752
400.000000,0.008271366893
401.000000,0.01049672435
402.000000,0.00966308699
403.000000,0.01113065252
404.000000,0.009506639725
405.000000,0.01098133666
406.000000,0.009214926736
407.000000,0.008256201835
408.000000,0.01231033653
409.000000,0.01132095479
410.000000,0.01120485257
411.000000,0.01209109743
412.000000,0.008059730883
413.000000,0.01200919509
414.000000,0.008068347407
415.000000,0.01094415457
416.000000,0.009826289869
417.000000,0.01072869793
418.000000,0.01158100856
419.000000,0.01023017595
420.000000,0.008347476468
421.000000,0.01204934819
422.000000,0.01254552038
423.000000,0.0115628933
424.000000,0.01226729958
425.000000,0.006668994769
426.000000,0.01034075207
427.000000,0.009969669681
428.000000,0.006290862344
429.000000,0.01041810793
430.000000,0.01020867939
431.000000,0.007190735068
432.000000,0.008525003065
433.000000,0.01037657243
434.000000,0.01141160955
435.000000,0.01162455271
436.000000,0.008000197381
437.000000,0.008058620328
438.000000,0.009203111994
439.000000,0.01011583078
440.000000,0.009067183279
441.000000,0.009835095142
442.000000,0.01164007505
443.000000,0.01159122313
444.000000,0.01050024152
445.000000,0.007943236882
446.000000,0.009245500137
447.000000,0.01135689396
448.000000,0.01197154293
449.000000,0.01235752587
450.000000,0.008112600985
451.000000,0.009308198124
452.000000,0.007818633424
453.000000,0.004357804866
454.000000,0.00805871553
455.000000,0.006702820712
456.000000,0.0130343154
457.000000,0.01119719926
458.000000,0.008968383139
459.000000,0.01038818325
460.000000,0.01108667585
461.000000,0.01376089737
462.000000,0.01181668969
463.000000,0.01331815403
464.000000,0.01124173319
465.000000,0.0128791636
466.000000,0.01316482035
467.000000,0.01214416967
468.000000,0.0103494137
469.000000,0.01247805353
470.000000,0.009504575318
471.000000,0.01315100538
472.000000,0.009749865037
473.000000,0.008939847513
474.000000,0.0140731643
475.000000,0.00948539057
476.000000,0.0106367548
477.000000,0.008186165471
478.000000,0.008917237237
479.000000,0.009641000262
480.000000,0.008345093532
481.000000,0.01276763167
482.000000,0.008880727111
483.000000,0.007821209842
484.000000,0.01256547164
485.000000,0.01175499288
486.000000,0.005692100918
487.000000,0.009208726224
488.000000,0.01234158382
489.000000,0.008817880171
490.000000,0.009802567009
491.000000,0.009883492831
492.000000,0.005851947602
493.000000,0.008597405769
494.000000,0.01191621956
495.000000,0.0132828923
496.000000,0.01023967136
497.000000,0.01018630121
498.000000,0.01151634311
499.000000,0.01074941164
500.000000,0.01144065791
501.000000,0.008678867087
502.000000,0.01047973668
503.000000,0.01144977333
504.000000,0.01163857395
505.000000,0.007336478763
506.000000,0.01209942114
507.000000,0.01069402045
508.000000,0.01078024588
509.000000,0.006934798198
510.000000,0.01055912752
511.000000,0.00732566875
512.000000,0.005446186946
513.000000,0.01069201113
514.000000,0.0105018229
515.000000,0.01063452022
516.000000,0.01088102617
517.000000,0.01053855292
518.000000,0.01274939466
519.000000,0.01218073231
520.000000,0.01382368809
521.000000,0.01563780182
522.000000,0.01214450953
523.000000,0.01221205448
524.000000,0.01442373572
525.000000,0.00889128143
526.000000,0.009998168912
527.000000,0.01117135435
528.000000,0.007557037653
529.000000,0.01261392309
530.000000,0.01385047517
531.000000,0.00818392185
532.000000,0.00908300525
533.000000,0.01252247981
534.000000,0.01343340407
535.000000,0.00742035014
536.000000,0.0118245152
537.000000,0.010331331
538.000000,0.007052843797
539.000000,0.009908458243
540.000000,0.009624509509
541.000000,0.01098362496
542.000000,0.01085712782
543.000000,0.0102453825
544.000000,0.01054129212
545.000000,0.01051073287
546.000000,0.01186721838
547.000000,0.01278949531
548.000000,0.01279692442
549.000000,0.009111404998
550.000000,0.00932872123
551.000000,0.009592491491
552.000000,0.01380137038
553.000000,0.01193689986
554.000000,0.009471691087
555.000000,0.008716349883
556.000000,0.009045774989
557.000000,0.01114591326
558.000000,0.008911213617
559.000000,0.01113567273
560.000000,0.01388002736
561.000000,0.01070713
562.000000,0.01296611349
563.000000,0.008252572822
564.000000,0.01204903113
565.000000,0.01196225102
566.000000,0.00957888443
567.000000,0.01423110783
568.000000,0.01151048947
569.000000,0.01019977335
570.000000,0.01104658047
571.000000,0.01359936873
572.000000,0.009011262483
573.000000,0.0121240901
574.000000,0.009975358351
575.000000,0.01242920893
576.000000,0.01100001656
577.000000,0.0119983631
578.000000,0.01376079167
579.000000,0.01242532951
580.000000,0.0135526056
581.000000,0.01396340085
582.000000,0.01350535474
583.000000,0.01327931931
584.000000,0.01305892494
585.000000,0.01440803744
586.000000,0.01571500544
587.000000,0.01717794874
588.000000,0.0172208744
589.000000,0.01193974982
590.000000,0.0147609214
591.000000,0.0154244506
592.000000,0.01717883802
593.000000,0.01720872223
594.000000,0.01258949
595.000000,0.01641959551
596.000000,0.01291274241
597.000000,0.0159092868
598.000000,0.01559823129
599.000000,0.01690293079
600.000000,0.02206320786
601.000000,0.01870260102
602.000000,0.01981689734
603.000000,0.02226316387
604.000000,0.0255688927
605.000000,0.02169142146
606.000000,0.03034142425
607.000000,0.02796773891
608.000000,0.03044027112
609.000000,0.03629897537
610.000000,0.04189723374
611.000000,0.05165514897
612.000000,0.05529983007
613.000000,0.06169046059
614.000000,0.07463001665
615.000000,0.0888800079
616.000000,0.1121064478
617.000000,0.1365156714
618.000000,0.1598861845
619.000000,0.1840405563
620.000000,0.1868682049
621.000000,0.1808184717
622.000000,0.1587071736
623.000000,0.1336832858
624.000000,0.107527545
625.000000,0.09271319754
626.000000,0.07314390636
627.000000,0.06262219603
628.000000,0.05588566374
629.000000,0.04947479786
630.000000,0.04293475208
631.000000,0.03159824671
632.000000,0.03184565018
633.000000,0.02882091692
634.000000,0.02575145078
635.000000,0.02355895727
636.000000,0.0223572435
637.000000,0.02323544304
638.000000,0.01993769476
639.000000,0.01714248503
640.000000,0.01579160907
641.000000,0.0184736619
642.000000,0.01406424558
643.000000,0.01833091872
644.000000,0.01541333592
645.000000,0.01493430271
646.000000,0.01599624503
647.000000,0.01444949524
648.000000,0.01626458002
649.000000,0.01197181705
650.000000,0.01064160586
651.000000,0.01797518105
652.000000,0.01416012008
653.000000,0.008445382917
654.000000,0.01684250383
655.000000,0.01043142184
656.000000,0.01723681716
657.000000,0.01661881679
658.000000,0.0146131494
659.000000,0.01273400563
660.000000,0.01086663365
661.000000,0.01443045519
662.000000,0.01161772952
663.000000,0.01451314304
664.000000,0.01168846863
665.000000,0.00900783205
666.000000,0.01069290346
667.000000,0.01215916717
668.000000,0.0109864924
669.000000,0.01219815688
670.000000,0.01000747238
671.000000,0.01505798678
672.000000,0.01071410598
673.000000,0.01277088846
674.000000,0.008321318071
675.000000,0.01331196294
676.000000,0.01471995947
677.000000,0.01279053266
678.000000,0.01105899604
679.000000,0.009655473612
680.000000,0.01271225236
681.000000,0.01263383741
682.000000,0.008826253197
683.000000,0.01145505763
684.000000,0.01249075214
685.000000,0.009814406663
686.000000,0.0125826485
687.000000,0.01080221375
688.000000,0.01424698401
689.000000,0.008760157145
690.000000,0.01235067141
691.000000,0.01152451331
692.000000,0.007504423354
693.000000,0.009392286354
694.000000,0.009530852167
695.000000,0.01311098552
696.000000,0.01051120651
697.000000,0.01120677147
698.000000,0.01151506331
699.000000,0.01639349313
700.000000,0.01072425171
701.000000,0.01508504047
702.000000,0.01081920693
703.000000,0.008022083789
704.000000,0.009548036616
705.000000,0.008687380086
706.000000,0.01043848185
707.000000,0.008244735665
708.000000,0.009346345571
709.000000,0.01502185401
710.000000,0.01166693865
711.000000,0.01186061433
712.000000,0.01484280989
713.000000,0.007882336179
714.000000,0.01233861931
715.000000,0.01026218158
716.000000,0.01115077251
717.000000,0.009852875857
718.000000,0.01147015178
719.000000,0.01371941893
720.000000,0.01366809527
721.000000,0.01176096894
722.000000,0.01292536132
723.000000,0.008895591822
724.000000,0.005436805718
725.000000,0.01340948768
726.000000,0.01541345858
727.000000,0.01229114336
728.000000,0.01013599476
729.000000,0.01148855046
730.000000,0.01386265659
731.000000,0.00909244187
732.000000,0.01160539093
733.000000,0.01271510813
734.000000,0.009449558731
735.000000,0.01573545307
736.000000,0.01320313111
737.000000,0.01493442939
738.000000,0.009472659865
739.000000,0.01210711031
740.000000,0.01478330187
741.000000,0.01265404852
742.000000,0.0143245147
743.000000,0.008129292478
744.000000,0.0117120732
745.000000,0.007937332624
746.000000,0.01099140621
747.000000,0.01263551723
748.000000,0.0118910906
749.000000,0.009657890415
750.000000,0.01285231926
751.000000,0.01364381757
752.000000,0.01222044905
753.000000,0.0141309933
754.000000,0.0148880292
755.000000,0.01518944987
756.000000,0.0121343051
757.000000,0.01396435048
758.000000,0.01178268379
759.000000,0.01302494755
760.000000,0.01549736205
761.000000,0.01330006674
762.000000,0.01278574984
763.000000,0.01269702523
764.000000,0.0151380221
765.000000,0.01756800627
766.000000,0.01644799319
767.000000,0.0144318002
768.000000,0.01680038736
769.000000,0.01744967108
770.000000,0.01887032086
771.000000,0.01502110869
772.000000,0.01813715919
773.000000,0.01661244205
774.000000,0.0169516393
775.000000,0.02126063661
776.000000,0.02065463111
777.000000,0.02064581174
778.000000,0.02429247496
779.000000,0.02315790384
780.000000,0.02252127804
781.000000,0.02783297902
782.000000,0.02620613142
783.000000,0.02876053792
784.000000,0.0325964154
785.000000,0.03665710051
786.000000,0.04306919326
787.000000,0.04579376055
788.000000,0.0492199149
789.000000,0.05937058508
790.000000,0.07015141984
791.000000,0.07949817073
792.000000,0.09026796332
793.000000,0.09807391813
794.000000,0.1070326167
795.000000,0.1116733239
796.000000,0.1090071902
797.000000,0.09885240813
798.000000,0.08907160385
799.000000,0.07781510664
800.000000,0.07141024264
801.000000,0.0590305588
802.000000,0.05233858255
803.000000,0.04488590839
804.000000,0.03948473458
805.000000,0.03674760198
806.000000,0.03526473498
807.000000,0.02939321685
808.000000,0.03044776598
809.000000,0.02595393264
810.000000,0.0257895175
811.000000,0.02783996482
812.000000,0.0261707116
813.000000,0.0211382529
814.000000,0.01979047578
815.000000,0.01852382457
816.000000,0.01954123227
817.000000,0.01375692294
818.000000,0.01554224253
819.000000,0.01619202198
820.000000,0.01450370559
821.000000,0.01365664267
822.000000,0.01789119724
823.000000,0.0120676658
824.000000,0.0138421699
825.000000,0.013288414
826.000000,0.0132811312
827.000000,0.01191428601
828.000000,0.01533982307
829.000000,0.01340850019
830.000000,0.01696275972
831.000000,0.01060196962
832.000000,0.01344039698
833.000000,0.01050979596
834.000000,0.01341430419
835.000000,0.01518198913
836.000000,0.01046619826
837.000000,0.01463739913
838.000000,0.01094139977
839.000000,0.01020352595
840.000000,0.01307385987
841.000000,0.01384529941
842.000000,0.01255555889
843.000000,0.01285353896
844.000000,0.01210802238
845.000000,0.01110658361
846.000000,0.00777508369
847.000000,0.01129314719
848.000000,0.01058106726
849.000000,0.01305022245
850.000000,0.01025746442
851.000000,0.01590627788
852.000000,0.01308676559
853.000000,0.01097398246
854.000000,0.01310317468
855.000000,0.01126873703
856.000000,0.01431695691
857.000000,0.01087469316
858.000000,0.01457385611
859.000000,0.009548933585
860.000000,0.01187872755
861.000000,0.01151979878
862.000000,0.009838916302
863.000000,0.0109772382
864.000000,0.01163383432
865.000000,0.009219417265
866.000000,0.009881616211
867.000000,0.01255509923
868.000000,0.01003448251
869.000000,0.01473155832
870.000000,0.01472001493
871.000000,0.01060898752
872.000000,0.01225909644
873.000000,0.01260685329
874.000000,0.01297894473
875.000000,0.01046605164
876.000000,0.01302239682
877.000000,0.01046861206
878.000000,0.01133604733
879.000000,0.01402483576
880.000000,0.01136744862
881.000000,0.009606967918
882.000000,0.01039089811
883.000000,0.01218321871
884.000000,0.01001992689
885.000000,0.00960441218
886.000000,0.01185507267
887.000000,0.009671203329
888.000000,0.01576846525
889.000000,0.01023637749
890.000000,0.01296391806
891.000000,0.008666336204
892.000000,0.01093310386
893.000000,0.01325642184
894.000000,0.01269903748
895.000000,0.01292244399
896.000000,0.0105001175
897.000000,0.01204902331
898.000000,0.01127947423
899.000000,0.00887182574
900.000000,0.01399460861
901.000000,0.0103664693
902.000000,0.01127457305
903.000000,0.01347730054
904.000000,0.01309750999
905.000000,0.0169943644
906.000000,0.01167806044
907.000000,0.01473047925
908.000000,0.01165760647
909.000000,0.01195853103
910.000000,0.01408112696
911.000000,0.0132815907
912.000000,0.01097559986
913.000000,0.01183984815
914.000000,0.012400308
915.000000,0.01545085516
916.000000,0.0105787569
917.000000,0.01259419078
918.000000,0.01338983547
919.000000,0.01248707267
920.000000,0.01123422206
921.000000,0.01395778113
922.000000,0.01047167893
923.000000,0.01624969369
924.000000,0.007164599762
925.000000,0.008570643543
926.000000,0.01283323867
927.000000,0.0138457336
928.000000,0.01354046719
929.000000,0.01149109187
930.000000,0.01243040178
931.000000,0.01283079373
932.000000,0.01108000959
933.000000,0.01215834657
934.000000,0.0110828791
935.000000,0.01537750993
936.000000,0.01396531789
937.000000,0.01233821718
938.000000,0.01253770725
939.000000,0.01246091569
940.000000,0.01283124676
941.000000,0.01409587386
942.000000,0.01293910144
943.000000,0.01273899557
944.000000,0.01462947512
945.000000,0.01364944768
946.000000,0.01410108864
947.000000,0.01437799828
948.000000,0.01399172119
949.000000,0.01225931822
950.000000,0.01415765038
951.000000,0.01721445737
952.000000,0.01326677997
953.000000,0.01350574302
954.000000,0.0144957381
955.000000,0.01477082342
956.000000,0.01852133593
957.000000,0.01537399504
958.000000,0.01853480237
959.000000,0.01807183114
960.000000,0.01820807422
961.000000,0.01832516981
962.000000,0.01808154974
963.000000,0.01876781436
964.000000,0.02052161247
965.000000,0.01441224059
966.000000,0.01964083147
967.000000,0.02172509512
968.000000,0.01859235765
969.000000,0.0203687638
970.000000,0.02278424567
971.000000,0.01821780867
972.000000,0.02305911796
973.000000,0.02108884575
974.000000,0.02463887807
975.000000,0.0259210318
976.000000,0.02677738225
977.000000,0.02551551316
978.000000,0.02896695401
979.000000,0.02928241514
980.000000,0.03298162766
981.000000,0.03370384602
982.000000,0.03517122922
983.000000,0.04152950489
984.000000,0.04048176638
985.000000,0.04577143348
986.000000,0.05356688845
987.000000,0.05767732222
988.000000,0.06547746627
989.000000,0.07013298144
990.000000,0.08302521758
991.000000,0.09440759879
992.000000,0.1102234772
993.000000,0.1383989223
994.000000,0.1672463825
995.000000,0.2145683404
996.000000,0.2773703033
997.000000,0.3759202157
998.000000,0.5162335209
999.000000,0.7056542448
1000.000000,0.9136618836
1001.000000,1.010734362
1002.000000,0.915500636
1003.000000,0.708708268
1004.000000,0.5158779385
1005.000000,0.3792877774
1006.000000,0.2830281672
1007.000000,0.2191699371
1008.000000,0.1738436647
1009.000000,0.1410556417
1010.000000,0.1218919946
1011.000000,0.1071701085
1012.000000,0.09587643444
1013.000000,0.0849117706
1014.000000,0.07555387827
1015.000000,0.07285030919
1016.000000,0.07089846057
1017.000000,0.06690351711
1018.000000,0.06828439967
1019.000000,0.06911315045
1020.000000,0.07176705966
1021.000000,0.07624312132
1022.000000,0.08625903791
1023.000000,0.09728120893
1024.000000,0.1136620018
1025.000000,0.1319619731
1026.000000,0.1629239849
1027.000000,0.2022837965
1028.000000,0.265367219
1029.000000,0.3411980456
1030.000000,0.4078278944
1031.000000,0.4413999534
1032.000000,0.4070443303
1033.000000,0.3368841674
1034.000000,0.2622893939
1035.000000,0.1974744209
1036.000000,0.1541442856
1037.000000,0.1225710786
1038.000000,0.1006642
1039.000000,0.08684102311
1040.000000,0.07169484112
1041.000000,0.0622589997
1042.000000,0.05488736162
1043.000000,0.04727546197
1044.000000,0.04598072836
1045.000000,0.04095696743
1046.000000,0.03828221494
1047.000000,0.03453849676
1048.000000,0.02900228707
1049.000000,0.03088895561
1050.000000,0.02688700955
1051.000000,0.02488009357
1052.000000,0.03084238775
1053.000000,0.02618757503
1054.000000,0.02253517295
1055.000000,0.02416523373
1056.000000,0.02394712292
1057.000000,0.02149152387
1058.000000,0.01961408336
1059.000000,0.02182518436
1060.000000,0.02086581375
1061.000000,0.02025877343
1062.000000,0.01509976145
1063.000000,0.01895023197
1064.000000,0.0218491954
1065.000000,0.01520475672
1066.000000,0.01626778313
1067.000000,0.01521950035
1068.000000,0.01553463951
1069.000000,0.01601198722
1070.000000,0.02016203628
1071.000000,0.01528361219
1072.000000,0.01893270124
1073.000000,0.01362036214
1074.000000,0.01664630323
1075.000000,0.0151154882
1076.000000,0.01423470551
1077.000000,0.01551942435
1078.000000,0.01753286137
1079.000000,0.01552071987
1080.000000,0.01595441944
1081.000000,0.01469423795
1082.000000,0.01541501263
1083.000000,0.01518468583
1084.000000,0.0159501862
1085.000000,0.01396978399
1086.000000,0.01295755754
1087.000000,0.01315406174
1088.000000,0.01305958216
1089.000000,0.01508323591
1090.000000,0.0123361402
1091.000000,0.01536939366
1092.000000,0.01436925028
1093.000000,0.01639551609
1094.000000,0.01424664502
1095.000000,0.01596932723
1096.000000,0.0146619659
1097.000000,0.01414524782
1098.000000,0.0131523107
1099.000000,0.01470449556
1100.000000,0.01393903459
1101.000000,0.01249378713
1102.000000,0.01276661538
1103.000000,0.009866766151
1104.000000,0.01612465198
1105.000000,0.01610523713
1106.000000,0.01287198008
1107.000000,0.01130726052
1108.000000,0.01525470055
1109.000000,0.01618364027
1110.000000,0.01392906047
1111.000000,0.01270609523
1112.000000,0.01666321516
1113.000000,0.01596122746
1114.000000,0.01632368712
1115.000000,0.01815292094
1116.000000,0.01437147183
1117.000000,0.01488315464
1118.000000,0.01872073055
1119.000000,0.01649762499
1120.000000,0.01992413311
1121.000000,0.009860688063
1122.000000,0.01218424783
1123.000000,0.01662473206
1124.000000,0.01658829766
1125.000000,0.01357383015
1126.000000,0.01424123141
1127.000000,0.0146348807
1128.000000,0.01797835163
1129.000000,0.01418753028
1130.000000,0.01713434885
1131.000000,0.01633255932
1132.000000,0.01233075345
1133.000000,0.01949923497
1134.000000,0.02331053363
1135.000000,0.01993213818
1136.000000,0.02272447177
1137.000000,0.02228005894
1138.000000,0.02294908341
1139.000000,0.02133485677
1140.000000,0.02590584192
1141.000000,0.02408806533
1142.000000,0.02914458163
1143.000000,0.03339843938
1144.000000,0.03678680716
1145.000000,0.03891693144
1146.000000,0.04532104021
1147.000000,0.04994368303
1148.000000,0.06163967081
1149.000000,0.06798296181
1150.000000,0.08859193005
1151.000000,0.1002458183
1152.000000,0.1161500621
1153.000000,0.1378395032
1154.000000,0.1464839391
1155.000000,0.1564130235
1156.000000,0.1474843469
1157.000000,0.1351779457
1158.000000,0.1164915891
1159.000000,0.09878357885
1160.000000,0.08412716433
1161.000000,0.0734362988
1162.000000,0.06280629747
1163.000000,0.05965514273
1164.000000,0.05039713673
1165.000000,0.04050892281
1166.000000,0.04112204257
1167.000000,0.03969439617
1168.000000,0.03930093342
1169.000000,0.03899782462
1170.000000,0.03491308531
1171.000000,0.03832646337
1172.000000,0.03728136378
1173.000000,0.04103501068
1174.000000,0.04311329237
1175.000000,0.0501845011
1176.000000,0.05522821109
1177.000000,0.06374197348
1178.000000,0.06902931508
1179.000000,0.08238641821
1180.000000,0.09909263431
1181.000000,0.1146129166
1182.000000,0.1282619216
1183.000000,0.1358812054
1184.000000,0.1333433487
1185.000000,0.1151739768
1186.000000,0.1002968862
1187.000000,0.07802549832
1188.000000,0.0714031616
1189.000000,0.06109141114
1190.000000,0.04876746509
1191.000000,0.04100055445
1192.000000,0.03826169205
1193.000000,0.0297596339
1194.000000,0.0305771591
1195.000000,0.02393053117
1196.000000,0.02858561822
1197.000000,0.02362071188
1198.000000,0.02077783314
1199.000000,0.01686838413
1200.000000,0.02297433138
1201.000000,0.01940565888
1202.000000,0.01737071074
1203.000000,0.02020412887
1204.000000,0.01454392527
1205.000000,0.01893172644
1206.000000,0.01894588523
1207.000000,0.01539096512
1208.000000,0.01798894676
1209.000000,0.01866960604
1210.000000,0.01351409427
1211.000000,0.01335180143
1212.000000,0.01617401386
1213.000000,0.01583929731
1214.000000,0.01256527008
1215.000000,0.007675826803
1216.000000,0.01067779347
1217.000000,0.01608287864
1218.000000,0.01247716968
1219.000000,0.01145739172
1220.000000,0.01396583534
1221.000000,0.009573493246
1222.000000,0.01745639534
1223.000000,0.009008631106
1224.000000,0.01240593551
1225.000000,0.01347247275
1226.000000,0.01386277106
1227.000000,0.01032477941
1228.000000,0.01179080478
1229.000000,0.01448174975
1230.000000,0.01261161979
1231.000000,0.01364858507
1232.000000,0.01254539775
1233.000000,0.01257411324
1234.000000,0.01040385719
1235.000000,0.009712337371
1236.000000,0.01148339042
1237.000000,0.009743215473
1238.000000,0.0148152506
1239.000000,0.01334970629
1240.000000,0.01434911975
1241.000000,0.008849342612
1242.000000,0.009184991106
1243.000000,0.01307334801
1244.000000,0.01205971301
1245.000000,0.01216277064
1246.000000,0.01361922382
1247.000000,0.00962960122
1248.000000,0.009076017978
1249.000000,0.00987637938
1250.000000,0.01574648548
1251.000000,0.01142669165
1252.000000,0.009940991598
1253.000000,0.01438145866
1254.000000,0.01324902792
1255.000000,0.01318698458
1256.000000,0.01266991869
1257.000000,0.01097270011
1258.000000,0.01492746031
1259.000000,0.01304695939
1260.000000,0.008982733812
1261.000000,0.009079935647
1262.000000,0.01003521982
1263.000000,0.01303344937
1264.000000,0.01007560069
1265.000000,0.01076345524
1266.000000,0.01036419722
1267.000000,0.01142238642
1268.000000,0.01373478258
1269.000000,0.01039604313
1270.000000,0.01128830003
1271.000000,0.01468675027
1272.000000,0.008181786798
1273.000000,0.01189049237
1274.000000,0.01163917532
1275.000000,0.01110253229
1276.000000,0.013270949
1277.000000,0.01560834956
1278.000000,0.01125780508
1279.000000,0.01115141451
1280.000000,0.01251574911
1281.000000,0.008885093774
1282.000000,0.0105177459
1283.000000,0.01184381615
1284.000000,0.01165779915
1285.000000,0.009752524649
1286.000000,0.01340540516
1287.000000,0.008941552604
1288.000000,0.009814925299
1289.000000,0.009194510135
1290.000000,0.01197590937
1291.000000,0.01282035719
1292.000000,0.01099683891
1293.000000,0.01351166539
1294.000000,0.0103795738
1295.000000,0.01138962183
1296.000000,0.01163985829
1297.000000,0.01113650634
1298.000000,0.01155879613
1299.000000,0.009173972191
1300.000000,0.007037577567
1301.000000,0.0101138545
1302.000000,0.01045332285
1303.000000,0.01073228815
1304.000000,0.009128007249
1305.000000,0.008711882312
1306.000000,0.01522245024
1307.000000,0.01270974369
1308.000000,0.01188481997
1309.000000,0.0115535816
1310.000000,0.009956060336
1311.000000,0.01095377747
1312.000000,0.01350850511
1313.000000,0.01323947733
1314.000000,0.01011295984
1315.000000,0.01027868295
1316.000000,0.0102071233
1317.000000,0.0098526782
1318.000000,0.01309273016
1319.000000,0.01256028939
1320.000000,0.01191089995
1321.000000,0.01008938558
1322.000000,0.01380001355
1323.000000,0.01135020453
1324.000000,0.006313896271
1325.000000,0.01384139766
1326.000000,0.01178072945
1327.000000,0.01014903169
1328.000000,0.01395101052
1329.000000,0.006667475059
1330.000000,0.01004372688
1331.000000,0.0127233515
1332.000000,0.00994170971
1333.000000,0.01544922244
1334.000000,0.01535371965
1335.000000,0.01198292764
1336.000000,0.01187887528
1337.000000,0.01489022304
1338.000000,0.01272044653
1339.000000,0.009400040238
1340.000000,0.01099712731
1341.000000,0.009770358627
1342.000000,0.01275767494
1343.000000,0.01191003037
1344.000000,0.01438072643
1345.000000,0.01211522711
1346.000000,0.01008639945
1347.000000,0.009401744961
1348.000000,0.01467246277
1349.000000,0.01422472925
1350.000000,0.0100225637
1351.000000,0.008763067325
1352.000000,0.008592750519
1353.000000,0.01374256301
1354.000000,0.01103698736
1355.000000,0.01542757852
1356.000000,0.01101073142
1357.000000,0.01127713557
1358.000000,0.01139624568
1359.000000,0.01315962937
1360.000000,0.01544539466
1361.000000,0.01010717939
1362.000000,0.01360602816
1363.000000,0.01486731457
1364.000000,0.01180188781
1365.000000,0.01136879969
1366.000000,0.0143786217
1367.000000,0.01102139825
1368.000000,0.01171095715
1369.000000,0.010417704
1370.000000,0.01131918544
1371.000000,0.01294469762
1372.000000,0.0131859793
1373.000000,0.01204668037
1374.000000,0.01271511594
1375.000000,0.009976925261
1376.000000,0.01677756049
1377.000000,0.01050971203
1378.000000,0.01375663751
1379.000000,0.01118849864
1380.000000,0.01282893992
1381.000000,0.008831529167
1382.000000,0.01155015412
1383.000000,0.0105297114
1384.000000,0.01371294383
1385.000000,0.01332845939
1386.000000,0.01135964731
1387.000000,0.01131293243
1388.000000,0.01418982072
1389.000000,0.01247006867
1390.000000,0.01472028741
1391.000000,0.01421959674
1392.000000,0.01281179071
1393.000000,0.01331030326
1394.000000,0.01027225173
1395.000000,0.0140584745
1396.000000,0.01376420675
1397.000000,0.01432017044
1398.000000,0.01744485903
1399.000000,0.0149538735
1400.000000,0.01487066422
1401.000000,0.01500511487
1402.000000,0.01435008365
1403.000000,0.01823275451
1404.000000,0.01554154056
1405.000000,0.01836926874
1406.000000,0.01748432409
1407.000000,0.01485002003
1408.000000,0.01703230454
1409.000000,0.01912200808
1410.000000,0.01647847977
1411.000000,0.01770683201
1412.000000,0.01745992868
1413.000000,0.01789255172
1414.000000,0.02025719643
1415.000000,0.01752403906
1416.000000,0.01899852888
1417.000000,0.02049161135
1418.000000,0.01551123123
1419.000000,0.0207453822
1420.000000,0.02225407279
1421.000000,0.02358642659
1422.000000,0.02235089599
1423.000000,0.02267684974
1424.000000,0.02731549456
1425.000000,0.02533002917
1426.000000,0.02884493111
1427.000000,0.02953279352
1428.000000,0.02945447928
1429.000000,0.03178110423
1430.000000,0.03317034905
1431.000000,0.03900677483
1432.000000,0.04002399434
1433.000000,0.03921132127
1434.000000,0.049797637
1435.000000,0.05289346633
1436.000000,0.05731437356
1437.000000,0.05841623146
1438.000000,0.06565350359
1439.000000,0.07305029869
1440.000000,0.08608234218
1441.000000,0.09391675232
1442.000000,0.1068081138
1443.000000,0.1203692297
1444.000000,0.134911007
1445.000000,0.1583189012
1446.000000,0.1811888193
1447.000000,0.1962019654
1448.000000,0.2125079814
1449.000000,0.2251648612
1450.000000,0.229649976
1451.000000,0.2235810567
1452.000000,0.2132903182
1453.000000,0.1961250842
1454.000000,0.1737790885
1455.000000,0.1574754998
1456.000000,0.1368919689
1457.000000,0.1186702853
1458.000000,0.1064518424
1459.000000,0.09710080362
1460.000000,0.08615131603
1461.000000,0.07670113324
1462.000000,0.0691525381
1463.000000,0.06247544357
1464.000000,0.05655382286
1465.000000,0.05220662878
1466.000000,0.05051139947
1467.000000,0.04227875109
1468.000000,0.04171420556
1469.000000,0.03475424746
1470.000000,0.03653463545
1471.000000,0.03600303719
1472.000000,0.0307824858
1473.000000,0.03333483812
1474.000000,0.02663973848
1475.000000,0.03039203612
1476.000000,0.02568916611
1477.000000,0.02594370007
1478.000000,0.0235320856
1479.000000,0.0247493264
1480.000000,0.02242255019
1481.000000,0.02432364023
1482.000000,0.02151367374
1483.000000,0.02142945276
1484.000000,0.0199119306
1485.000000,0.02080488798
1486.000000,0.01859511243
1487.000000,0.01865919586
1488.000000,0.01601995138
1489.000000,0.0175139862
1490.000000,0.01734855691
1491.000000,0.01755827622
1492.000000,0.01769440371
1493.000000,0.0142746737
1494.000000,0.01872609348
1495.000000,0.02138682881
1496.000000,0.01680810917
1497.000000,0.01266587722
1498.000000,0.01799061088
1499.000000,0.01627409774
1500.000000,0.01571796637
1501.000000,0.01631855211
1502.000000,0.01592686576
1503.000000,0.01537306217
1504.000000,0.01681927087
1505.000000,0.0161333122
1506.000000,0.01491600695
1507.000000,0.01688755421
1508.000000,0.0179384279
1509.000000,0.0179444373
1510.000000,0.0133542926
1511.000000,0.01541213124
1512.000000,0.01649714271
1513.000000,0.01555829056
1514.000000,0.01497408929
1515.000000,0.0175101572
1516.000000,0.01587458611
1517.000000,0.01611430645
1518.000000,0.01219337204
1519.000000,0.0123515874
1520.000000,0.01420610323
1521.000000,0.01557760171
1522.000000,0.01707954448
1523.000000,0.01371155481
1524.000000,0.01846053085
1525.000000,0.01570393066
1526.000000,0.01445560985
1527.000000,0.01703782505
1528.000000,0.01836782919
1529.000000,0.01571383018
1530.000000,0.01574074824
1531.000000,0.01628692808
1532.000000,0.01736469934
1533.000000,0.0154696017
1534.000000,0.01594338629
1535.000000,0.01646036137
1536.000000,0.01595948368
1537.000000,0.01709365554
1538.000000,0.01512202165
1539.000000,0.01276446101
1540.000000,0.01578063839
1541.000000,0.01624837332
1542.000000,0.02093687283
1543.000000,0.01950128667
1544.000000,0.0183865341
1545.000000,0.01688218499
1546.000000,0.0157757863
1547.000000,0.01707664597
1548.000000,0.0196822349
1549.000000,0.01874734987
1550.000000,0.01732867327
1551.000000,0.02015683691
1552.000000,0.01886797594
1553.000000,0.02156488907
1554.000000,0.02496945077
1555.000000,0.02351281283
1556.000000,0.0174535785
1557.000000,0.02531280077
1558.000000,0.02279497369
1559.000000,0.02524058395
1560.000000,0.02630960396
1561.000000,0.0271677905
1562.000000,0.02432890867
1563.000000,0.03172075259
1564.000000,0.02882918945
1565.000000,0.03064863688
1566.000000,0.0349082915
1567.000000,0.03813464774
1568.000000,0.03825062579
1569.000000,0.03935000041
1570.000000,0.04705508762
1571.000000,0.05005115073
1572.000000,0.05764846656
1573.000000,0.06489832918
1574.000000,0.06795980163
1575.000000,0.07781097789
1576.000000,0.09240828536
1577.000000,0.1065474761
1578.000000,0.1309434182
1579.000000,0.1511906474
1580.000000,0.1779526008
1581.000000,0.2054212491
1582.000000,0.2299273168
1583.000000,0.2379749561
1584.000000,0.2339338161
1585.000000,0.2143744925
1586.000000,0.195827507
1587.000000,0.1731352354
1588.000000,0.1564722467
1589.000000,0.1452108765
1590.000000,0.1426997639
1591.000000,0.138680582
1592.000000,0.1442170605
1593.000000,0.1531903737
1594.000000,0.1699753076
1595.000000,0.1917340052
1596.000000,0.2245745299
1597.000000,0.2745965149
1598.000000,0.3408617663
1599.000000,0.4235367157
1600.000000,0.5224938812
1601.000000,0.6098152635
1602.000000,0.6395625029
1603.000000,0.6088886153
1604.000000,0.5193320106
1605.000000,0.4178422136
1606.000000,0.3319915386
1607.000000,0.2568637367
1608.000000,0.2094178926
1609.000000,0.1711419376
1610.000000,0.142225316
1611.000000,0.1199558288
1612.000000,0.1055566424
1613.000000,0.08981280794
1614.000000,0.07644502037
1615.000000,0.06608465929
1616.000000,0.0599374278
1617.000000,0.05521891642
1618.000000,0.0514659259
1619.000000,0.04684343783
1620.000000,0.04381659919
1621.000000,0.03911249486
1622.000000,0.03681413371
1623.000000,0.03608721286
1624.000000,0.03281402067
1625.000000,0.03016066532
1626.000000,0.02899532355
1627.000000,0.02943501263
1628.000000,0.02619332557
1629.000000,0.02548684889
1630.000000,0.02872513525
1631.000000,0.02392215585
1632.000000,0.02372614721
1633.000000,0.02479301508
1634.000000,0.02533655373
1635.000000,0.02261280109
1636.000000,0.01807215608
1637.000000,0.02489164177
1638.000000,0.01779633901
1639.000000,0.01681581338
1640.000000,0.01708459866
1641.000000,0.02123452054
1642.000000,0.01785359723
1643.000000,0.0137899858
1644.000000,0.02103350873
1645.000000,0.01384617385
1646.000000,0.02044751354
1647.000000,0.01135202756
1648.000000,0.01592432084
1649.000000,0.0160036951
1650.000000,0.0145380308
1651.000000,0.01537779695
1652.000000,0.01747744749
1653.000000,0.01554177137
1654.000000,0.01641572328
1655.000000,0.01505379068
1656.000000,0.01504136959
1657.000000,0.01335064371
1658.000000,0.01424461185
1659.000000,0.01604349039
1660.000000,0.0163249395
1661.000000,0.01165614409
1662.000000,0.01261990052
1663.000000,0.01410872967
1664.000000,0.01339442023
1665.000000,0.01192576194
1666.000000,0.009335492625
1667.000000,0.01392115397
1668.000000,0.01187201891
1669.000000,0.01730381976
1670.000000,0.01546363853
1671.000000,0.0138976463
1672.000000,0.01033437104
1673.000000,0.01143037651
1674.000000,0.01505465606
1675.000000,0.01117765106
1676.000000,0.01219388357
1677.000000,0.01350317875
1678.000000,0.01379189776
1679.000000,0.01179868939
1680.000000,0.01348116787
1681.000000,0.009054757992
1682.000000,0.01233979895
1683.000000,0.01205400668
1684.000000,0.01561940667
1685.000000,0.01305286119
1686.000000,0.007665184816
1687.000000,0.01520798447
1688.000000,0.01752905524
1689.000000,0.01317181359
1690.000000,0.01339798024
1691.000000,0.0151644429
1692.000000,0.01190388435
1693.000000,0.01179172137
1694.000000,0.01234726122
1695.000000,0.005149933008
1696.000000,0.01064081326
1697.000000,0.01308734164
1698.000000,0.01291914492
1699.000000,0.008594380905
1700.000000,0.01113791163
1701.000000,0.01047588595
1702.000000,0.01011587854
1703.000000,0.01342015165
1704.000000,0.009728545298
1705.000000,0.01103082755
1706.000000,0.01274131256
1707.000000,0.00955749123
1708.000000,0.01133636146
1709.000000,0.009350551481
1710.000000,0.01126500735
1711.000000,0.01105606627
1712.000000,0.01253142143
1713.000000,0.01030500672
1714.000000,0.01062773831
1715.000000,0.007946523525
1716.000000,0.009872603868
1717.000000,0.009040535556
1718.000000,0.008490712463
1719.000000,0.01035378015
1720.000000,0.01105058539
1721.000000,0.010917922
1722.000000,0.01326509875
1723.000000,0.009919060637
1724.000000,0.009526009371
1725.000000,0.006679550395
1726.000000,0.01325935823
1727.000000,0.01240213591
1728.000000,0.01226403178
1729.000000,0.009423424557
1730.000000,0.009728569653
1731.000000,0.009793632543
1732.000000,0.008305490403
1733.000000,0.01166876487
1734.000000,0.01070220395
1735.000000,0.01335428569
1736.000000,0.01125992622
1737.000000,0.01045970706
1738.000000,0.01219879862
1739.000000,0.01229119193
1740.000000,0.008659212976
1741.000000,0.007582921465
1742.000000,0.008467849765
1743.000000,0.01267031412
1744.000000,0.01208529091
1745.000000,0.01350816159
1746.000000,0.01093469459
1747.000000,0.01155941955
1748.000000,0.009992154658
1749.000000,0.01473275245
1750.000000,0.01216321563
1751.000000,0.01388685833
1752.000000,0.01174579309
1753.000000,0.009223376077
1754.000000,0.01274983442
1755.000000,0.007683624628
1756.000000,0.01235307727
1757.000000,0.01048160672
1758.000000,0.01152089926
1759.000000,0.008299689251
1760.000000,0.01084967434
1761.000000,0.00942226424
1762.000000,0.008971456749
1763.000000,0.01349592178
1764.000000,0.01170783731
1765.000000,0.009913022723
1766.000000,0.009327844259
1767.000000,0.009887386296
1768.000000,0.01097155756
1769.000000,0.01128860102
1770.000000,0.01080810996
1771.000000,0.007164297882
1772.000000,0.01064545437
1773.000000,0.01108442892
1774.000000,0.01208863604
1775.000000,0.01053017289
1776.000000,0.01026626258
1777.000000,0.01071268089
1778.000000,0.009497008674
1779.000000,0.01471621901
1780.000000,0.009035274747
1781.000000,0.008610453714
1782.000000,0.01109545045
1783.000000,0.01105948033
1784.000000,0.01181414449
1785.000000,0.01017101592
1786.000000,0.009389763827
1787.000000,0.008756844575
1788.000000,0.01051394434
1789.000000,0.01103491968
1790.000000,0.01040119154
1791.000000,0.008041536195
1792.000000,0.007869192211
1793.000000,0.01268256023
1794.000000,0.01052896597
1795.000000,0.01011636683
1796.000000,0.01404639781
1797.000000,0.01229972496
1798.000000,0.00781006287
1799.000000,0.009846360734
1800.000000,0.01237052843
1801.000000,0.01170350079
1802.000000,0.01106287205
1803.000000,0.01362229133
1804.000000,0.007789630774
1805.000000,0.01210355038
1806.000000,0.009433732594
1807.000000,0.01289811363
1808.000000,0.01036922629
1809.000000,0.007267498457
1810.000000,0.01098272679
1811.000000,0.005456079143
1812.000000,0.01269132865
1813.000000,0.01115239037
1814.000000,0.01286264403
1815.000000,0.01109982953
1816.000000,0.01088293506
1817.000000,0.01342097271
1818.000000,0.01212607734
1819.000000,0.007612351304
1820.000000,0.009467905794
1821.000000,0.01349142436
1822.000000,0.008118988791
1823.000000,0.007946883521
1824.000000,0.008786670546
1825.000000,0.007448009768
1826.000000,0.0106699634
1827.000000,0.009974101402
1828.000000,0.01238096448
1829.000000,0.009788588775
1830.000000,0.01356536921
1831.000000,0.009770530487
1832.000000,0.0121636553
1833.000000,0.01271148158
1834.000000,0.01110480646
1835.000000,0.009948704731
1836.000000,0.007652140804
1837.000000,0.008126338603
1838.000000,0.01141452069
1839.000000,0.009525352084
1840.000000,0.01150945754
1841.000000,0.008907035213
1842.000000,0.01030029078
1843.000000,0.0104231923
1844.000000,0.01175146668
1845.000000,0.009572548794
1846.000000,0.01171667684
1847.000000,0.006971729659
1848.000000,0.007696589672
1849.000000,0.01046422531
1850.000000,0.009950887662
1851.000000,0.01120842901
1852.000000,0.007018023204
1853.000000,0.01082882832
1854.000000,0.006856449834
1855.000000,0.01289028403
1856.000000,0.008799381186
1857.000000,0.009343319367
1858.000000,0.01139375487
1859.000000,0.01100243456
1860.000000,0.009173297873
1861.000000,0.009901925443
1862.000000,0.01366909617
1863.000000,0.008395562172
1864.000000,0.01337417014
1865.000000,0.009222645743
1866.000000,0.007897361353
1867.000000,0.01287958711
1868.000000,0.0116051921
1869.000000,0.01054558508
1870.000000,0.01241946939
1871.000000,0.01007812795
1872.000000,0.009506517364
1873.000000,0.011539203
1874.000000,0.01102803486
1875.000000,0.009135676972
1876.000000,0.01300636716
1877.000000,0.01137289306
1878.000000,0.01377487376
1879.000000,0.01744976422
1880.000000,0.008045075818
1881.000000,0.01169001287
1882.000000,0.01133612855
1883.000000,0.008240060648
1884.000000,0.0116113887
1885.000000,0.005461829177
1886.000000,0.008099366295
1887.000000,0.01204626748
1888.000000,0.007655389398
1889.000000,0.009064718775
1890.000000,0.01019769465
1891.000000,0.007750331912
1892.000000,0.008954035738
1893.000000,0.01098931979
1894.000000,0.010456112
1895.000000,0.009788974097
1896.000000,0.01288517965
1897.000000,0.009865466333
1898.000000,0.01180118638
1899.000000,0.01044952849
1900.000000,0.007552034864
1901.000000,0.008417314897
1902.000000,0.01134825955
1903.000000,0.007437681978
1904.000000,0.01068735831
1905.000000,0.01158837353
1906.000000,0.008085446017
1907.000000,0.006652914022
1908.000000,0.01247545341
1909.000000,0.01371927868
1910.000000,0.01074569181
1911.000000,0.0137011445
1912.000000,0.01146260917
1913.000000,0.009190096579
1914.000000,0.01060019304
1915.000000,0.01164827392
1916.000000,0.003864332729
1917.000000,0.01081624471
1918.000000,0.01277531299
1919.000000,0.01172360881
1920.000000,0.009588902123
1921.000000,0.009655920909
1922.000000,0.006504663704
1923.000000,0.01191445512
1924.000000,0.005843053648
1925.000000,0.0118011387
1926.000000,0.01102739992
1927.000000,0.00943473631
1928.000000,0.01127117035
1929.000000,0.01216927709
1930.000000,0.009219220023
1931.000000,0.007531931686
1932.000000,0.01206618807
1933.000000,0.01005337447
1934.000000,0.01076204288
1935.000000,0.008048784075
1936.000000,0.0130603072
1937.000000,0.01201664413
1938.000000,0.007535173961
1939.000000,0.006519031337
1940.000000,0.01072247494
1941.000000,0.009841038265
1942.000000,0.008910825738
1943.000000,0.008743036445
1944.000000,0.009995801094
1945.000000,0.01048225592
1946.000000,0.01055929369
1947.000000,0.01361136523
1948.000000,0.01334898515
1949.000000,0.005634585441
1950.000000,0.01199602446
1951.000000,0.01298273517
1952.000000,0.006972604014
1953.000000,0.008937653193
1954.000000,0.009308175663
1955.000000,0.01174568783
1956.000000,0.01102220843
1957.000000,0.01082809293
1958.000000,0.01062841721
1959.000000,0.01212050712
1960.000000,0.01088926365
1961.000000,0.008298858079
1962.000000,0.008295956015
1963.000000,0.008914889945
1964.000000,0.01387688545
1965.000000,0.01100119112
1966.000000,0.0117144294
1967.000000,0.01369144967
1968.000000,0.01104970295
1969.000000,0.006264296247
1970.000000,0.01088570046
1971.000000,0.009056943268
1972.000000,0.00916776138
1973.000000,0.008818831642
1974.000000,0.009949115599
1975.000000,0.007794988129
1976.000000,0.01219313946
1977.000000,0.01154198587
1978.000000,0.01112796316
1979.000000,0.01099930594
1980.000000,0.008112147975
1981.000000,0.01198879953
1982.000000,0.008267434653
1983.000000,0.006946879528
1984.000000,0.00955736058
1985.000000,0.0105048128
1986.000000,0.0106125384
1987.000000,0.01241388098
1988.000000,0.0094731683
1989.000000,0.01272139382
1990.000000,0.0134198494
1991.000000,0.01099003026
1992.000000,0.008207620662
1993.000000,0.01298870482
1994.000000,0.0103368323
1995.000000,0.01062909071
1996.000000,0.007408714289
1997.000000,0.006624740319
1998.000000,0.01347569287
1999.000000,0.01190004756
2000.000000,0.008751185565
