raman_shift_cm-1,intensity
200.000000,0.007866541335
201.000000,0.008623390208
202.000000,0.0085100514
203.000000,0.01060783723
204.000000,0.009576948857
205.000000,0.01032730241
206.000000,0.01176064866
207.000000,0.01179066503
208.000000,0.01102538887
209.000000,0.009173715276
210.000000,0.008565620044
211.000000,0.008446089787
212.000000,0.009388242948
213.000000,0.009973428417
214.000000,0.00813187848
215.000000,0.007807689298
216.000000,0.01068831464
217.000000,0.006373775306
218.000000,0.009723280843
219.000000,0.01092928303
220.000000,0.008107165674
221.000000,0.007852215182
222.000000,0.008557119313
223.000000,0.01137466988
224.000000,0.00981920871
225.000000,0.006339929092
226.000000,0.009232678897
227.000000,0.01210742571
228.000000,0.01204731924
229.000000,0.01134023036
230.000000,0.009604288226
231.000000,0.006390786948
232.000000,0.01042008452
233.000000,0.009729237407
234.000000,0.01023505806
235.000000,0.01316633349
236.000000,0.01044936084
237.000000,0.01063493143
238.000000,0.01129273042
239.000000,0.009569670854
240.000000,0.008754370826
241.000000,0.008608613858
242.000000,0.01161757101
243.000000,0.01109302316
244.000000,0.009105106232
245.000000,0.01238987289
246.000000,0.01045342999
247.000000,0.007404616746
248.000000,0.01129709966
249.000000,0.009806660324
250.000000,0.00742831974
251.000000,0.01111718656
252.000000,0.009396879106
253.000000,0.009302124011
254.000000,0.01126689995
255.000000,0.005702415402
256.000000,0.007533110999
257.000000,0.009238975566
258.000000,0.01058664942
259.000000,0.008758415969
260.000000,0.008095506248
261.000000,0.007984406692
262.000000,0.009854980658
263.000000,0.01143992291
264.000000,0.007190196904
265.000000,0.005929763213
266.000000,0.009496091018
267.000000,0.009327131309
268.000000,0.008273532934
269.000000,0.01131530776
270.000000,0.01170141589
271.000000,0.008964150219
272.000000,0.009403917335
273.000000,0.01123321553
274.000000,0.009235071066
275.000000,0.007287548946
276.000000,0.009959044874
277.000000,0.008286062272
278.000000,0.0107454356
279.000000,0.009084878212
280.000000,0.009717274415
281.000000,0.01113476079
282.000000,0.009846653536
283.000000,0.008828619315
284.000000,0.00808410041
285.000000,0.01353951909
286.000000,0.01231096374
287.000000,0.007090810903
288.000000,0.007993618011
289.000000,0.01126688797
290.000000,0.008922511783
291.000000,0.01012994852
292.000000,0.01172802773
293.000000,0.01035796827
294.000000,0.00984234554
295.000000,0.009153970843
296.000000,0.009928717743
297.000000,0.01087532796
298.000000,0.01357189196
299.000000,0.01223276714
300.000000,0.009704271887
301.000000,0.01193670326
302.000000,0.01033826955
303.000000,0.007141632447
304.000000,0.009891512455
305.000000,0.01209460966
306.000000,0.008912932783
307.000000,0.01197806524
308.000000,0.009493147731
309.000000,0.01015992588
310.000000,0.007725082411
311.000000,0.01424817754
312.000000,0.01101513693
313.000000,0.01212556753
314.000000,0.009203738118
315.000000,0.00718279965
316.000000,0.01253328166
317.000000,0.008686794346
318.000000,0.01341509116
319.000000,0.009769248022
320.000000,0.01336098357
321.000000,0.008654341927
322.000000,0.00658489491
323.000000,0.01150953436
324.000000,0.009977740331
325.000000,0.01010888496
326.000000,0.01221223407
327.000000,0.008351008863
328.000000,0.007526554096
329.000000,0.007779445426
330.000000,0.006752493664
331.000000,0.006500094909
332.000000,0.007547377612
333.000000,0.008170368743
334.000000,0.009201030582
335.000000,0.007690708393
336.000000,0.009820631397
337.000000,0.01158299506
338.000000,0.009617565011
339.000000,0.01088086438
340.000000,0.008207460018
341.000000,0.01059698815
342.000000,0.0109315316
343.000000,0.008687417285
344.000000,0.006893911259
345.000000,0.0095587197
346.000000,0.00989014344
347.000000,0.01273008927
348.000000,0.009041583137
349.000000,0.01309949761
350.000000,0.005046413903
351.000000,0.009194681406
352.000000,0.008815507484
353.000000,0.009020429179
354.000000,0.008716260369
355.000000,0.009666138743
356.000000,0.01301033819
357.000000,0.009452312256
358.000000,0.01210897058
359.000000,0.009560541584
360.000000,0.00996336317
361.000000,0.005047837265
362.000000,0.009918979398
363.000000,0.01094427721
364.000000,0.007496565983
365.000000,0.008536965151
366.000000,0.008054680217
367.000000,0.01392929159
368.000000,0.007801315067
369.000000,0.008313344266
370.000000,0.004376441591
371.000000,0.006616346125
372.000000,0.01013944976
373.000000,0.007205052697
374.000000,0.004275421823
375.000000,0.009148977736
376.000000,0.009922515052
377.000000,0.01024602886
378.000000,0.0104455415
379.000000,0.00851834226
380.000000,0.01524628509
381.000000,0.00862111127
382.000000,0.01059144287
383.000000,0.007213311895
384.000000,0.008494296243
385.000000,0.006708188205
386.000000,0.01014715304
387.000000,0.008935999485
388.000000,0.007747057928
389.000000,0.005773021769
390.000000,0.01081789397
391.000000,0.0113483288
392.000000,0.0113869906
393.000000,0.009569995952
394.000000,0.01111726139
395.000000,0.01155532904
396.000000,0.01077097297
397.000000,0.01260293465
398.000000,0.009462309274
399.000000,0.01019789486
400.000000,0.00680000098
401.000000,0.01394306034
402.000000,0.008341963618
403.000000,0.01047762766
404.000000,0.01109250701
405.000000,0.008251048878
406.000000,0.009781813039
407.000000,0.01123639986
408.000000,0.009699274904
409.000000,0.00929276402
410.000000,0.009272215033
411.000000,0.00850317515
412.000000,0.009577673169
413.000000,0.01064383307
414.000000,0.01082628857
415.000000,0.01209552006
416.000000,0.01004327554
417.000000,0.008934263477
418.000000,0.01161952791
419.000000,0.01065276248
420.000000,0.01194883884
421.000000,0.01034505349
422.000000,0.01103589849
423.000000,0.01076202345
424.000000,0.01143593439
425.000000,0.008068883484
426.000000,0.009793125016
427.000000,0.0103597878
428.000000,0.01340026135
429.000000,0.009868353124
430.000000,0.01092099398
431.000000,0.009663157123
432.000000,0.005935699612
433.000000,0.01248264508
434.000000,0.01136142279
435.000000,0.01249148938
436.000000,0.007334600391
437.000000,0.0105865451
438.000000,0.01037570783
439.000000,0.006932060684
440.000000,0.01095428163
441.000000,0.008832454704
442.000000,0.01100796421
443.000000,0.006753008329
444.000000,0.008295962714
445.000000,0.008638699153
446.000000,0.007027253271
447.000000,0.01015523248
448.000000,0.01263799973
449.000000,0.01001129678
450.000000,0.01129844646
451.000000,0.01296643738
452.000000,0.01115386934
453.000000,0.00932271319
454.000000,0.006266733593
455.000000,0.01076233052
456.000000,0.00942036309
457.000000,0.009167302303
458.000000,0.01151466623
459.000000,0.01116303228
460.000000,0.006976644054
461.000000,0.0105652169
462.000000,0.009446989711
463.000000,0.01178350457
464.000000,0.01005279421
465.000000,0.01193139613
466.000000,0.008788467334
467.000000,0.009314139309
468.000000,0.009032276654
469.000000,0.009749489473
470.000000,0.009632942826
471.000000,0.01247180869
472.000000,0.008170545231
473.000000,0.01028697633
474.000000,0.007810495411
475.000000,0.007267959283
476.000000,0.008950328763
477.000000,0.007144833323
478.000000,0.01048191885
479.000000,0.008685266827
480.000000,0.009084826763
481.000000,0.01104061851
482.000000,0.01322962593
483.000000,0.00909986882
484.000000,0.00627762229
485.000000,0.009372717153
486.000000,0.01015503381
487.000000,0.0124235467
488.000000,0.0100970728
489.000000,0.008437499044
490.000000,0.01202856582
491.000000,0.01235545027
492.000000,0.009836834427
493.000000,0.01079694411
494.000000,0.01094817933
495.000000,0.0153691301
496.000000,0.009064211753
497.000000,0.009444595315
498.000000,0.01007723588
499.000000,0.01170710077
500.000000,0.009699579917
501.000000,0.01131476128
502.000000,0.01209089693
503.000000,0.01423200314
504.000000,0.01001699032
505.000000,0.009715513237
506.000000,0.009680647335
507.000000,0.00666899749
508.000000,0.008017204307
509.000000,0.0106590806
510.000000,0.01066872012
511.000000,0.01550574124
512.000000,0.01283970443
513.000000,0.01192083524
514.000000,0.01331080333
515.000000,0.009118681682
516.000000,0.009285375983
517.000000,0.008934253335
518.000000,0.01010836071
519.000000,0.01470441776
520.000000,0.009920758521
521.000000,0.00917779275
522.000000,0.01054585116
523.000000,0.01213369085
524.000000,0.01143525201
525.000000,0.0121920856
526.000000,0.008119113545
527.000000,0.008802829726
528.000000,0.01007475671
529.000000,0.01073161555
530.000000,0.01326454828
531.000000,0.008055760043
532.000000,0.011860164
533.000000,0.01014073272
534.000000,0.01182829657
535.000000,0.009322761329
536.000000,0.007871204504
537.000000,0.01299922411
538.000000,0.0112458342
539.000000,0.006824727845
540.000000,0.01208131593
541.000000,0.008713187633
542.000000,0.01051796745
543.000000,0.01070983778
544.000000,0.00808131436
545.000000,0.01297742303
546.000000,0.009751917151
547.000000,0.01404499716
548.000000,0.01179367067
549.000000,0.01187294106
550.000000,0.01140687222
551.000000,0.01481560799
552.000000,0.008887771962
553.000000,0.009394627412
554.000000,0.00965827627
555.000000,0.01328814019
556.000000,0.01311981316
557.000000,0.01123139097
558.000000,0.01162437783
559.000000,0.007847141983
560.000000,0.01411459199
561.000000,0.0107545449
562.000000,0.01147412051
563.000000,0.01067266383
564.000000,0.01261755544
565.000000,0.01093121493
566.000000,0.01164575412
567.000000,0.01163300076
568.000000,0.01049508636
569.000000,0.01034340431
570.000000,0.01240431481
571.000000,0.0124468928
572.000000,0.01321327421
573.000000,0.01470901248
574.000000,0.009426434747
575.000000,0.008294144102
576.000000,0.01124050061
577.000000,0.01467532074
578.000000,0.01214265922
579.000000,0.008701023415
580.000000,0.01562012687
581.000000,0.01355902562
582.000000,0.009700663349
583.000000,0.01116177889
584.000000,0.01316467943
585.000000,0.01201900107
586.000000,0.01302966395
587.000000,0.01452234121
588.000000,0.0137046147
589.000000,0.01669808908
590.000000,0.01378610078
591.000000,0.01741643786
592.000000,0.01357467844
593.000000,0.01274643922
594.000000,0.01126429383
595.000000,0.01413084398
596.000000,0.01651115368
597.000000,0.01876357306
598.000000,0.01059060272
599.000000,0.01803720205
600.000000,0.01695017465
601.000000,0.02119074142
602.000000,0.01978302752
603.000000,0.02260568275
604.000000,0.02701493078
605.000000,0.02530546132
606.000000,0.02674187736
607.000000,0.03144448918
608.000000,0.03300220525
609.000000,0.03563261061
610.000000,0.03733924504
611.000000,0.04552179858
612.000000,0.05017257826
613.000000,0.06326657397
614.000000,0.07617143678
615.000000,0.09090468664
616.000000,0.1144544716
617.000000,0.1325722659
618.000000,0.1613564086
619.000000,0.1818392907
620.000000,0.1878845732
621.000000,0.1827593286
622.000000,0.1621946577
623.000000,0.1370873539
624.000000,0.1104589539
625.000000,0.09206251422
626.000000,0.07373182448
627.000000,0.06584523314
628.000000,0.05708933852
629.000000,0.04657329467
630.000000,0.04102998163
631.000000,0.03395919245
632.000000,0.03251577286
633.000000,0.02880922003
634.000000,0.02759465483
635.000000,0.02235206304
636.000000,0.02701254887
637.000000,0.02246354314
638.000000,0.02304879296
639.000000,0.02085211375
640.000000,0.0184137132
641.000000,0.02204363311
642.000000,0.01976948969
643.000000,0.01400740425
644.000000,0.01639782489
645.000000,0.01551919243
646.000000,0.01397429003
647.000000,0.01950199805
648.000000,0.01244716747
649.000000,0.01760737249
650.000000,0.01089082473
651.000000,0.01679227749
652.000000,0.01279707718
653.000000,0.009180159779
654.000000,0.01400770059
655.000000,0.01425589124
656.000000,0.01133585528
657.000000,0.015160497
658.000000,0.009526533395
659.000000,0.01500279047
660.000000,0.0138194322
661.000000,0.01611401109
662.000000,0.01166173484
663.000000,0.01411943077
664.000000,0.01112456093
665.000000,0.01384751489
666.000000,0.01263494161
667.000000,0.01367272378
668.000000,0.009463155382
669.000000,0.01293271526
670.000000,0.01263913699
671.000000,0.01485115313
672.000000,0.01113331247
673.000000,0.01140138801
674.000000,0.01300358307
675.000000,0.0127299975
676.000000,0.006624270294
677.000000,0.01104641461
678.000000,0.01328208975
679.000000,0.01083468448
680.000000,0.007818353494
681.000000,0.01078812318
682.000000,0.01139810581
683.000000,0.009500742634
684.000000,0.01155675938
685.000000,0.009182703346
686.000000,0.01095910353
687.000000,0.01148604309
688.000000,0.01483853822
689.000000,0.01199019489
690.000000,0.01380371339
691.000000,0.01169309912
692.000000,0.00898513608
693.000000,0.008934004129
694.000000,0.0127940648
695.000000,0.008026230191
696.000000,0.008028022999
697.000000,0.01298986779
698.000000,0.009560779467
699.000000,0.008887568022
700.000000,0.01445089094
701.000000,0.009427946997
702.000000,0.01237279698
703.000000,0.01108684168
704.000000,0.01141703813
705.000000,0.01123757796
706.000000,0.01315384764
707.000000,0.01409537652
708.000000,0.009293470304
709.000000,0.01418672851
710.000000,0.01072265551
711.000000,0.01081561772
712.000000,0.0125191822
713.000000,0.01008261816
714.000000,0.009330614032
715.000000,0.01418447059
716.000000,0.01003309474
717.000000,0.006976090416
718.000000,0.004654398283
719.000000,0.01184333021
720.000000,0.01091657066
721.000000,0.01466255821
722.000000,0.008916391349
723.000000,0.008839469203
724.000000,0.01133653213
725.000000,0.01393844161
726.000000,0.01410560992
727.000000,0.01139021946
728.000000,0.01006222812
729.000000,0.01163183015
730.000000,0.01441222287
731.000000,0.01125403016
732.000000,0.01054911246
733.000000,0.0123534366
734.000000,0.0118930915
735.000000,0.01174864365
736.000000,0.01568809839
737.000000,0.01292330363
738.000000,0.01186377461
739.000000,0.01097678779
740.000000,0.011176134
741.000000,0.01276260905
742.000000,0.01323979653
743.000000,0.01059394188
744.000000,0.01085717688
745.000000,0.01141279401
746.000000,0.01014663755
747.000000,0.01424353437
748.000000,0.01034648504
749.000000,0.01250534772
750.000000,0.0142317707
751.000000,0.01039747349
752.000000,0.01074064273
753.000000,0.0122442103
754.000000,0.01362160515
755.000000,0.01308853008
756.000000,0.01293741875
757.000000,0.01544058159
758.000000,0.01194985743
759.000000,0.01187910022
760.000000,0.01467077017
761.000000,0.01377661326
762.000000,0.01560350096
763.000000,0.01606935238
764.000000,0.01195623666
765.000000,0.01021887089
766.000000,0.01572986756
767.000000,0.01482570316
768.000000,0.015787986
769.000000,0.01378589119
770.000000,0.01755784522
771.000000,0.01595323873
772.000000,0.01798995911
773.000000,0.01925815146
774.000000,0.01829200056
775.000000,0.01860596726
776.000000,0.01822302608
777.000000,0.02587577137
778.000000,0.01889205833
779.000000,0.02426120739
780.000000,0.0213355667
781.000000,0.0244115139
782.000000,0.03088793183
783.000000,0.02907809514
784.000000,0.03557074046
785.000000,0.03624436908
786.000000,0.04304955027
787.000000,0.04372093796
788.000000,0.05062829911
789.000000,0.06342850037
790.000000,0.07020659242
791.000000,0.07769725712
792.000000,0.08956375284
793.000000,0.09498806482
794.000000,0.1071733416
795.000000,0.1078702452
796.000000,0.105878065
797.000000,0.1034967389
798.000000,0.08941713476
799.000000,0.07848857206
800.000000,0.06730427301
801.000000,0.06183379851
802.000000,0.05394973225
803.000000,0.04482128919
804.000000,0.0379618577
805.000000,0.03654498449
806.000000,0.03367894601
807.000000,0.02654237521
808.000000,0.03033715906
809.000000,0.02419520408
810.000000,0.02448430737
811.000000,0.02126865394
812.000000,0.02004925041
813.000000,0.02234745413
814.000000,0.01975625751
815.000000,0.01573700298
816.000000,0.01873564697
817.000000,0.01907539316
818.000000,0.01654195952
819.000000,0.01854178293
820.000000,0.01411874511
821.000000,0.01746912615
822.000000,0.01566704476
823.000000,0.0152505983
824.000000,0.01737082358
825.000000,0.01577571749
826.000000,0.01352490037
827.000000,0.0149519555
828.000000,0.01240536748
829.000000,0.0145879003
830.000000,0.01603688467
831.000000,0.01569013758
832.000000,0.01172848867
833.000000,0.01253359599
834.000000,0.01417355556
835.000000,0.0139551749
836.000000,0.01119594227
837.000000,0.01302432294
838.000000,0.01328261662
839.000000,0.01547136998
840.000000,0.01282627203
841.000000,0.01212788875
842.000000,0.01006712201
843.000000,0.009423986543
844.000000,0.01394640857
845.000000,0.01219382199
846.000000,0.01111416498
847.000000,0.01390435235
848.000000,0.01288475827
849.000000,0.01166915151
850.000000,0.01328008263
851.000000,0.0109974886
852.000000,0.01321608599
853.000000,0.01251809538
854.000000,0.01087715858
855.000000,0.01092708672
856.000000,0.01021839739
857.000000,0.0134471175
858.000000,0.01137674024
859.000000,0.009589833487
860.000000,0.01303854263
861.000000,0.01254990714
862.000000,0.01159772481
863.000000,0.01198501166
864.000000,0.01081226207
865.000000,0.01035859278
866.000000,0.01322712534
867.000000,0.00926607683
868.000000,0.008437216511
869.000000,0.008827681611
870.000000,0.01318929151
871.000000,0.009329655837
872.000000,0.0108975231
873.000000,0.01000167726
874.000000,0.009404198602
875.000000,0.0110889702
876.000000,0.01117468748
877.000000,0.01530833768
878.000000,0.01074963771
879.000000,0.01194009556
880.000000,0.0154471992
881.000000,0.01426003294
882.000000,0.01268991436
883.000000,0.01326066364
884.000000,0.01141475275
885.000000,0.01314420044
886.000000,0.01204042247
887.000000,0.009878530388
888.000000,0.0149638036
889.000000,0.01152363846
890.000000,0.01268205357
891.000000,0.01054793768
892.000000,0.009161281798
893.000000,0.008071969959
894.000000,0.00502457871
895.000000,0.01279175669
896.000000,0.008132730403
897.000000,0.0105500441
898.000000,0.01161532443
899.000000,0.008671135605
900.000000,0.01061134396
901.000000,0.01240561981
902.000000,0.01119632471
903.000000,0.01282940049
904.000000,0.00642954146
905.000000,0.01289959407
906.000000,0.01345418156
907.000000,0.009101786914
908.000000,0.01332238
909.000000,0.01103826595
910.000000,0.01135080088
911.000000,0.01297951257
912.000000,0.008943746603
913.000000,0.01356952601
914.000000,0.01051767316
915.000000,0.01354222915
916.000000,0.01187194348
917.000000,0.01260765848
918.000000,0.01045119432
919.000000,0.01204947937
920.000000,0.00984843266
921.000000,0.01083163057
922.000000,0.009440395611
923.000000,0.01214590609
924.000000,0.01034482108
925.000000,0.01703241022
926.000000,0.01066050356
927.000000,0.008146589067
928.000000,0.01472375339
929.000000,0.01182845478
930.000000,0.01359669259
931.000000,0.01279243672
932.000000,0.01116799942
933.000000,0.01160986764
934.000000,0.01071331353
935.000000,0.01575396044
936.000000,0.01431276221
937.000000,0.01046232471
938.000000,0.01510833455
939.000000,0.01440583902
940.000000,0.01008602658
941.000000,0.01178766514
942.000000,0.01431326448
943.000000,0.01417851764
944.000000,0.01780846514
945.000000,0.01382889698
946.000000,0.01584393258
947.000000,0.0131128502
948.000000,0.01398488427
949.000000,0.01436446099
950.000000,0.01437677917
951.000000,0.01506280877
952.000000,0.01498816776
953.000000,0.01174776511
954.000000,0.01657246508
955.000000,0.01311627426
956.000000,0.01723603546
957.000000,0.01710871408
958.000000,0.01745024921
959.000000,0.01514672438
960.000000,0.01718537167
961.000000,0.01834757788
962.000000,0.01617313688
963.000000,0.0146338175
964.000000,0.02138509641
965.000000,0.0178855559
966.000000,0.01780503965
967.000000,0.01727168474
968.000000,0.01731438628
969.000000,0.01498293423
970.000000,0.01879627612
971.000000,0.01944982653
972.000000,0.02061114512
973.000000,0.02703714886
974.000000,0.02384472223
975.000000,0.02429607873
976.000000,0.02635553818
977.000000,0.02591702797
978.000000,0.03147605745
979.000000,0.03296032571
980.000000,0.03080854389
981.000000,0.03639051822
982.000000,0.03833664891
983.000000,0.04491570147
984.000000,0.04541416199
985.000000,0.04398206296
986.000000,0.05057331629
987.000000,0.05856216046
988.000000,0.06488137416
989.000000,0.07463025177
990.000000,0.08240581176
991.000000,0.09669231106
992.000000,0.1167122902
993.000000,0.1384391541
994.000000,0.1692699022
995.000000,0.219140795
996.000000,0.2791478358
997.000000,0.3751798365
998.000000,0.5134080984
999.000000,0.7082647391
1000.000000,0.9122965066
1001.000000,1.019177597
1002.000000,0.9120668828
1003.000000,0.7109726525
1004.000000,0.5156983808
1005.000000,0.3786416576
1006.000000,0.2862540579
1007.000000,0.2192114548
1008.000000,0.1761291063
1009.000000,0.1428257554
1010.000000,0.1211852766
1011.000000,0.1079390723
1012.000000,0.09200349043
1013.000000,0.08633837454
1014.000000,0.07848646548
1015.000000,0.07274288302
1016.000000,0.07252940423
1017.000000,0.06724276486
1018.000000,0.06972105939
1019.000000,0.0677839664
1020.000000,0.07290459795
1021.000000,0.0757511953
1022.000000,0.08601910626
1023.000000,0.09801114015
1024.000000,0.1132274037
1025.000000,0.133374414
1026.000000,0.1632790477
1027.000000,0.2048508759
1028.000000,0.2640532665
1029.000000,0.3365686036
1030.000000,0.4135018726
1031.000000,0.4402230653
1032.000000,0.4078030009
1033.000000,0.3361096948
1034.000000,0.2591829184
1035.000000,0.2036290972
1036.000000,0.1550303547
1037.000000,0.1220912307
1038.000000,0.1046162897
1039.000000,0.0866037022
1040.000000,0.07293702948
1041.000000,0.06103902014
1042.000000,0.0573913524
1043.000000,0.0485895562
1044.000000,0.04433801451
1045.000000,0.04220609372
1046.000000,0.03703767531
1047.000000,0.03308639433
1048.000000,0.02742034153
1049.000000,0.03205378644
1050.000000,0.02359972388
1051.000000,0.02509386544
1052.000000,0.02351356801
1053.000000,0.02308807553
1054.000000,0.02235381258
1055.000000,0.02321173785
1056.000000,0.02082587369
1057.000000,0.01518188146
1058.000000,0.02008548099
1059.000000,0.01714550564
1060.000000,0.0181722119
1061.000000,0.0159687769
1062.000000,0.01783432958
1063.000000,0.01714345646
1064.000000,0.0189338415
1065.000000,0.01791374597
1066.000000,0.01864654648
1067.000000,0.01354546421
1068.000000,0.0189702491
1069.000000,0.0149657886
1070.000000,0.016636434
1071.000000,0.01692074887
1072.000000,0.01691870078
1073.000000,0.01498543752
1074.000000,0.01230414027
1075.000000,0.01660061328
1076.000000,0.01738000405
1077.000000,0.01710806251
1078.000000,0.01692848799
1079.000000,0.01777596562
1080.000000,0.01630846528
1081.000000,0.01357488966
1082.000000,0.01576147053
1083.000000,0.01201816042
1084.000000,0.01401438194
1085.000000,0.01427337763
1086.000000,0.01618940499
1087.000000,0.01331695174
1088.000000,0.01342474774
1089.000000,0.01274168547
1090.000000,0.01472299759
1091.000000,0.01029188871
1092.000000,0.009190615786
1093.000000,0.01695783836
1094.000000,0.01603815303
1095.000000,0.01488352039
1096.000000,0.01428667337
1097.000000,0.01235061476
1098.000000,0.01053590507
1099.000000,0.01436765903
1100.000000,0.01129075042
1101.000000,0.01538724349
1102.000000,0.01403225415
1103.000000,0.01075030348
1104.000000,0.01405974897
1105.000000,0.01009779145
1106.000000,0.01217359921
1107.000000,0.01551745927
1108.000000,0.01227273504
1109.000000,0.01314099553
1110.000000,0.01249436108
1111.000000,0.01279120469
1112.000000,0.01582938661
1113.000000,0.01490240178
1114.000000,0.01509026549
1115.000000,0.01115471313
1116.000000,0.01380818523
1117.000000,0.01294454858
1118.000000,0.01484808261
1119.000000,0.01271499891
1120.000000,0.01680835519
1121.000000,0.02036743882
1122.000000,0.01553412206
1123.000000,0.01434322978
1124.000000,0.0172481391
1125.000000,0.01270013941
1126.000000,0.01513488414
1127.000000,0.01819734879
1128.000000,0.01607817055
1129.000000,0.01711797306
1130.000000,0.02030244849
1131.000000,0.01849997599
1132.000000,0.01969797591
1133.000000,0.01724474293
1134.000000,0.0240188407
1135.000000,0.01982851316
1136.000000,0.02234216889
1137.000000,0.02259283988
1138.000000,0.02349819433
1139.000000,0.02249662659
1140.000000,0.02601610412
1141.000000,0.02864443973
1142.000000,0.03344457852
1143.000000,0.03376571603
1144.000000,0.03591236221
1145.000000,0.04127142848
1146.000000,0.04631231016
1147.000000,0.05217495667
1148.000000,0.06094547654
1149.000000,0.07383103531
1150.000000,0.08337062407
1151.000000,0.09632353894
1152.000000,0.1155094289
1153.000000,0.1338909649
1154.000000,0.1471461094
1155.000000,0.1544519336
1156.000000,0.15083928
1157.000000,0.1314171873
1158.000000,0.1156328793
1159.000000,0.09958802203
1160.000000,0.08675717426
1161.000000,0.06971156583
1162.000000,0.06558191387
1163.000000,0.05914093439
1164.000000,0.05277922988
1165.000000,0.04657385182
1166.000000,0.04029632466
1167.000000,0.03953041385
1168.000000,0.03769874797
1169.000000,0.03829829168
1170.000000,0.03962421786
1171.000000,0.03938266679
1172.000000,0.03761357862
1173.000000,0.04314024495
1174.000000,0.04637971872
1175.000000,0.0461876744
1176.000000,0.0516921288
1177.000000,0.06012483209
1178.000000,0.07166308848
1179.000000,0.08185874205
1180.000000,0.1017694451
1181.000000,0.1165196245
1182.000000,0.1315774624
1183.000000,0.1341787451
1184.000000,0.1276452516
1185.000000,0.1157805784
1186.000000,0.101659769
1187.000000,0.08292840197
1188.000000,0.07053568377
1189.000000,0.05634238054
1190.000000,0.04777677805
1191.000000,0.04250630028
1192.000000,0.03874893307
1193.000000,0.03369297063
1194.000000,0.02813282737
1195.000000,0.02485047155
1196.000000,0.02638749298
1197.000000,0.02382481131
1198.000000,0.02808394651
1199.000000,0.02035484491
1200.000000,0.018603111
1201.000000,0.02097874406
1202.000000,0.01817703292
1203.000000,0.01820176131
1204.000000,0.01949732504
1205.000000,0.01501134978
1206.000000,0.01560099036
1207.000000,0.01480498696
1208.000000,0.01434409925
1209.000000,0.01403639844
1210.000000,0.01448506647
1211.000000,0.01750089017
1212.000000,0.01421427871
1213.000000,0.0123423061
1214.000000,0.01384772798
1215.000000,0.01258957257
1216.000000,0.01394240671
1217.000000,0.01349912395
1218.000000,0.01192378949
1219.000000,0.01273589675
1220.000000,0.014363766
1221.000000,0.01572504157
1222.000000,0.01282057686
1223.000000,0.01560773942
1224.000000,0.01489546899
1225.000000,0.01009310447
1226.000000,0.01162166032
1227.000000,0.00613108136
1228.000000,0.01031860157
1229.000000,0.01188888588
1230.000000,0.01056333009
1231.000000,0.01233104217
1232.000000,0.01143773264
1233.000000,0.0127837653
1234.000000,0.01107292364
1235.000000,0.01285772728
1236.000000,0.01221726205
1237.000000,0.01241957198
1238.000000,0.01375078257
1239.000000,0.0103617873
1240.000000,0.01542846842
1241.000000,0.01189051502
1242.000000,0.01255281934
1243.000000,0.01149999651
1244.000000,0.01103444213
1245.000000,0.009162321127
1246.000000,0.01087930373
1247.000000,0.008933980616
1248.000000,0.009190349393
1249.000000,0.01469402271
1250.000000,0.01166336237
1251.000000,0.01106892584
1252.000000,0.009599825733
1253.000000,0.01150964976
1254.000000,0.01153974409
1255.000000,0.0127245536
1256.000000,0.01118600205
1257.000000,0.01178530447
1258.000000,0.01383988169
1259.000000,0.01245599841
1260.000000,0.01350638732
1261.000000,0.008158079779
1262.000000,0.01081044561
1263.000000,0.01372000017
1264.000000,0.01167996116
1265.000000,0.01419487152
1266.000000,0.0107843614
1267.000000,0.01364566498
1268.000000,0.007648788037
1269.000000,0.009818309027
1270.000000,0.01165513393
1271.000000,0.008961587889
1272.000000,0.007230370633
1273.000000,0.01290203742
1274.000000,0.01478107548
1275.000000,0.01185379974
1276.000000,0.008593009808
1277.000000,0.01114263159
1278.000000,0.008537448021
1279.000000,0.007035191772
1280.000000,0.01230108894
1281.000000,0.01225184908
1282.000000,0.01135160292
1283.000000,0.008541323423
1284.000000,0.006040000857
1285.000000,0.01227796696
1286.000000,0.01095204699
1287.000000,0.01314533309
1288.000000,0.007860925481
1289.000000,0.006294207312
1290.000000,0.01291948166
1291.000000,0.01414214643
1292.000000,0.01315785718
1293.000000,0.01231468462
1294.000000,0.01135060166
1295.000000,0.01231746624
1296.000000,0.009802906517
1297.000000,0.01533988786
1298.000000,0.01423455932
1299.000000,0.00744268166
1300.000000,0.01348761818
1301.000000,0.006336088393
1302.000000,0.01160160179
1303.000000,0.01029122163
1304.000000,0.01400442256
1305.000000,0.01122921224
1306.000000,0.01054747671
1307.000000,0.01346894747
1308.000000,0.009425505195
1309.000000,0.009389096956
1310.000000,0.01380341817
1311.000000,0.01199456805
1312.000000,0.01132139421
1313.000000,0.009809934643
1314.000000,0.01076997344
1315.000000,0.01027874318
1316.000000,0.01170701462
1317.000000,0.01142593441
1318.000000,0.01081367351
1319.000000,0.0109834166
1320.000000,0.01409821023
1321.000000,0.01242524485
1322.000000,0.01192951109
1323.000000,0.01091985699
1324.000000,0.01173701429
1325.000000,0.01108966484
1326.000000,0.01159543439
1327.000000,0.01203429226
1328.000000,0.009851843628
1329.000000,0.009787755109
1330.000000,0.006278911093
1331.000000,0.008830100121
1332.000000,0.01131024218
1333.000000,0.01524160249
1334.000000,0.01537354926
1335.000000,0.01071368255
1336.000000,0.005137654111
1337.000000,0.0117572915
1338.000000,0.01197734384
1339.000000,0.01414061058
1340.000000,0.009671622144
1341.000000,0.01069503695
1342.000000,0.01076743104
1343.000000,0.01135150691
1344.000000,0.008844622389
1345.000000,0.01211367241
1346.000000,0.009979227322
1347.000000,0.01163084378
1348.000000,0.0112246509
1349.000000,0.006891644191
1350.000000,0.01186939755
1351.000000,0.008990908753
1352.000000,0.009339426088
1353.000000,0.00949613604
1354.000000,0.008695724799
1355.000000,0.01099278578
1356.000000,0.006090782948
1357.000000,0.01011607337
1358.000000,0.01175612883
1359.000000,0.01228178181
1360.000000,0.0137417314
1361.000000,0.01388361701
1362.000000,0.01375190194
1363.000000,0.01138711081
1364.000000,0.01019108835
1365.000000,0.00834919983
1366.000000,0.01068633155
1367.000000,0.01204442445
1368.000000,0.01116617901
1369.000000,0.01009034435
1370.000000,0.01382652351
1371.000000,0.01581812459
1372.000000,0.01159286515
1373.000000,0.01487065822
1374.000000,0.01341186521
1375.000000,0.01037596411
1376.000000,0.01262840071
1377.000000,0.01120078094
1378.000000,0.0149512093
1379.000000,0.01502348061
1380.000000,0.01362586394
1381.000000,0.01210517792
1382.000000,0.01381363085
1383.000000,0.01359872517
1384.000000,0.01544417012
1385.000000,0.01537709866
1386.000000,0.01471055347
1387.000000,0.01072988532
1388.000000,0.01461702193
1389.000000,0.0155220028
1390.000000,0.01273680899
1391.000000,0.01170440946
1392.000000,0.01519423139
1393.000000,0.01135136879
1394.000000,0.0128144241
1395.000000,0.01337956902
1396.000000,0.01214326481
1397.000000,0.01037253243
1398.000000,0.01792042093
1399.000000,0.01385501993
1400.000000,0.01191257799
1401.000000,0.01845871596
1402.000000,0.01545193486
1403.000000,0.01813324158
1404.000000,0.01868662395
1405.000000,0.01395668985
1406.000000,0.01748322445
1407.000000,0.01782574276
1408.000000,0.01478995336
1409.000000,0.01491295034
1410.000000,0.01937447452
1411.000000,0.0178882213
1412.000000,0.01567817851
1413.000000,0.01662129519
1414.000000,0.01861784307
1415.000000,0.01765672065
1416.000000,0.0234333589
1417.000000,0.02456290036
1418.000000,0.0224586561
1419.000000,0.02043760217
1420.000000,0.01983330568
1421.000000,0.02174446065
1422.000000,0.02853038244
1423.000000,0.02753662466
1424.000000,0.02407711659
1425.000000,0.02615865963
1426.000000,0.03031945957
1427.000000,0.02888788109
1428.000000,0.03040353936
1429.000000,0.03405037792
1430.000000,0.03675851246
1431.000000,0.03744515965
1432.000000,0.04446673913
1433.000000,0.0431978394
1434.000000,0.04582579889
1435.000000,0.04672904845
1436.000000,0.0528590254
1437.000000,0.06025074647
1438.000000,0.0664433453
1439.000000,0.07164625022
1440.000000,0.08893148086
1441.000000,0.09503216904
1442.000000,0.1070510823
1443.000000,0.1206873326
1444.000000,0.1374602085
1445.000000,0.1525788363
1446.000000,0.1769552934
1447.000000,0.1947544062
1448.000000,0.2116947251
1449.000000,0.2298975436
1450.000000,0.2310827267
1451.000000,0.2273096936
1452.000000,0.214183159
1453.000000,0.1959364903
1454.000000,0.1744470114
1455.000000,0.1582621613
1456.000000,0.1358558603
1457.000000,0.1186443118
1458.000000,0.10404357
1459.000000,0.09475236619
1460.000000,0.08441747322
1461.000000,0.07587995088
1462.000000,0.06668888201
1463.000000,0.06024373409
1464.000000,0.05774403476
1465.000000,0.04754873454
1466.000000,0.04781697641
1467.000000,0.04338032275
1468.000000,0.03905311892
1469.000000,0.0357074122
1470.000000,0.03205850661
1471.000000,0.03016580471
1472.000000,0.02905853547
1473.000000,0.02913504488
1474.000000,0.03257516337
1475.000000,0.02589075384
1476.000000,0.02574915008
1477.000000,0.02421593066
1478.000000,0.02133526118
1479.000000,0.02150623018
1480.000000,0.02566982162
1481.000000,0.02203569759
1482.000000,0.0183834026
1483.000000,0.01668305175
1484.000000,0.02304039399
1485.000000,0.01922673613
1486.000000,0.01672024197
1487.000000,0.02057472658
1488.000000,0.01820141512
1489.000000,0.01706234197
1490.000000,0.01794209524
1491.000000,0.02054541992
1492.000000,0.01562344417
1493.000000,0.01884626526
1494.000000,0.01731205766
1495.000000,0.01577325969
1496.000000,0.01978551139
1497.000000,0.01580916071
1498.000000,0.01667169261
1499.000000,0.01522905058
1500.000000,0.01342899636
1501.000000,0.01657735823
1502.000000,0.01367426642
1503.000000,0.01923471335
1504.000000,0.018721284
1505.000000,0.01438791998
1506.000000,0.01426356108
1507.000000,0.01369791036
1508.000000,0.01875185438
1509.000000,0.01285947115
1510.000000,0.01295246559
1511.000000,0.013227246
1512.000000,0.01332375382
1513.000000,0.01802432283
1514.000000,0.01430059983
1515.000000,0.0154116243
1516.000000,0.01465485623
1517.000000,0.01468267399
1518.000000,0.01900067511
1519.000000,0.01862872652
1520.000000,0.0160911911
1521.000000,0.01374018144
1522.000000,0.01972144259
1523.000000,0.01531788078
1524.000000,0.01328966728
1525.000000,0.01352269228
1526.000000,0.01531364931
1527.000000,0.01668699748
1528.000000,0.009725173177
1529.000000,0.0161548326
1530.000000,0.01532972586
1531.000000,0.01660729764
1532.000000,0.01387904858
1533.000000,0.01770558682
1534.000000,0.01487731875
1535.000000,0.01821032613
1536.000000,0.02075738906
1537.000000,0.01672796794
1538.000000,0.01708354098
1539.000000,0.01713975274
1540.000000,0.01329151699
1541.000000,0.017797348
1542.000000,0.01404440595
1543.000000,0.01218322389
1544.000000,0.01738347207
1545.000000,0.01907962443
1546.000000,0.01629789144
1547.000000,0.0149506404
1548.000000,0.02130425679
1549.000000,0.01570604819
1550.000000,0.02142610991
1551.000000,0.01910176411
1552.000000,0.01786232966
1553.000000,0.02115997505
1554.000000,0.01613291977
1555.000000,0.02016400947
1556.000000,0.02221961413
1557.000000,0.0227852785
1558.000000,0.02643488137
1559.000000,0.02244901959
1560.000000,0.0265788911
1561.000000,0.02618785974
1562.000000,0.02924317956
1563.000000,0.02985577472
1564.000000,0.03286394599
1565.000000,0.0320760462
1566.000000,0.03714091384
1567.000000,0.03663096585
1568.000000,0.037807212
1569.000000,0.0425062407
1570.000000,0.04639947987
1571.000000,0.05358685731
1572.000000,0.05353591674
1573.000000,0.06239870355
1574.000000,0.06781288104
1575.000000,0.08211967388
1576.000000,0.09441778309
1577.000000,0.1094743284
1578.000000,0.1246490182
1579.000000,0.1487091463
1580.000000,0.1774212064
1581.000000,0.2055694226
1582.000000,0.2282825556
1583.000000,0.2360474648
1584.000000,0.232453892
1585.000000,0.2148680991
1586.000000,0.1931987604
1587.000000,0.1730818986
1588.000000,0.1552600553
1589.000000,0.1481329698
1590.000000,0.1429934046
1591.000000,0.1403942402
1592.000000,0.1424005062
1593.000000,0.1558215573
1594.000000,0.1669234418
1595.000000,0.1950823313
1596.000000,0.2290640309
1597.000000,0.2775920614
1598.000000,0.3370982802
1599.000000,0.4258598037
1600.000000,0.5214782341
1601.000000,0.6099863159
1602.000000,0.6438807302
1603.000000,0.6016116671
1604.000000,0.5185865422
1605.000000,0.4207971246
1606.000000,0.3305351379
1607.000000,0.262354224
1608.000000,0.2093643334
1609.000000,0.171368144
1610.000000,0.1401522616
1611.000000,0.122347532
1612.000000,0.1065382335
1613.000000,0.08698755239
1614.000000,0.07867539029
1615.000000,0.06824066259
1616.000000,0.06517980169
1617.000000,0.05653698107
1618.000000,0.05284208702
1619.000000,0.04660792094
1620.000000,0.04564917317
1621.000000,0.04197320657
1622.000000,0.03848370296
1623.000000,0.03661129867
1624.000000,0.03056087546
1625.000000,0.0333973424
1626.000000,0.02808213585
1627.000000,0.02755510735
1628.000000,0.02751526904
1629.000000,0.02777196924
1630.000000,0.02704926715
1631.000000,0.02492538068
1632.000000,0.02400648782
1633.000000,0.02417937572
1634.000000,0.02042376735
1635.000000,0.02149613442
1636.000000,0.01949708562
1637.000000,0.01684458413
1638.000000,0.01746203989
1639.000000,0.02148624933
1640.000000,0.01766763962
1641.000000,0.01514405145
1642.000000,0.01813367008
1643.000000,0.01649543696
1644.000000,0.0164323519
1645.000000,0.01640848572
1646.000000,0.01734225231
1647.000000,0.01691785486
1648.000000,0.01596055903
1649.000000,0.0164145802
1650.000000,0.01561663206
1651.000000,0.01630835995
1652.000000,0.01683707693
1653.000000,0.01510456016
1654.000000,0.01900151134
1655.000000,0.01294894412
1656.000000,0.01377849808
1657.000000,0.01426051596
1658.000000,0.01715765118
1659.000000,0.01640187008
1660.000000,0.01505711286
1661.000000,0.01262984658
1662.000000,0.0149873549
1663.000000,0.01392732315
1664.000000,0.01331703711
1665.000000,0.01624038591
1666.000000,0.01674862003
1667.000000,0.01430650372
1668.000000,0.01232870567
1669.000000,0.01398002245
1670.000000,0.0114494928
1671.000000,0.01032208381
1672.000000,0.009523552918
1673.000000,0.01248938476
1674.000000,0.01227071311
1675.000000,0.01126954579
1676.000000,0.01164241869
1677.000000,0.01194721208
1678.000000,0.01038646885
1679.000000,0.01315336204
1680.000000,0.01550621823
1681.000000,0.01185972816
1682.000000,0.0088817529
1683.000000,0.01207530472
1684.000000,0.01255177098
1685.000000,0.01334044591
1686.000000,0.01418993972
1687.000000,0.01364937253
1688.000000,0.01415198359
1689.000000,0.01191136513
1690.000000,0.01271691338
1691.000000,0.01059011199
1692.000000,0.01097532679
1693.000000,0.01342417384
1694.000000,0.01139917461
1695.000000,0.008920377201
1696.000000,0.007935899403
1697.000000,0.01312194924
1698.000000,0.01094646744
1699.000000,0.01057037169
1700.000000,0.01001880699
1701.000000,0.01235672517
1702.000000,0.01135519571
1703.000000,0.01098470732
1704.000000,0.01089113676
1705.000000,0.0111082797
1706.000000,0.01319790735
1707.000000,0.01177641718
1708.000000,0.01395066166
1709.000000,0.007612676001
1710.000000,0.009918826212
1711.000000,0.01292189069
1712.000000,0.009859419393
1713.000000,0.01090735347
1714.000000,0.01054118729
1715.000000,0.01144040505
1716.000000,0.01183398682
1717.000000,0.01505222914
1718.000000,0.01313374785
1719.000000,0.01151975678
1720.000000,0.01219960886
1721.000000,0.01218236696
1722.000000,0.01110947633
1723.000000,0.009929493181
1724.000000,0.01198376744
1725.000000,0.01240440454
1726.000000,0.009744985965
1727.000000,0.01083804517
1728.000000,0.01188133825
1729.000000,0.01180017533
1730.000000,0.01435806779
1731.000000,0.01055121954
1732.000000,0.009637649559
1733.000000,0.01192993605
1734.000000,0.009010549628
1735.000000,0.01053239925
1736.000000,0.007264271932
1737.000000,0.01178252407
1738.000000,0.01541881153
1739.000000,0.01009479513
1740.000000,0.01020694264
1741.000000,0.01201119394
1742.000000,0.01279453303
1743.000000,0.007705803959
1744.000000,0.01036150089
1745.000000,0.01103880199
1746.000000,0.01086244319
1747.000000,0.0113416818
1748.000000,0.01045259618
1749.000000,0.01028476587
1750.000000,0.008591866799
1751.000000,0.01404894193
1752.000000,0.01078238121
1753.000000,0.01295355654
1754.000000,0.01059402128
1755.000000,0.01094747727
1756.000000,0.01043561868
1757.000000,0.01185486957
1758.000000,0.01079545858
1759.000000,0.007698974024
1760.000000,0.01581676279
1761.000000,0.01110207618
1762.000000,0.0093101274
1763.000000,0.007755918004
1764.000000,0.009114205529
1765.000000,0.0102010187
1766.000000,0.008857308402
1767.000000,0.01180206597
1768.000000,0.007720780611
1769.000000,0.01087474744
1770.000000,0.01112174675
1771.000000,0.008642686204
1772.000000,0.008525852781
1773.000000,0.008968534455
1774.000000,0.0108253695
1775.000000,0.009874252158
1776.000000,0.009808018785
1777.000000,0.01109422005
1778.000000,0.01277495358
1779.000000,0.009363934908
1780.000000,0.008270977341
1781.000000,0.01026797433
1782.000000,0.01031868923
1783.000000,0.01295764405
1784.000000,0.01229199294
1785.000000,0.01092417314
1786.000000,0.009256693451
1787.000000,0.01321482867
1788.000000,0.009578837078
1789.000000,0.01167263879
1790.000000,0.01180189205
1791.000000,0.01260108781
1792.000000,0.009578895012
1793.000000,0.01398979799
1794.000000,0.01289536446
1795.000000,0.01041852196
1796.000000,0.01055576247
1797.000000,0.007288851249
1798.000000,0.01150644602
1799.000000,0.01201163805
1800.000000,0.009194305379
1801.000000,0.01086826549
1802.000000,0.008748039609
1803.000000,0.01575952472
1804.000000,0.009659068688
1805.000000,0.01092993203
1806.000000,0.01175292272
1807.000000,0.01003354637
1808.000000,0.01153366359
1809.000000,0.01248090525
1810.000000,0.01461005454
1811.000000,0.01289150491
1812.000000,0.01509580863
1813.000000,0.008515331123
1814.000000,0.009233648993
1815.000000,0.008510457519
1816.000000,0.01064066243
1817.000000,0.009696382208
1818.000000,0.009767433859
1819.000000,0.01075483531
1820.000000,0.01116491765
1821.000000,0.00890215401
1822.000000,0.01085583571
1823.000000,0.01053796547
1824.000000,0.010220226
1825.000000,0.01297935784
1826.000000,0.007133304321
1827.000000,0.009588845083
1828.000000,0.009465563453
1829.000000,0.009643033868
1830.000000,0.009591282201
1831.000000,0.009031303489
1832.000000,0.009339412273
1833.000000,0.01154883641
1834.000000,0.01142276795
1835.000000,0.0079792736
1836.000000,0.006862862778
1837.000000,0.009178889494
1838.000000,0.007053929875
1839.000000,0.01079223386
1840.000000,0.01089873903
1841.000000,0.006720481036
1842.000000,0.01139503704
1843.000000,0.01012869567
1844.000000,0.008251811488
1845.000000,0.01243637538
1846.000000,0.01473157331
1847.000000,0.01024421381
1848.000000,0.01096922918
1849.000000,0.00850591137
1850.000000,0.01138124881
1851.000000,0.009731656495
1852.000000,0.01176072635
1853.000000,0.01020589354
1854.000000,0.01117294421
1855.000000,0.009559856656
1856.000000,0.007781700422
1857.000000,0.01130351641
1858.000000,0.01395374653
1859.000000,0.005938994962
1860.000000,0.01109291878
1861.000000,0.008608603184
1862.000000,0.007794795009
1863.000000,0.01094585297
1864.000000,0.01027320312
1865.000000,0.01080819259
1866.000000,0.01121341378
1867.000000,0.00684814263
1868.000000,0.01340383335
1869.000000,0.01314017956
1870.000000,0.009257111809
1871.000000,0.01039455773
1872.000000,0.008058367463
1873.000000,0.0108678034
1874.000000,0.01055835552
1875.000000,0.01083796259
1876.000000,0.009935499271
1877.000000,0.01145168206
1878.000000,0.01053153547
1879.000000,0.01000949661
1880.000000,0.01090161321
1881.000000,0.011550327
1882.000000,0.01169963012
1883.000000,0.01117045363
1884.000000,0.01302868594
1885.000000,0.009693499128
1886.000000,0.01290233732
1887.000000,0.009551767675
1888.000000,0.009675432474
1889.000000,0.009697362201
1890.000000,0.01216244297
1891.000000,0.009542940611
1892.000000,0.008427807301
1893.000000,0.01121458157
1894.000000,0.00885599478
1895.000000,0.009899742946
1896.000000,0.01026869581
1897.000000,0.01046505492
1898.000000,0.01230042216
1899.000000,0.01002587853
1900.000000,0.007746039896
1901.000000,0.01181723288
1902.000000,0.00878815133
1903.000000,0.008073496705
1904.000000,0.009466429762
1905.000000,0.01168617901
1906.000000,0.00760355979
1907.000000,0.008723543604
1908.000000,0.01216703145
1909.000000,0.01359302814
1910.000000,0.01031102894
1911.000000,0.01191562353
1912.000000,0.01071469708
1913.000000,0.01021908154
1914.000000,0.008334816935
1915.000000,0.01051603615
1916.000000,0.009226564939
1917.000000,0.009776332013
1918.000000,0.0104415893
1919.000000,0.01085516411
1920.000000,0.008509600798
1921.000000,0.009242459878
1922.000000,0.01157259713
1923.000000,0.0133742336
1924.000000,0.01040578149
1925.000000,0.01172846449
1926.000000,0.01174193697
1927.000000,0.009337705693
1928.000000,0.01171520607
1929.000000,0.008898536089
1930.000000,0.00767004493
1931.000000,0.009208197354
1932.000000,0.01105138089
1933.000000,0.008727815107
1934.000000,0.0118732115
1935.000000,0.008932111209
1936.000000,0.01138374534
1937.000000,0.009895790716
1938.000000,0.01286905498
1939.000000,0.009612389963
1940.000000,0.01005085971
1941.000000,0.01001122066
1942.000000,0.008292005385
1943.000000,0.01108420509
1944.000000,0.008561350495
1945.000000,0.008607815653
1946.000000,0.009539936571
1947.000000,0.009500429361
1948.000000,0.01292689201
1949.000000,0.009341807175
1950.000000,0.01283081052
1951.000000,0.005957147258
1952.000000,0.01151796522
1953.000000,0.009863834699
1954.000000,0.01368043244
1955.000000,0.008068891972
1956.000000,0.01009027224
1957.000000,0.01029833456
1958.000000,0.005487614071
1959.000000,0.009840215664
1960.000000,0.01543168088
1961.000000,0.0102154175
1962.000000,0.01164640112
1963.000000,0.009814016065
1964.000000,0.01290110104
1965.000000,0.008660861302
1966.000000,0.008152629748
1967.000000,0.01159930455
1968.000000,0.007723649538
1969.000000,0.01020121891
1970.000000,0.006291586294
1971.000000,0.01129327909
1972.000000,0.009155979367
1973.000000,0.01021676287
1974.000000,0.01028703404
1975.000000,0.0105895324
1976.000000,0.009214837629
1977.000000,0.008921784449
1978.000000,0.01159388365
1979.000000,0.01224634287
1980.000000,0.007119150754
1981.000000,0.008664996804
1982.000000,0.009201105919
1983.000000,0.00874804672
1984.000000,0.01186304115
1985.000000,0.009931640932
1986.000000,0.009406102757
1987.000000,0.01069649057
1988.000000,0.01257391338
1989.000000,0.006118435932
1990.000000,0.01101339391
1991.000000,0.009633517973
1992.000000,0.009295394158
1993.000000,0.009868380924
1994.000000,0.00618851638
1995.000000,0.009854480137
1996.000000,0.01066577601
1997.000000,0.009247988698
1998.000000,0.007592892304
1999.000000,0.00864505176
2000.000000,0.01147843016
