raman_shift_cm-1,intensity
200.000000,0.01372673135
201.000000,0.003916775668
202.000000,0.01198978986
203.000000,0.01021315998
204.000000,0.01271061036
205.000000,0.01084559481
206.000000,0.01372908077
207.000000,0.01013827945
208.000000,0.009042562696
209.000000,0.01123622231
210.000000,0.01093969833
211.000000,0.009362039287
212.000000,0.00958134502
213.000000,0.01151506996
214.000000,0.01148505782
215.000000,0.009088795904
216.000000,0.009341476757
217.000000,0.006463564587
218.000000,0.01343580279
219.000000,0.009629049939
220.000000,0.01275243175
221.000000,0.01091305463
222.000000,0.01396629693
223.000000,0.01315284065
224.000000,0.0107154683
225.000000,0.0130406504
226.000000,0.008179130073
227.000000,0.0125968684
228.000000,0.0071190413
229.000000,0.01076661919
230.000000,0.01221015877
231.000000,0.01052793098
232.000000,0.009346654068
233.000000,0.008470072846
234.000000,0.009395858304
235.000000,0.01218397556
236.000000,0.01186367265
237.000000,0.009558000886
238.000000,0.007590526749
239.000000,0.01143080315
240.000000,0.007183335626
241.000000,0.009021650141
242.000000,0.008613981283
243.000000,0.0115704482
244.000000,0.01055609866
245.000000,0.01100819172
246.000000,0.01062958285
247.000000,0.008729193286
248.000000,0.01115629369
249.000000,0.01291055242
250.000000,0.0100123809
251.000000,0.0113534058
252.000000,0.009834705755
253.000000,0.01214392007
254.000000,0.01142038142
255.000000,0.01183904779
256.000000,0.01078455744
257.000000,0.01336802368
258.000000,0.009366021112
259.000000,0.009420298381
260.000000,0.008905220761
261.000000,0.01131117827
262.000000,0.008844766424
263.000000,0.008800817774
264.000000,0.01154515079
265.000000,0.01241471278
266.000000,0.01123954635
267.000000,0.004724960461
268.000000,0.00818422895
269.000000,0.007944843265
270.000000,0.007677130362
271.000000,0.009276950059
272.000000,0.01372790662
273.000000,0.00947836002
274.000000,0.008622604759
275.000000,0.0114914832
276.000000,0.01023252482
277.000000,0.01033588954
278.000000,0.008721527273
279.000000,0.01009221709
280.000000,0.01096465325
281.000000,0.006273320963
282.000000,0.006875843067
283.000000,0.01226577287
284.000000,0.01178302336
285.000000,0.009084065688
286.000000,0.008057338713
287.000000,0.00972702318
288.000000,0.007711184296
289.000000,0.009418669902
290.000000,0.01340144233
291.000000,0.01036376538
292.000000,0.01243258142
293.000000,0.009655149012
294.000000,0.01083960942
295.000000,0.01287283023
296.000000,0.007429687839
297.000000,0.009407003458
298.000000,0.009788561756
299.000000,0.01066672327
300.000000,0.01321049939
301.000000,0.01147462789
302.000000,0.007108651566
303.000000,0.009562454531
304.000000,0.008317528637
305.000000,0.008267141299
306.000000,0.01415531375
307.000000,0.007980143017
308.000000,0.01057930394
309.000000,0.008676521502
310.000000,0.01182934343
311.000000,0.01081522686
312.000000,0.01036311793
313.000000,0.009956373649
314.000000,0.01238459055
315.000000,0.008246209131
316.000000,0.008656187867
317.000000,0.007877311513
318.000000,0.01278007904
319.000000,0.009524319608
320.000000,0.008037120577
321.000000,0.009274248706
322.000000,0.01511216686
323.000000,0.009898407457
324.000000,0.01181387912
325.000000,0.01104468994
326.000000,0.01009005195
327.000000,0.008729904743
328.000000,0.009447224242
329.000000,0.009407413968
330.000000,0.005698274568
331.000000,0.01529760346
332.000000,0.01196752801
333.000000,0.01035094906
334.000000,0.009712202571
335.000000,0.008540141184
336.000000,0.01201920683
337.000000,0.009746789288
338.000000,0.0110795887
339.000000,0.00734660008
340.000000,0.0108790949
341.000000,0.01412330019
342.000000,0.009544000877
343.000000,0.01172373399
344.000000,0.01019506166
345.000000,0.01233535064
346.000000,0.01226039869
347.000000,0.01024942752
348.000000,0.009007554088
349.000000,0.01070082858
350.000000,0.01021145882
351.000000,0.008892719918
352.000000,0.01104209533
353.000000,0.01099439988
354.000000,0.008352322946
355.000000,0.009908027914
356.000000,0.01597391591
357.000000,0.01176594476
358.000000,0.01032847908
359.000000,0.01515573574
360.000000,0.009223421068
361.000000,0.005181181728
362.000000,0.006321675578
363.000000,0.007097211352
364.000000,0.01065702457
365.000000,0.0120903145
366.000000,0.005797915344
367.000000,0.01237348372
368.000000,0.007684226497
369.000000,0.01065328691
370.000000,0.01106897709
371.000000,0.01100652516
372.000000,0.01015769429
373.000000,0.01048533293
374.000000,0.007864450611
375.000000,0.01070128105
376.000000,0.01210491581
377.000000,0.01199882772
378.000000,0.01537286733
379.000000,0.01231441345
380.000000,0.01160159784
381.000000,0.01347654711
382.000000,0.01063263215
383.000000,0.007571421654
384.000000,0.005672284005
385.000000,0.01270598171
386.000000,0.0112897474
387.000000,0.01184913224
388.000000,0.009489651109
389.000000,0.01084593134
390.000000,0.01392191662
391.000000,0.01082771206
392.000000,0.007927906063
393.000000,0.009296953416
394.000000,0.01293099334
395.000000,0.007981779225
396.000000,0.004999781831
397.000000,0.005575680089
398.000000,0.007486672748
399.000000,0.01176430858
400.000000,0.01034342963
401.000000,0.008652941689
402.000000,0.007598226806
403.000000,0.009941536564
404.000000,0.009851350816
405.000000,0.009043726881
406.000000,0.009682123152
407.000000,0.008647330759
408.000000,0.01378121347
409.000000,0.005441974756
410.000000,0.01042133594
411.000000,0.008149260892
412.000000,0.01159223203
413.000000,0.009710127416
414.000000,0.01091353714
415.000000,0.0112458552
416.000000,0.01059449795
417.000000,0.01216712369
418.000000,0.007403299374
419.000000,0.01209087991
420.000000,0.009750839747
421.000000,0.01095127162
422.000000,0.01330432377
423.000000,0.01244136111
424.000000,0.01416166692
425.000000,0.005693994567
426.000000,0.008284755958
427.000000,0.01212621315
428.000000,0.007937897991
429.000000,0.009835463255
430.000000,0.01361781382
431.000000,0.01195289423
432.000000,0.008280408382
433.000000,0.01111402978
434.000000,0.01149850918
435.000000,0.01034417273
436.000000,0.01000993999
437.000000,0.01049562169
438.000000,0.007213055202
439.000000,0.01046870554
440.000000,0.008283479358
441.000000,0.01100608767
442.000000,0.01107904713
443.000000,0.008436718537
444.000000,0.01144936393
445.000000,0.0109373883
446.000000,0.01014333845
447.000000,0.01168093838
448.000000,0.009605552386
449.000000,0.009664678171
450.000000,0.01039044298
451.000000,0.01011833025
452.000000,0.01252304425
453.000000,0.005492784755
454.000000,0.009621723599
455.000000,0.006214785443
456.000000,0.009194279399
457.000000,0.01071330536
458.000000,0.0102066823
459.000000,0.01213179875
460.000000,0.010828586
461.000000,0.004703813403
462.000000,0.007943145517
463.000000,0.01328946327
464.000000,0.01329632484
465.000000,0.01037156377
466.000000,0.007065720632
467.000000,0.01450937244
468.000000,0.005968204865
469.000000,0.01077731698
470.000000,0.01005568476
471.000000,0.010638217
472.000000,0.007803336808
473.000000,0.00934302874
474.000000,0.01229460563
475.000000,0.009160371349
476.000000,0.007373180157
477.000000,0.01010527891
478.000000,0.0103145428
479.000000,0.00986381811
480.000000,0.008553422567
481.000000,0.01122154024
482.000000,0.009888201897
483.000000,0.00778813011
484.000000,0.01058658935
485.000000,0.01009091392
486.000000,0.01044612193
487.000000,0.006745468196
488.000000,0.008619911242
489.000000,0.01108521891
490.000000,0.0120460218
491.000000,0.01088389355
492.000000,0.01052074583
493.000000,0.01166989583
494.000000,0.01219861482
495.000000,0.01378114473
496.000000,0.01119997744
497.000000,0.009136281451
498.000000,0.01124318052
499.000000,0.006392603671
500.000000,0.0104264199
501.000000,0.009436067008
502.000000,0.01029257555
503.000000,0.01133355788
504.000000,0.01046321049
505.000000,0.007466862965
506.000000,0.009663453535
507.000000,0.008784195276
508.000000,0.01035766038
509.000000,0.01112946711
510.000000,0.008487410172
511.000000,0.01189335261
512.000000,0.01303901492
513.000000,0.009901164546
514.000000,0.01190851886
515.000000,0.00749341217
516.000000,0.00938437499
517.000000,0.01240218958
518.000000,0.006950614963
519.000000,0.009476918669
520.000000,0.008705285211
521.000000,0.01280520415
522.000000,0.01280734394
523.000000,0.009276037722
524.000000,0.01077963121
525.000000,0.00531500279
526.000000,0.0122516485
527.000000,0.01126088596
528.000000,0.01322434429
529.000000,0.00580396514
530.000000,0.01128661812
531.000000,0.009895590525
532.000000,0.005388621926
533.000000,0.009238401557
534.000000,0.01047488401
535.000000,0.01225462522
536.000000,0.01105289398
537.000000,0.009640962187
538.000000,0.01157761532
539.000000,0.01048478927
540.000000,0.009415278196
541.000000,0.008690360789
542.000000,0.01104499675
543.000000,0.01107748419
544.000000,0.01446424368
545.000000,0.009895971462
546.000000,0.01402724515
547.000000,0.01153991663
548.000000,0.01321501327
549.000000,0.009067910663
550.000000,0.009153011388
551.000000,0.01030792363
552.000000,0.01274104605
553.000000,0.01132653118
554.000000,0.01250710727
555.000000,0.0116640548
556.000000,0.01311453796
557.000000,0.01148311568
558.000000,0.0100666354
559.000000,0.01217968049
560.000000,0.01136518375
561.000000,0.01471698783
562.000000,0.01093784928
563.000000,0.01151422652
564.000000,0.010724223
565.000000,0.01369243527
566.000000,0.01317490725
567.000000,0.01277586046
568.000000,0.009030981484
569.000000,0.008544911587
570.000000,0.01216454501
571.000000,0.01313909301
572.000000,0.01471733372
573.000000,0.008235487138
574.000000,0.01155856147
575.000000,0.008595290245
576.000000,0.01013698198
577.000000,0.01170410737
578.000000,0.01416641199
579.000000,0.01128798327
580.000000,0.01101316283
581.000000,0.01192637121
582.000000,0.01520694653
583.000000,0.01765905915
584.000000,0.009889969697
585.000000,0.01258614471
586.000000,0.0124455224
587.000000,0.01583218312
588.000000,0.01457175267
589.000000,0.01700730106
590.000000,0.01214914917
591.000000,0.01447363628
592.000000,0.01383629559
593.000000,0.01288864282
594.000000,0.01513712637
595.000000,0.01349939148
596.000000,0.02067929607
597.000000,0.01769319456
598.000000,0.0154193903
599.000000,0.01691557518
600.000000,0.02236541314
601.000000,0.0188326674
602.000000,0.02220623028
603.000000,0.02318522815
604.000000,0.02561294663
605.000000,0.0263663235
606.000000,0.02667138451
607.000000,0.02831499765
608.000000,0.02887964076
609.000000,0.03595109438
610.000000,0.04083204286
611.000000,0.04552412176
612.000000,0.05322307548
613.000000,0.06045549623
614.000000,0.07939215405
615.000000,0.08980208946
616.000000,0.1087343993
617.000000,0.1336766963
618.000000,0.1602295602
619.000000,0.1832723505
620.000000,0.1854063739
621.000000,0.1828239772
622.000000,0.1593426349
623.000000,0.1345239937
624.000000,0.1128557835
625.000000,0.09235709761
626.000000,0.07371697505
627.000000,0.06272539401
628.000000,0.05728978304
629.000000,0.0490060657
630.000000,0.04233548682
631.000000,0.03611295358
632.000000,0.03441003898
633.000000,0.03035016139
634.000000,0.02605648906
635.000000,0.0231621635
636.000000,0.02454499559
637.000000,0.02285838946
638.000000,0.02331268823
639.000000,0.01890658258
640.000000,0.02179363313
641.000000,0.01748950222
642.000000,0.02006124381
643.000000,0.01805248441
644.000000,0.01528516127
645.000000,0.01408308034
646.000000,0.01532548935
647.000000,0.01467064135
648.000000,0.01674979789
649.000000,0.01318911708
650.000000,0.01134755921
651.000000,0.01402312597
652.000000,0.01768529727
653.000000,0.01691524458
654.000000,0.01221090579
655.000000,0.01273773668
656.000000,0.01376943969
657.000000,0.01166301344
658.000000,0.01236828571
659.000000,0.01218696618
660.000000,0.01052603945
661.000000,0.01128574432
662.000000,0.01145692194
663.000000,0.01280765753
664.000000,0.009888639864
665.000000,0.0123883448
666.000000,0.01014158716
667.000000,0.01042082207
668.000000,0.009727983324
669.000000,0.01994165478
670.000000,0.01437699273
671.000000,0.01450248414
672.000000,0.01339041453
673.000000,0.01124887857
674.000000,0.01181253314
675.000000,0.01221629577
676.000000,0.01249567512
677.000000,0.01275572451
678.000000,0.01458694911
679.000000,0.00558272672
680.000000,0.01036381089
681.000000,0.01280202393
682.000000,0.01070556109
683.000000,0.0110847617
684.000000,0.01435832456
685.000000,0.01173854215
686.000000,0.01490129534
687.000000,0.01123028868
688.000000,0.01177566202
689.000000,0.009151748351
690.000000,0.007295323721
691.000000,0.0104198952
692.000000,0.01136807713
693.000000,0.01054193364
694.000000,0.008526000119
695.000000,0.01252718339
696.000000,0.01134734661
697.000000,0.01121600953
698.000000,0.009633312506
699.000000,0.01448207418
700.000000,0.01413468856
701.000000,0.01179072204
702.000000,0.01093940406
703.000000,0.01167424578
704.000000,0.01455977809
705.000000,0.01678651419
706.000000,0.01118886855
707.000000,0.01031113217
708.000000,0.007540601924
709.000000,0.0167641648
710.000000,0.008960793152
711.000000,0.01291997182
712.000000,0.01217881193
713.000000,0.0138521553
714.000000,0.009466527549
715.000000,0.007951975277
716.000000,0.01150034677
717.000000,0.0120328335
718.000000,0.01351891009
719.000000,0.007856152861
720.000000,0.01033101348
721.000000,0.01072407115
722.000000,0.008554855168
723.000000,0.01095080739
724.000000,0.01289218745
725.000000,0.01123881262
726.000000,0.008443245049
727.000000,0.01203464812
728.000000,0.01307833774
729.000000,0.01245360511
730.000000,0.01298185603
731.000000,0.008115687981
732.000000,0.01237063724
733.000000,0.01267499504
734.000000,0.01074813368
735.000000,0.01141950986
736.000000,0.01001467983
737.000000,0.01406495522
738.000000,0.01102899616
739.000000,0.009772934436
740.000000,0.01207487174
741.000000,0.0119660469
742.000000,0.01312438289
743.000000,0.01016240798
744.000000,0.01052713156
745.000000,0.01270195685
746.000000,0.01646615639
747.000000,0.01298455751
748.000000,0.009384996925
749.000000,0.0125190604
750.000000,0.01069419903
751.000000,0.008624048885
752.000000,0.01104329921
753.000000,0.01135071488
754.000000,0.01343576233
755.000000,0.01534540146
756.000000,0.01509174067
757.000000,0.01455169787
758.000000,0.01219466291
759.000000,0.01351339587
760.000000,0.01327233593
761.000000,0.01633800549
762.000000,0.01239014059
763.000000,0.01279084353
764.000000,0.01710285956
765.000000,0.01549806156
766.000000,0.01370128916
767.000000,0.01521699247
768.000000,0.01550217483
769.000000,0.01593165672
770.000000,0.01754711107
771.000000,0.01711519192
772.000000,0.0165021942
773.000000,0.01640818232
774.000000,0.01458712448
775.000000,0.01788219469
776.000000,0.02186174396
777.000000,0.02095665314
778.000000,0.02027204178
779.000000,0.02234542832
780.000000,0.02258138295
781.000000,0.02660487331
782.000000,0.03208913309
783.000000,0.03412993978
784.000000,0.03584364897
785.000000,0.03855009344
786.000000,0.04083051281
787.000000,0.0440311525
788.000000,0.05289575051
789.000000,0.05962359923
790.000000,0.07120755162
791.000000,0.08007743605
792.000000,0.08937777773
793.000000,0.1014393474
794.000000,0.1136830563
795.000000,0.1087216456
796.000000,0.1101143036
797.000000,0.1017372127
798.000000,0.0903523183
799.000000,0.07826337309
800.000000,0.06961123941
801.000000,0.0609970611
802.000000,0.05445420989
803.000000,0.04797330945
804.000000,0.04197475264
805.000000,0.03567101797
806.000000,0.03410620779
807.000000,0.02963745556
808.000000,0.02604453547
809.000000,0.02788929054
810.000000,0.02304166179
811.000000,0.02051529294
812.000000,0.02182954287
813.000000,0.01671971881
814.000000,0.01952354094
815.000000,0.01974300184
816.000000,0.01729616185
817.000000,0.01799273524
818.000000,0.02128193145
819.000000,0.01933265792
820.000000,0.01791416556
821.000000,0.01686124215
822.000000,0.01427717086
823.000000,0.01472000669
824.000000,0.01414419179
825.000000,0.01451553376
826.000000,0.0144625872
827.000000,0.01239682787
828.000000,0.01705262237
829.000000,0.01156293295
830.000000,0.01421200497
831.000000,0.01540677063
832.000000,0.01314234922
833.000000,0.01173420037
834.000000,0.01302171065
835.000000,0.01673394108
836.000000,0.01400173105
837.000000,0.01207884502
838.000000,0.01374330014
839.000000,0.01210164205
840.000000,0.008667997641
841.000000,0.01284160866
842.000000,0.01437556733
843.000000,0.01454115271
844.000000,0.01204449588
845.000000,0.009297524932
846.000000,0.01447401282
847.000000,0.011720587
848.000000,0.0134639409
849.000000,0.01421132396
850.000000,0.01259004493
851.000000,0.01175372592
852.000000,0.01058596843
853.000000,0.01094582551
854.000000,0.01184578445
855.000000,0.01083049232
856.000000,0.01245917276
857.000000,0.00779380976
858.000000,0.009657969636
859.000000,0.01159922328
860.000000,0.01025157664
861.000000,0.01054699884
862.000000,0.009328293312
863.000000,0.0129348279
864.000000,0.01484066189
865.000000,0.009548124925
866.000000,0.01385069525
867.000000,0.008627754201
868.000000,0.01180839325
869.000000,0.007510988506
870.000000,0.01248269414
871.000000,0.01154652269
872.000000,0.01177863761
873.000000,0.01392754528
874.000000,0.01267288795
875.000000,0.01142837675
876.000000,0.009838291484
877.000000,0.01157580594
878.000000,0.0100862003
879.000000,0.01062647975
880.000000,0.01442994124
881.000000,0.01322596905
882.000000,0.01205019589
883.000000,0.01273398187
884.000000,0.008592517532
885.000000,0.01169511911
886.000000,0.008101530175
887.000000,0.01015794951
888.000000,0.01223418932
889.000000,0.01225399849
890.000000,0.01290679402
891.000000,0.01181966929
892.000000,0.01161510962
893.000000,0.01151469148
894.000000,0.01433897616
895.000000,0.01413781667
896.000000,0.008633908713
897.000000,0.01181488758
898.000000,0.0141486805
899.000000,0.01106654511
900.000000,0.01202907841
901.000000,0.01039706322
902.000000,0.009210104871
903.000000,0.0118888913
904.000000,0.01081389673
905.000000,0.01131885463
906.000000,0.008758058109
907.000000,0.009344762399
908.000000,0.01140900131
909.000000,0.01079669913
910.000000,0.01279791331
911.000000,0.009608815804
912.000000,0.01314803013
913.000000,0.0128879433
914.000000,0.01195596526
915.000000,0.01308314843
916.000000,0.01165226052
917.000000,0.01145409769
918.000000,0.0118138351
919.000000,0.009366572604
920.000000,0.01185090015
921.000000,0.0135538884
922.000000,0.008786830644
923.000000,0.01340542662
924.000000,0.0108058115
925.000000,0.01140501557
926.000000,0.01234142638
927.000000,0.0127065426
928.000000,0.01498563498
929.000000,0.01202588752
930.000000,0.01579373624
931.000000,0.01251580276
932.000000,0.01346855235
933.000000,0.0139157511
934.000000,0.01130936035
935.000000,0.01048388521
936.000000,0.01302018346
937.000000,0.01427784664
938.000000,0.01469454337
939.000000,0.0123517185
940.000000,0.01668359165
941.000000,0.01302894168
942.000000,0.01203852596
943.000000,0.01583396981
944.000000,0.01609064447
945.000000,0.01188459138
946.000000,0.01557824498
947.000000,0.01154396002
948.000000,0.01430838395
949.000000,0.01891698399
950.000000,0.01713338244
951.000000,0.01614300501
952.000000,0.01621178936
953.000000,0.01346297447
954.000000,0.01597727685
955.000000,0.01641867794
956.000000,0.01367957496
957.000000,0.01638655583
958.000000,0.01732319483
959.000000,0.0169249768
960.000000,0.01763772745
961.000000,0.01662795848
962.000000,0.01516493843
963.000000,0.01782028799
964.000000,0.01429186724
965.000000,0.01710429815
966.000000,0.02115066501
967.000000,0.02300959019
968.000000,0.02077161466
969.000000,0.01570635774
970.000000,0.02380271744
971.000000,0.02288861898
972.000000,0.02216491439
973.000000,0.02485513132
974.000000,0.02535224068
975.000000,0.02288220624
976.000000,0.02379192992
977.000000,0.02971292587
978.000000,0.02447008981
979.000000,0.0318491084
980.000000,0.03310475755
981.000000,0.03651829901
982.000000,0.04045056943
983.000000,0.04243663937
984.000000,0.04614728498
985.000000,0.04854939916
986.000000,0.05253343716
987.000000,0.05922337826
988.000000,0.06385166718
989.000000,0.07045003139
990.000000,0.08266551152
991.000000,0.09312119968
992.000000,0.1128126088
993.000000,0.14149942
994.000000,0.1704899131
995.000000,0.2141392852
996.000000,0.2782234567
997.000000,0.3714246643
998.000000,0.5141540033
999.000000,0.7062762166
1000.000000,0.915836426
1001.000000,1.01634948
1002.000000,0.9164422122
1003.000000,0.7055011001
1004.000000,0.5203861412
1005.000000,0.3789013678
1006.000000,0.2833397036
1007.000000,0.218641416
1008.000000,0.1760992788
1009.000000,0.1466848126
1010.000000,0.1231047808
1011.000000,0.1032716366
1012.000000,0.09104878632
1013.000000,0.07994168469
1014.000000,0.07842007673
1015.000000,0.07503225484
1016.000000,0.07309823796
1017.000000,0.06944827876
1018.000000,0.07072843516
1019.000000,0.06863326244
1020.000000,0.07448094364
1021.000000,0.07809449725
1022.000000,0.08434573227
1023.000000,0.09287523105
1024.000000,0.1135373929
1025.000000,0.1280168084
1026.000000,0.1640709896
1027.000000,0.2041664562
1028.000000,0.266037155
1029.000000,0.3373720077
1030.000000,0.4109123919
1031.000000,0.4399874436
1032.000000,0.4060164338
1033.000000,0.3348231734
1034.000000,0.2576252647
1035.000000,0.2009360401
1036.000000,0.1580389924
1037.000000,0.1249154556
1038.000000,0.1012982815
1039.000000,0.08680763726
1040.000000,0.06929158867
1041.000000,0.0631123465
1042.000000,0.05453586157
1043.000000,0.04764946166
1044.000000,0.04492239746
1045.000000,0.03764494401
1046.000000,0.03645069253
1047.000000,0.03470576498
1048.000000,0.02943051099
1049.000000,0.02935477876
1050.000000,0.02921044764
1051.000000,0.02861889327
1052.000000,0.02357144522
1053.000000,0.02614881802
1054.000000,0.02278379115
1055.000000,0.02269254596
1056.000000,0.0206358058
1057.000000,0.0226005941
1058.000000,0.01900598126
1059.000000,0.02041812616
1060.000000,0.02009988416
1061.000000,0.02038804128
1062.000000,0.01637600418
1063.000000,0.01961549003
1064.000000,0.0177795089
1065.000000,0.0202908831
1066.000000,0.016400061
1067.000000,0.0156750862
1068.000000,0.01644126775
1069.000000,0.01569379698
1070.000000,0.01576010192
1071.000000,0.01335908837
1072.000000,0.01154327181
1073.000000,0.01259398539
1074.000000,0.014184702
1075.000000,0.01607191962
1076.000000,0.01444948114
1077.000000,0.01302158479
1078.000000,0.01450710695
1079.000000,0.0148290309
1080.000000,0.02012141848
1081.000000,0.01705839419
1082.000000,0.01478525336
1083.000000,0.01141635065
1084.000000,0.01389530997
1085.000000,0.01356532666
1086.000000,0.01521832974
1087.000000,0.01829133287
1088.000000,0.01386048648
1089.000000,0.009999668349
1090.000000,0.0136614975
1091.000000,0.0104994999
1092.000000,0.01549441966
1093.000000,0.01599647406
1094.000000,0.01443045454
1095.000000,0.01076694573
1096.000000,0.01336386527
1097.000000,0.01613350941
1098.000000,0.01169034936
1099.000000,0.01250780946
1100.000000,0.01420220185
1101.000000,0.01468884252
1102.000000,0.01386156688
1103.000000,0.01439540356
1104.000000,0.01414907044
1105.000000,0.0125942455
1106.000000,0.01361844994
1107.000000,0.01438333951
1108.000000,0.01167121258
1109.000000,0.01428729361
1110.000000,0.0141436749
1111.000000,0.01492850956
1112.000000,0.01476497543
1113.000000,0.01204232237
1114.000000,0.01170291814
1115.000000,0.01480786735
1116.000000,0.01410379077
1117.000000,0.01471364818
1118.000000,0.01350418001
1119.000000,0.01220647156
1120.000000,0.01544157854
1121.000000,0.01480128176
1122.000000,0.01646842452
1123.000000,0.01761614885
1124.000000,0.01783204389
1125.000000,0.01786035018
1126.000000,0.01422691899
1127.000000,0.01221427361
1128.000000,0.01552842937
1129.000000,0.01469766788
1130.000000,0.01488209023
1131.000000,0.01928207989
1132.000000,0.01526119795
1133.000000,0.02088397391
1134.000000,0.02190585187
1135.000000,0.02578720877
1136.000000,0.02340272008
1137.000000,0.02651191987
1138.000000,0.02219152771
1139.000000,0.02345907989
1140.000000,0.02836617897
1141.000000,0.02566822487
1142.000000,0.03283369827
1143.000000,0.0327331871
1144.000000,0.03267887775
1145.000000,0.04440510133
1146.000000,0.04356423956
1147.000000,0.0571885971
1148.000000,0.05731028992
1149.000000,0.06875226147
1150.000000,0.08360843366
1151.000000,0.09869972334
1152.000000,0.1132288683
1153.000000,0.1345056389
1154.000000,0.1487601433
1155.000000,0.1548715207
1156.000000,0.1455776122
1157.000000,0.1338929289
1158.000000,0.117409227
1159.000000,0.1019573914
1160.000000,0.08565362387
1161.000000,0.07239305802
1162.000000,0.06259967002
1163.000000,0.05890146908
1164.000000,0.04862443802
1165.000000,0.04651592629
1166.000000,0.03834727939
1167.000000,0.04375350139
1168.000000,0.03970706284
1169.000000,0.03438955718
1170.000000,0.03887767265
1171.000000,0.04084648077
1172.000000,0.04080081085
1173.000000,0.0411968426
1174.000000,0.04556268778
1175.000000,0.04639075995
1176.000000,0.05288656964
1177.000000,0.06014969937
1178.000000,0.0709538732
1179.000000,0.08154932934
1180.000000,0.1019885662
1181.000000,0.1157178979
1182.000000,0.1276009292
1183.000000,0.1346491473
1184.000000,0.1298792369
1185.000000,0.1148304883
1186.000000,0.09957197211
1187.000000,0.08039835834
1188.000000,0.0660403935
1189.000000,0.05789932919
1190.000000,0.05117762705
1191.000000,0.04028613738
1192.000000,0.03405959979
1193.000000,0.03202100962
1194.000000,0.03002974011
1195.000000,0.02559996471
1196.000000,0.02592215874
1197.000000,0.02216875363
1198.000000,0.02425723997
1199.000000,0.01890128131
1200.000000,0.01842739756
1201.000000,0.01952129012
1202.000000,0.01997131445
1203.000000,0.01980472505
1204.000000,0.01600688861
1205.000000,0.01691246244
1206.000000,0.01750181201
1207.000000,0.01887279957
1208.000000,0.01387916942
1209.000000,0.01284563509
1210.000000,0.01601154662
1211.000000,0.01427803243
1212.000000,0.01723537901
1213.000000,0.01437108073
1214.000000,0.01476953624
1215.000000,0.01236644151
1216.000000,0.01432597627
1217.000000,0.01605775827
1218.000000,0.01297161073
1219.000000,0.01094893009
1220.000000,0.01497768547
1221.000000,0.01247418287
1222.000000,0.01309645118
1223.000000,0.01145578933
1224.000000,0.01467326322
1225.000000,0.01121087741
1226.000000,0.01165367238
1227.000000,0.01255506679
1228.000000,0.01206408206
1229.000000,0.00791331033
1230.000000,0.01327348422
1231.000000,0.009939590653
1232.000000,0.01272879866
1233.000000,0.01137897693
1234.000000,0.01185989461
1235.000000,0.01058715574
1236.000000,0.009886528954
1237.000000,0.01225354622
1238.000000,0.01235593431
1239.000000,0.01390219293
1240.000000,0.01292245494
1241.000000,0.01040841854
1242.000000,0.01410982384
1243.000000,0.01615248784
1244.000000,0.01314410149
1245.000000,0.01129878636
1246.000000,0.009717204406
1247.000000,0.01180044939
1248.000000,0.00872475366
1249.000000,0.01315881434
1250.000000,0.01078650224
1251.000000,0.01037428908
1252.000000,0.01201649923
1253.000000,0.008998772841
1254.000000,0.007980306501
1255.000000,0.01056511795
1256.000000,0.01385380626
1257.000000,0.009706219915
1258.000000,0.01312680214
1259.000000,0.007694627028
1260.000000,0.01122479294
1261.000000,0.01235999413
1262.000000,0.01489582333
1263.000000,0.007792164541
1264.000000,0.01116864599
1265.000000,0.009473478634
1266.000000,0.0118845313
1267.000000,0.0101587773
1268.000000,0.01145644576
1269.000000,0.009731591795
1270.000000,0.01012483243
1271.000000,0.0120217254
1272.000000,0.01419328533
1273.000000,0.01162310875
1274.000000,0.01144125809
1275.000000,0.01026506334
1276.000000,0.01433497423
1277.000000,0.007301681356
1278.000000,0.00719404162
1279.000000,0.009608914071
1280.000000,0.01204002845
1281.000000,0.01304555465
1282.000000,0.0122845446
1283.000000,0.01264737004
1284.000000,0.01146918099
1285.000000,0.01020214647
1286.000000,0.009019505557
1287.000000,0.01202625533
1288.000000,0.009239008916
1289.000000,0.01196497056
1290.000000,0.01260447653
1291.000000,0.009892150632
1292.000000,0.01022949914
1293.000000,0.01002456642
1294.000000,0.0124833777
1295.000000,0.01143030471
1296.000000,0.009787264869
1297.000000,0.01165143188
1298.000000,0.01412223963
1299.000000,0.01168084722
1300.000000,0.01137167552
1301.000000,0.01032568263
1302.000000,0.00927070863
1303.000000,0.01113284088
1304.000000,0.01125952234
1305.000000,0.01051476672
1306.000000,0.0134857362
1307.000000,0.01067052729
1308.000000,0.01082144131
1309.000000,0.01152686823
1310.000000,0.01220417849
1311.000000,0.007587686382
1312.000000,0.01167914227
1313.000000,0.01365211677
1314.000000,0.008951941332
1315.000000,0.0119459541
1316.000000,0.01016767988
1317.000000,0.009215417075
1318.000000,0.01171532855
1319.000000,0.01099605329
1320.000000,0.007073620921
1321.000000,0.01004317959
1322.000000,0.01283470579
1323.000000,0.01006118218
1324.000000,0.009757425663
1325.000000,0.0105107862
1326.000000,0.01037111289
1327.000000,0.01273732955
1328.000000,0.009586180577
1329.000000,0.008966558386
1330.000000,0.01214896367
1331.000000,0.0132739148
1332.000000,0.01270491506
1333.000000,0.01299235103
1334.000000,0.01005340105
1335.000000,0.008434227127
1336.000000,0.009974498169
1337.000000,0.01133633032
1338.000000,0.008031563903
1339.000000,0.01081200189
1340.000000,0.01257868022
1341.000000,0.01007253233
1342.000000,0.01539338068
1343.000000,0.01296217351
1344.000000,0.00908250548
1345.000000,0.009268287118
1346.000000,0.01012803543
1347.000000,0.01294868536
1348.000000,0.01248820854
1349.000000,0.01047552912
1350.000000,0.01194232721
1351.000000,0.01320975234
1352.000000,0.01268480021
1353.000000,0.008493416698
1354.000000,0.009543744358
1355.000000,0.009907596206
1356.000000,0.008321899179
1357.000000,0.01346828736
1358.000000,0.01052210994
1359.000000,0.01052681417
1360.000000,0.01019567993
1361.000000,0.0124790931
1362.000000,0.0130336954
1363.000000,0.01327943659
1364.000000,0.01442710191
1365.000000,0.01016832759
1366.000000,0.01526562915
1367.000000,0.01699272253
1368.000000,0.01107561237
1369.000000,0.01145096857
1370.000000,0.01340100148
1371.000000,0.01470381378
1372.000000,0.01176280547
1373.000000,0.010744213
1374.000000,0.01651261232
1375.000000,0.01144880466
1376.000000,0.007056551653
1377.000000,0.01361387279
1378.000000,0.01458679796
1379.000000,0.01606030471
1380.000000,0.01625010168
1381.000000,0.01894060636
1382.000000,0.01175985488
1383.000000,0.0109833317
1384.000000,0.0101199723
1385.000000,0.01649026204
1386.000000,0.01230166841
1387.000000,0.009909349981
1388.000000,0.0092408363
1389.000000,0.0136859914
1390.000000,0.0126723856
1391.000000,0.01425667843
1392.000000,0.01202873479
1393.000000,0.01238172987
1394.000000,0.01490245712
1395.000000,0.01369045849
1396.000000,0.01537421456
1397.000000,0.01410577698
1398.000000,0.01393717585
1399.000000,0.01538207665
1400.000000,0.01417360787
1401.000000,0.015352379
1402.000000,0.01607386068
1403.000000,0.01435923287
1404.000000,0.01535129938
1405.000000,0.0160115177
1406.000000,0.01737974608
1407.000000,0.01676490978
1408.000000,0.01705323697
1409.000000,0.01777495997
1410.000000,0.01654065847
1411.000000,0.0182024791
1412.000000,0.01638364294
1413.000000,0.01460296149
1414.000000,0.01946656253
1415.000000,0.0152018154
1416.000000,0.01928060059
1417.000000,0.02317050032
1418.000000,0.02213405998
1419.000000,0.01929959338
1420.000000,0.0234808168
1421.000000,0.02324738868
1422.000000,0.02194388809
1423.000000,0.02433054917
1424.000000,0.02448309117
1425.000000,0.02605364906
1426.000000,0.02859602078
1427.000000,0.02625728243
1428.000000,0.03260455944
1429.000000,0.03670276378
1430.000000,0.03440546815
1431.000000,0.03507492755
1432.000000,0.03881429256
1433.000000,0.04506232201
1434.000000,0.04508219242
1435.000000,0.05103656449
1436.000000,0.05929390433
1437.000000,0.05877604254
1438.000000,0.06682855173
1439.000000,0.073057983
1440.000000,0.08240299291
1441.000000,0.09395776951
1442.000000,0.1047223331
1443.000000,0.1217199919
1444.000000,0.1379989991
1445.000000,0.1588290958
1446.000000,0.1780530895
1447.000000,0.1974753473
1448.000000,0.217244383
1449.000000,0.2260864816
1450.000000,0.232142183
1451.000000,0.2252207914
1452.000000,0.2171551617
1453.000000,0.1953483183
1454.000000,0.1787289347
1455.000000,0.1552107143
1456.000000,0.1382423137
1457.000000,0.1188910043
1458.000000,0.1048964663
1459.000000,0.09207766222
1460.000000,0.08427749777
1461.000000,0.07553423107
1462.000000,0.06845208536
1463.000000,0.06135798017
1464.000000,0.05472626565
1465.000000,0.05182657055
1466.000000,0.04961478424
1467.000000,0.04234785458
1468.000000,0.03864219704
1469.000000,0.03865893999
1470.000000,0.03933502013
1471.000000,0.03312468672
1472.000000,0.03088746773
1473.000000,0.02797859424
1474.000000,0.02716206175
1475.000000,0.02549498733
1476.000000,0.02434106259
1477.000000,0.02736459232
1478.000000,0.02689702051
1479.000000,0.02376902283
1480.000000,0.02304672333
1481.000000,0.02381046518
1482.000000,0.021621962
1483.000000,0.0212539265
1484.000000,0.02172274536
1485.000000,0.01999667368
1486.000000,0.022214034
1487.000000,0.02571245086
1488.000000,0.01891728643
1489.000000,0.01914919678
1490.000000,0.01664286033
1491.000000,0.0171202449
1492.000000,0.01793094323
1493.000000,0.01835410233
1494.000000,0.01692481843
1495.000000,0.01472558295
1496.000000,0.01767950381
1497.000000,0.01568066287
1498.000000,0.01738706919
1499.000000,0.0159932194
1500.000000,0.01603941169
1501.000000,0.01601591626
1502.000000,0.01183866412
1503.000000,0.01841050432
1504.000000,0.01404553376
1505.000000,0.01648336388
1506.000000,0.01678730198
1507.000000,0.01449342166
1508.000000,0.01285150744
1509.000000,0.01664131035
1510.000000,0.01354370271
1511.000000,0.0152346133
1512.000000,0.01626699404
1513.000000,0.01437464178
1514.000000,0.01188255588
1515.000000,0.01392266014
1516.000000,0.0162451261
1517.000000,0.01362713326
1518.000000,0.01698031334
1519.000000,0.01218401154
1520.000000,0.01332309307
1521.000000,0.01175694153
1522.000000,0.01336160528
1523.000000,0.01828801412
1524.000000,0.01643121696
1525.000000,0.01479375135
1526.000000,0.01411922027
1527.000000,0.01768944043
1528.000000,0.01521548002
1529.000000,0.0135454378
1530.000000,0.01866912605
1531.000000,0.0130462523
1532.000000,0.01612248086
1533.000000,0.01711814132
1534.000000,0.01785948704
1535.000000,0.01997504548
1536.000000,0.01784124607
1537.000000,0.01491680749
1538.000000,0.01873196397
1539.000000,0.0171968678
1540.000000,0.01432981842
1541.000000,0.01479057368
1542.000000,0.01551285133
1543.000000,0.01303265353
1544.000000,0.01841761322
1545.000000,0.01892121259
1546.000000,0.0190387081
1547.000000,0.01670363536
1548.000000,0.01855298461
1549.000000,0.0213719265
1550.000000,0.020116475
1551.000000,0.0194721563
1552.000000,0.01871689492
1553.000000,0.02058264662
1554.000000,0.0237283687
1555.000000,0.02180389519
1556.000000,0.02695012626
1557.000000,0.02790161859
1558.000000,0.02526037956
1559.000000,0.02143682662
1560.000000,0.0251103505
1561.000000,0.02921928873
1562.000000,0.02674624758
1563.000000,0.02782050461
1564.000000,0.0307522998
1565.000000,0.03778190729
1566.000000,0.03346880255
1567.000000,0.03281395341
1568.000000,0.0399342606
1569.000000,0.04327907017
1570.000000,0.04766464612
1571.000000,0.05074327558
1572.000000,0.05660624722
1573.000000,0.06146973673
1574.000000,0.07230506951
1575.000000,0.08024914626
1576.000000,0.09372671059
1577.000000,0.1067488395
1578.000000,0.1303051972
1579.000000,0.1513998519
1580.000000,0.176788194
1581.000000,0.2049471447
1582.000000,0.224679482
1583.000000,0.235824911
1584.000000,0.2338374379
1585.000000,0.2168447321
1586.000000,0.1958894586
1587.000000,0.1752075595
1588.000000,0.1569050083
1589.000000,0.1464535163
1590.000000,0.1439946106
1591.000000,0.1390126411
1592.000000,0.1402493926
1593.000000,0.1528543423
1594.000000,0.1680143769
1595.000000,0.192576257
1596.000000,0.2271497005
1597.000000,0.2730751505
1598.000000,0.341386508
1599.000000,0.4247936926
1600.000000,0.5236220691
1601.000000,0.6069702561
1602.000000,0.6414707676
1603.000000,0.604915075
1604.000000,0.5205020225
1605.000000,0.4134729687
1606.000000,0.3316596773
1607.000000,0.2606068662
1608.000000,0.2111884982
1609.000000,0.1693830201
1610.000000,0.1418130918
1611.000000,0.1195766797
1612.000000,0.1059252443
1613.000000,0.08795052071
1614.000000,0.07792021711
1615.000000,0.06722858698
1616.000000,0.06223910979
1617.000000,0.05426267204
1618.000000,0.0505883577
1619.000000,0.04741302813
1620.000000,0.04421393514
1621.000000,0.03823696399
1622.000000,0.03563651926
1623.000000,0.03743592634
1624.000000,0.03203848415
1625.000000,0.03167172603
1626.000000,0.02916978463
1627.000000,0.02518887727
1628.000000,0.026865974
1629.000000,0.02570704941
1630.000000,0.02846362311
1631.000000,0.02022147155
1632.000000,0.02212446177
1633.000000,0.02364809009
1634.000000,0.02065535909
1635.000000,0.01679013287
1636.000000,0.02173852821
1637.000000,0.02029924172
1638.000000,0.01777634512
1639.000000,0.01702121113
1640.000000,0.01721245976
1641.000000,0.01856119998
1642.000000,0.01745370509
1643.000000,0.01615153911
1644.000000,0.01782177446
1645.000000,0.01891871468
1646.000000,0.01535711904
1647.000000,0.01940030398
1648.000000,0.01610109356
1649.000000,0.01699672388
1650.000000,0.01641685993
1651.000000,0.01636443119
1652.000000,0.01564168508
1653.000000,0.01049084858
1654.000000,0.01291800294
1655.000000,0.01638428501
1656.000000,0.0123993818
1657.000000,0.01454402363
1658.000000,0.01107933416
1659.000000,0.01281685196
1660.000000,0.01695929936
1661.000000,0.01426801832
1662.000000,0.01194175732
1663.000000,0.0122820407
1664.000000,0.0100694675
1665.000000,0.01424013168
1666.000000,0.01273838656
1667.000000,0.0145720617
1668.000000,0.01460093179
1669.000000,0.01234513623
1670.000000,0.01094931298
1671.000000,0.01036234136
1672.000000,0.01187735681
1673.000000,0.01263248569
1674.000000,0.01526172919
1675.000000,0.01056086777
1676.000000,0.01328406737
1677.000000,0.01024552348
1678.000000,0.01110937605
1679.000000,0.01373535193
1680.000000,0.01316610138
1681.000000,0.01102660495
1682.000000,0.01074082635
1683.000000,0.01417132132
1684.000000,0.01157247894
1685.000000,0.01127341479
1686.000000,0.009740043089
1687.000000,0.0167751064
1688.000000,0.01541902797
1689.000000,0.01276576657
1690.000000,0.0161255904
1691.000000,0.01265595297
1692.000000,0.01097834024
1693.000000,0.01271194882
1694.000000,0.01443152014
1695.000000,0.009370236993
1696.000000,0.01403285105
1697.000000,0.01391361767
1698.000000,0.01452021162
1699.000000,0.01248217386
1700.000000,0.0137135157
1701.000000,0.00803949834
1702.000000,0.01134427923
1703.000000,0.01348943104
1704.000000,0.01252016063
1705.000000,0.01194197408
1706.000000,0.008906408079
1707.000000,0.01102904502
1708.000000,0.007901634471
1709.000000,0.0108413214
1710.000000,0.0119651201
1711.000000,0.0102529861
1712.000000,0.01222322029
1713.000000,0.01125971397
1714.000000,0.01300693345
1715.000000,0.01051331513
1716.000000,0.007999897922
1717.000000,0.008665546634
1718.000000,0.009641491357
1719.000000,0.01114476327
1720.000000,0.01132644169
1721.000000,0.009643596122
1722.000000,0.01132957415
1723.000000,0.009784675173
1724.000000,0.01236468118
1725.000000,0.008420475182
1726.000000,0.01338391929
1727.000000,0.01161907463
1728.000000,0.01026403797
1729.000000,0.008902065296
1730.000000,0.01214493487
1731.000000,0.009851385127
1732.000000,0.01233103884
1733.000000,0.01468852559
1734.000000,0.011380158
1735.000000,0.01151683759
1736.000000,0.0121184347
1737.000000,0.00997832769
1738.000000,0.01490708995
1739.000000,0.01062544396
1740.000000,0.0124377754
1741.000000,0.01173887783
1742.000000,0.009912880819
1743.000000,0.01379438867
1744.000000,0.01183253849
1745.000000,0.009794676236
1746.000000,0.009807126616
1747.000000,0.007273256164
1748.000000,0.008975409621
1749.000000,0.0127691152
1750.000000,0.012790437
1751.000000,0.009256257745
1752.000000,0.01234802328
1753.000000,0.0130470174
1754.000000,0.01264475318
1755.000000,0.01358724304
1756.000000,0.007311350184
1757.000000,0.01148911022
1758.000000,0.00918305632
1759.000000,0.01241500714
1760.000000,0.009586956143
1761.000000,0.01125370319
1762.000000,0.0127838565
1763.000000,0.007897564316
1764.000000,0.009716311068
1765.000000,0.009599513548
1766.000000,0.0109046114
1767.000000,0.007831517
1768.000000,0.01249790314
1769.000000,0.01474996527
1770.000000,0.01033925678
1771.000000,0.01190718873
1772.000000,0.00556854413
1773.000000,0.008444306339
1774.000000,0.01213018034
1775.000000,0.01137860683
1776.000000,0.01210602611
1777.000000,0.01341823293
1778.000000,0.01094083864
1779.000000,0.01025240137
1780.000000,0.009794372184
1781.000000,0.01091700877
1782.000000,0.006477481241
1783.000000,0.01362781004
1784.000000,0.006339841146
1785.000000,0.007484945955
1786.000000,0.0107654282
1787.000000,0.01248646582
1788.000000,0.01169633552
1789.000000,0.0135768665
1790.000000,0.009707348181
1791.000000,0.009283580918
1792.000000,0.01166121215
1793.000000,0.008311301753
1794.000000,0.01095822073
1795.000000,0.0115566519
1796.000000,0.01111835834
1797.000000,0.006458904886
1798.000000,0.01004427122
1799.000000,0.00642529878
1800.000000,0.01220154582
1801.000000,0.009610673763
1802.000000,0.01246122496
1803.000000,0.01310167174
1804.000000,0.007779567082
1805.000000,0.01228576671
1806.000000,0.01125354129
1807.000000,0.01343868223
1808.000000,0.007935482094
1809.000000,0.007908387872
1810.000000,0.008876624558
1811.000000,0.006766263063
1812.000000,0.0106905299
1813.000000,0.008992487481
1814.000000,0.01081712765
1815.000000,0.01110115129
1816.000000,0.01208833844
1817.000000,0.007765351363
1818.000000,0.01186262769
1819.000000,0.01184490929
1820.000000,0.00840845003
1821.000000,0.00914920823
1822.000000,0.007474255652
1823.000000,0.01280772044
1824.000000,0.01303665486
1825.000000,0.008664357407
1826.000000,0.01013779541
1827.000000,0.01114793813
1828.000000,0.01173531186
1829.000000,0.01019215147
1830.000000,0.01362340924
1831.000000,0.008458004987
1832.000000,0.01203547174
1833.000000,0.01050882232
1834.000000,0.01089940928
1835.000000,0.008847503446
1836.000000,0.006865263159
1837.000000,0.009275091547
1838.000000,0.0112493707
1839.000000,0.008642070508
1840.000000,0.006927846416
1841.000000,0.009961258058
1842.000000,0.01025025544
1843.000000,0.008296239082
1844.000000,0.01005813354
1845.000000,0.01110875764
1846.000000,0.01070008987
1847.000000,0.01210903845
1848.000000,0.01263826305
1849.000000,0.01021026644
1850.000000,0.008667500799
1851.000000,0.006800859164
1852.000000,0.01226430367
1853.000000,0.01095420678
1854.000000,0.01227150538
1855.000000,0.008627531568
1856.000000,0.01050832626
1857.000000,0.008639280183
1858.000000,0.008463929833
1859.000000,0.007351082285
1860.000000,0.009793357579
1861.000000,0.01119353403
1862.000000,0.01178841714
1863.000000,0.01071370207
1864.000000,0.009675263711
1865.000000,0.0142437645
1866.000000,0.0133079367
1867.000000,0.01225960973
1868.000000,0.01052792231
1869.000000,0.012758652
1870.000000,0.008714046096
1871.000000,0.007688569841
1872.000000,0.01147220092
1873.000000,0.01056219155
1874.000000,0.01230913436
1875.000000,0.008654810506
1876.000000,0.01080172377
1877.000000,0.00814351023
1878.000000,0.00953003235
1879.000000,0.01114131349
1880.000000,0.01007870122
1881.000000,0.008336134383
1882.000000,0.007317609857
1883.000000,0.009437287797
1884.000000,0.008369158067
1885.000000,0.007331594375
1886.000000,0.01037471452
1887.000000,0.008386900089
1888.000000,0.01273636773
1889.000000,0.01433091459
1890.000000,0.01242696673
1891.000000,0.01576598285
1892.000000,0.00777041443
1893.000000,0.006776769793
1894.000000,0.009911689003
1895.000000,0.006684234427
1896.000000,0.01048154199
1897.000000,0.01195198621
1898.000000,0.01174904697
1899.000000,0.01213542357
1900.000000,0.009780004005
1901.000000,0.01005680885
1902.000000,0.01067844109
1903.000000,0.01007428239
1904.000000,0.01204047127
1905.000000,0.009376705577
1906.000000,0.01009763501
1907.000000,0.008799257709
1908.000000,0.0120974046
1909.000000,0.01042521829
1910.000000,0.01044342681
1911.000000,0.009206211301
1912.000000,0.006637038703
1913.000000,0.009267392763
1914.000000,0.005849700164
1915.000000,0.01003078498
1916.000000,0.007704556667
1917.000000,0.01269833229
1918.000000,0.008884050493
1919.000000,0.01002118824
1920.000000,0.009170301013
1921.000000,0.007876397721
1922.000000,0.007078145499
1923.000000,0.005132771861
1924.000000,0.008845855552
1925.000000,0.006088065597
1926.000000,0.01236939335
1927.000000,0.007554914833
1928.000000,0.008921673575
1929.000000,0.01006968064
1930.000000,0.009817475855
1931.000000,0.01244516256
1932.000000,0.009985944167
1933.000000,0.009149188004
1934.000000,0.009883692829
1935.000000,0.01317816953
1936.000000,0.01167156095
1937.000000,0.006225181131
1938.000000,0.009734130954
1939.000000,0.008308341451
1940.000000,0.01016026844
1941.000000,0.01137444446
1942.000000,0.01014058266
1943.000000,0.01132485989
1944.000000,0.01347541559
1945.000000,0.00665305116
1946.000000,0.01003994615
1947.000000,0.0102378076
1948.000000,0.01102176723
1949.000000,0.01032080456
1950.000000,0.01196491928
1951.000000,0.01009298218
1952.000000,0.01100043814
1953.000000,0.007046212501
1954.000000,0.01052155908
1955.000000,0.007728078509
1956.000000,0.01128610273
1957.000000,0.01364292053
1958.000000,0.01002746127
1959.000000,0.01100597081
1960.000000,0.01162845363
1961.000000,0.01289498141
1962.000000,0.01171978045
1963.000000,0.01261711625
1964.000000,0.009117061092
1965.000000,0.01002646752
1966.000000,0.007276745918
1967.000000,0.01457776204
1968.000000,0.007832245485
1969.000000,0.0120070864
1970.000000,0.01050844285
1971.000000,0.01042485452
1972.000000,0.007856211208
1973.000000,0.01011130304
1974.000000,0.01035923383
1975.000000,0.01100648815
1976.000000,0.009519580906
1977.000000,0.0106705777
1978.000000,0.008282311517
1979.000000,0.01259539049
1980.000000,0.008898759524
1981.000000,0.01736517274
1982.000000,0.009575437516
1983.000000,0.008916162876
1984.000000,0.01057380115
1985.000000,0.009948247556
1986.000000,0.01238353065
1987.000000,0.01265123621
1988.000000,0.008990873022
1989.000000,0.008905971749
1990.000000,0.008752643496
1991.000000,0.01118883737
1992.000000,0.01220426016
1993.000000,0.01157782109
1994.000000,0.009977927272
1995.000000,0.01033936616
1996.000000,0.01158826421
1997.000000,0.01275023876
1998.000000,0.01020200401
1999.000000,0.01261535491
2000.000000,0.009611708477
