raman_shift_cm-1,intensity
200.000000,0.01227574314
201.000000,0.01075030204
202.000000,0.008993718884
203.000000,0.007553401806
204.000000,0.006284867776
205.000000,0.01011161289
206.000000,0.008453429314
207.000000,0.008330480015
208.000000,0.00963108257
209.000000,0.009971560416
210.000000,0.005521918976
211.000000,0.01192601118
212.000000,0.006022261452
213.000000,0.01379543682
214.000000,0.01125756206
215.000000,0.009132975328
216.000000,0.01276289728
217.000000,0.01011871829
218.000000,0.01145922979
219.000000,0.01029208585
220.000000,0.01227093965
221.000000,0.01220096835
222.000000,0.008263703095
223.000000,0.008853637143
224.000000,0.01076532553
225.000000,0.009659103254
226.000000,0.005509548683
227.000000,0.01413186718
228.000000,0.005729933807
229.000000,0.005917060752
230.000000,0.007528180997
231.000000,0.01121036918
232.000000,0.01367295408
233.000000,0.009610362831
234.000000,0.009299303633
235.000000,0.0104295282
236.000000,0.009348274272
237.000000,0.01024699426
238.000000,0.007802592525
239.000000,0.01095932353
240.000000,0.0108682423
241.000000,0.005212525118
242.000000,0.009863186147
243.000000,0.01040974941
244.000000,0.0112066487
245.000000,0.008452302744
246.000000,0.007428698504
247.000000,0.008183585357
248.000000,0.01118142366
249.000000,0.008381960662
250.000000,0.008557635766
251.000000,0.01237374803
252.000000,0.008514196962
253.000000,0.008289543975
254.000000,0.009904632988
255.000000,0.01048462989
256.000000,0.01216297076
257.000000,0.00832936055
258.000000,0.006952013081
259.000000,0.009843637233
260.000000,0.01137621436
261.000000,0.007126199779
262.000000,0.009115040934
263.000000,0.01070227462
264.000000,0.01055224973
265.000000,0.01025723921
266.000000,0.009577064338
267.000000,0.008492474656
268.000000,0.008235217848
269.000000,0.01240434669
270.000000,0.007857733291
271.000000,0.01254848555
272.000000,0.007462703279
273.000000,0.0159003207
274.000000,0.00661727445
275.000000,0.01330238631
276.000000,0.008300037048
277.000000,0.009863296324
278.000000,0.009963770355
279.000000,0.008790780694
280.000000,0.01455236416
281.000000,0.01028576481
282.000000,0.007454144243
283.000000,0.01138977237
284.000000,0.0115218177
285.000000,0.007802413046
286.000000,0.01116897261
287.000000,0.01023602801
288.000000,0.0117391602
289.000000,0.01152325483
290.000000,0.01008235667
291.000000,0.009283055954
292.000000,0.01192074991
293.000000,0.01072678848
294.000000,0.007122223548
295.000000,0.009011430898
296.000000,0.009134938156
297.000000,0.009577650435
298.000000,0.01467094289
299.000000,0.009348186303
300.000000,0.01105783928
301.000000,0.01341424059
302.000000,0.01111129183
303.000000,0.01096815376
304.000000,0.01270073288
305.000000,0.01049985674
306.000000,0.01047762308
307.000000,0.01148356147
308.000000,0.01093066736
309.000000,0.008746230915
310.000000,0.007775599882
311.000000,0.009881075393
312.000000,0.01290428656
313.000000,0.009655876418
314.000000,0.0124060157
315.000000,0.01093480632
316.000000,0.009492270458
317.000000,0.004843733784
318.000000,0.01055525352
319.000000,0.009557562085
320.000000,0.006910883605
321.000000,0.0111414051
322.000000,0.01006202754
323.000000,0.01086345951
324.000000,0.008905006131
325.000000,0.01051837141
326.000000,0.009168354645
327.000000,0.01224520799
328.000000,0.01036446606
329.000000,0.007311270235
330.000000,0.01054545901
331.000000,0.01025262136
332.000000,0.009710966694
333.000000,0.007419051553
334.000000,0.01223797641
335.000000,0.008656236108
336.000000,0.01328523428
337.000000,0.008800613294
338.000000,0.0101859973
339.000000,0.01003196458
340.000000,0.01042449068
341.000000,0.01540952789
342.000000,0.009126682998
343.000000,0.0142627388
344.000000,0.01137131084
345.000000,0.008734954478
346.000000,0.01263667059
347.000000,0.01180778359
348.000000,0.01203559865
349.000000,0.007459351449
350.000000,0.01113354397
351.000000,0.009323494736
352.000000,0.00984480644
353.000000,0.00986683759
354.000000,0.01021171285
355.000000,0.01331189079
356.000000,0.01088851728
357.000000,0.006442753706
358.000000,0.01262665588
359.000000,0.0103088572
360.000000,0.01039728223
361.000000,0.006481569901
362.000000,0.01093506522
363.000000,0.009138302444
364.000000,0.01204815438
365.000000,0.01105005834
366.000000,0.01179373438
367.000000,0.009392892657
368.000000,0.006481005937
369.000000,0.0120780026
370.000000,0.01098183776
371.000000,0.009480625901
372.000000,0.009028471296
373.000000,0.008372119213
374.000000,0.006619017704
375.000000,0.007790439918
376.000000,0.01000538659
377.000000,0.01336531048
378.000000,0.0110534918
379.000000,0.01335750593
380.000000,0.008129096777
381.000000,0.01266290923
382.000000,0.009318090573
383.000000,0.01308383453
384.000000,0.01260879406
385.000000,0.01022356549
386.000000,0.0104226787
387.000000,0.01258940787
388.000000,0.008563872133
389.000000,0.005830450775
390.000000,0.01179101274
391.000000,0.01451628703
392.000000,0.006366576345
393.000000,0.01057913786
394.000000,0.007796463454
395.000000,0.009581661216
396.000000,0.008162592469
397.000000,0.01191343268
398.000000,0.009074182633
399.000000,0.009779826256
400.000000,0.007998963301
401.000000,0.01163328114
402.000000,0.009148752446
403.000000,0.009412766174
404.000000,0.01001934554
405.000000,0.007268055194
406.000000,0.01013094634
407.000000,0.006949902824
408.000000,0.009738563175
409.000000,0.009736349197
410.000000,0.009376229851
411.000000,0.009778412838
412.000000,0.008830349992
413.000000,0.01120186653
414.000000,0.01017466068
415.000000,0.009239658163
416.000000,0.009725392721
417.000000,0.008830921284
418.000000,0.009931245504
419.000000,0.009560745603
420.000000,0.006585457736
421.000000,0.0134850707
422.000000,0.009301293299
423.000000,0.008849670929
424.000000,0.0107947179
425.000000,0.006016679912
426.000000,0.009400841712
427.000000,0.01081054455
428.000000,0.009669809833
429.000000,0.01032825279
430.000000,0.009313089042
431.000000,0.009466344714
432.000000,0.01012321486
433.000000,0.01050952528
434.000000,0.00801735321
435.000000,0.01076713601
436.000000,0.01080557553
437.000000,0.008974775624
438.000000,0.009068020476
439.000000,0.0104493235
440.000000,0.01254295678
441.000000,0.01239379977
442.000000,0.008556213681
443.000000,0.009138220079
444.000000,0.009098887936
445.000000,0.01098662801
446.000000,0.00990437957
447.000000,0.01086354922
448.000000,0.0127172526
449.000000,0.0106519374
450.000000,0.01101985036
451.000000,0.01090063356
452.000000,0.008672809852
453.000000,0.00988668986
454.000000,0.009722036307
455.000000,0.009165416841
456.000000,0.01320502933
457.000000,0.01130476548
458.000000,0.004803960063
459.000000,0.00854337723
460.000000,0.009979125662
461.000000,0.0101679069
462.000000,0.008526798245
463.000000,0.009520058242
464.000000,0.009390363684
465.000000,0.009238240406
466.000000,0.01144428632
467.000000,0.01008189114
468.000000,0.009051396182
469.000000,0.009600117234
470.000000,0.01018542311
471.000000,0.007996978856
472.000000,0.009099375725
473.000000,0.01141504703
474.000000,0.01220533681
475.000000,0.005511984719
476.000000,0.01513635626
477.000000,0.008998332601
478.000000,0.011872657
479.000000,0.007549064743
480.000000,0.01168996935
481.000000,0.01036256873
482.000000,0.01015442906
483.000000,0.009717723094
484.000000,0.009815495915
485.000000,0.01179825831
486.000000,0.008818849354
487.000000,0.009821787476
488.000000,0.009545824703
489.000000,0.007068638409
490.000000,0.01053007507
491.000000,0.01026911232
492.000000,0.009388717075
493.000000,0.00761899362
494.000000,0.00966015614
495.000000,0.01003706655
496.000000,0.0103472509
497.000000,0.0104749817
498.000000,0.007977123097
499.000000,0.01242511723
500.000000,0.01197258958
501.000000,0.0119702779
502.000000,0.01133037627
503.000000,0.01303564801
504.000000,0.01187044005
505.000000,0.01266848031
506.000000,0.01107129203
507.000000,0.01071437686
508.000000,0.01169659283
509.000000,0.00902920106
510.000000,0.009987996513
511.000000,0.01086131727
512.000000,0.009276343978
513.000000,0.005569058145
514.000000,0.009298248009
515.000000,0.00898671632
516.000000,0.01219998315
517.000000,0.006669637661
518.000000,0.008953830516
519.000000,0.01368314308
520.000000,0.005775909502
521.000000,0.00996390862
522.000000,0.009231122282
523.000000,0.007088291035
524.000000,0.01054498244
525.000000,0.00876504062
526.000000,0.005135705285
527.000000,0.009335689319
528.000000,0.007864975945
529.000000,0.01273317028
530.000000,0.01060984759
531.000000,0.008377762285
532.000000,0.01101158691
533.000000,0.01442726021
534.000000,0.008045963773
535.000000,0.008620254004
536.000000,0.01044201199
537.000000,0.01075471485
538.000000,0.01100572885
539.000000,0.007670885936
540.000000,0.010908858
541.000000,0.008367600046
542.000000,0.009164925162
543.000000,0.01255939502
544.000000,0.009300000935
545.000000,0.01196834365
546.000000,0.0101239575
547.000000,0.01113252747
548.000000,0.01113024298
549.000000,0.01212267397
550.000000,0.01233147864
551.000000,0.00941419739
552.000000,0.01423347716
553.000000,0.01215301027
554.000000,0.01288214841
555.000000,0.01299169271
556.000000,0.0100925183
557.000000,0.01094925329
558.000000,0.01127385747
559.000000,0.01171211279
560.000000,0.01457140613
561.000000,0.014925341
562.000000,0.0181665703
563.000000,0.01496905559
564.000000,0.01471284921
565.000000,0.01125153903
566.000000,0.009763319187
567.000000,0.01152495709
568.000000,0.0109755526
569.000000,0.009577320849
570.000000,0.0111635314
571.000000,0.01257541308
572.000000,0.01187374798
573.000000,0.01364848148
574.000000,0.0131533729
575.000000,0.012861241
576.000000,0.01460923911
577.000000,0.0119574057
578.000000,0.01242187301
579.000000,0.0152908943
580.000000,0.01439902118
581.000000,0.009589483272
582.000000,0.01297204676
583.000000,0.01594604198
584.000000,0.01397159418
585.000000,0.0156315971
586.000000,0.01033203933
587.000000,0.01443993305
588.000000,0.009730738948
589.000000,0.01540706452
590.000000,0.01179710766
591.000000,0.01734059475
592.000000,0.01345374696
593.000000,0.01540235782
594.000000,0.01608143192
595.000000,0.01591152765
596.000000,0.01333110203
597.000000,0.01838458423
598.000000,0.01652699866
599.000000,0.02310123907
600.000000,0.01844674912
601.000000,0.02030660736
602.000000,0.02023681763
603.000000,0.02554511551
604.000000,0.02650791295
605.000000,0.02640584468
606.000000,0.02925473159
607.000000,0.02781568722
608.000000,0.0306122281
609.000000,0.03872179219
610.000000,0.03890942324
611.000000,0.04571324039
612.000000,0.05047727184
613.000000,0.06217449619
614.000000,0.07594480337
615.000000,0.09070915447
616.000000,0.1078186316
617.000000,0.1365212761
618.000000,0.1609628874
619.000000,0.1767360686
620.000000,0.1881121703
621.000000,0.1811339551
622.000000,0.1595363035
623.000000,0.1352320903
624.000000,0.1130032293
625.000000,0.0906864422
626.000000,0.07491220684
627.000000,0.06564918872
628.000000,0.05677280456
629.000000,0.04567725423
630.000000,0.04385605653
631.000000,0.03259962406
632.000000,0.03563199654
633.000000,0.03053219029
634.000000,0.02547365441
635.000000,0.02417246637
636.000000,0.02377125011
637.000000,0.0247696792
638.000000,0.02265164922
639.000000,0.02047677744
640.000000,0.01822753329
641.000000,0.01841226211
642.000000,0.01513132353
643.000000,0.0161494706
644.000000,0.01472260603
645.000000,0.0152464759
646.000000,0.0164387706
647.000000,0.01453253436
648.000000,0.01129801901
649.000000,0.0167114594
650.000000,0.01423951906
651.000000,0.01487678942
652.000000,0.01238017817
653.000000,0.01308186207
654.000000,0.01281864145
655.000000,0.01607975371
656.000000,0.01061262523
657.000000,0.01469626899
658.000000,0.01262764701
659.000000,0.01407580421
660.000000,0.01131867054
661.000000,0.009128419299
662.000000,0.01417964772
663.000000,0.01150389646
664.000000,0.01312353451
665.000000,0.01350045107
666.000000,0.008553933453
667.000000,0.01094967504
668.000000,0.01148795584
669.000000,0.01298115973
670.000000,0.012991359
671.000000,0.01330070027
672.000000,0.01125742349
673.000000,0.01436393898
674.000000,0.0116995948
675.000000,0.01146369067
676.000000,0.01058115022
677.000000,0.009266012256
678.000000,0.01145838618
679.000000,0.0119936626
680.000000,0.01199677218
681.000000,0.0157685273
682.000000,0.01200096903
683.000000,0.01211631117
684.000000,0.008747840554
685.000000,0.01082462643
686.000000,0.01136625191
687.000000,0.012237902
688.000000,0.01086800875
689.000000,0.01194160949
690.000000,0.009258219586
691.000000,0.01348249893
692.000000,0.01326589103
693.000000,0.008920909997
694.000000,0.008168615494
695.000000,0.009826493675
696.000000,0.01147137559
697.000000,0.009378114967
698.000000,0.01145868635
699.000000,0.01262659922
700.000000,0.0130655023
701.000000,0.0133318554
702.000000,0.008180685158
703.000000,0.00712494321
704.000000,0.01208726302
705.000000,0.009548613922
706.000000,0.009562388734
707.000000,0.008920533019
708.000000,0.009787672019
709.000000,0.01214648684
710.000000,0.008152208441
711.000000,0.008330685604
712.000000,0.01306070452
713.000000,0.01229600873
714.000000,0.007651540741
715.000000,0.007339750825
716.000000,0.01173416312
717.000000,0.01268664969
718.000000,0.01509748883
719.000000,0.01231643033
720.000000,0.01228747183
721.000000,0.01050039157
722.000000,0.01112268577
723.000000,0.01017799709
724.000000,0.01336211048
725.000000,0.01179276098
726.000000,0.01317381334
727.000000,0.01168933981
728.000000,0.009216557159
729.000000,0.01106061916
730.000000,0.01326354217
731.000000,0.01188395748
732.000000,0.007717096506
733.000000,0.01330574172
734.000000,0.01033561149
735.000000,0.01398698891
736.000000,0.01063617416
737.000000,0.009610622007
738.000000,0.01300395659
739.000000,0.009064247693
740.000000,0.01379457388
741.000000,0.01050105257
742.000000,0.01275410855
743.000000,0.008741718982
744.000000,0.01170134541
745.000000,0.01064417051
746.000000,0.0149508574
747.000000,0.01028817102
748.000000,0.01154709833
749.000000,0.01034283205
750.000000,0.01205358663
751.000000,0.0124253502
752.000000,0.01450309578
753.000000,0.01371949859
754.000000,0.009389195646
755.000000,0.01626475008
756.000000,0.0129226102
757.000000,0.01505180558
758.000000,0.0122631522
759.000000,0.01459287912
760.000000,0.01302409322
761.000000,0.01279989179
762.000000,0.01334984317
763.000000,0.01207725929
764.000000,0.01492322974
765.000000,0.01499431372
766.000000,0.01584359797
767.000000,0.01728445884
768.000000,0.01715452598
769.000000,0.01635338976
770.000000,0.01795071706
771.000000,0.01668591366
772.000000,0.01872489094
773.000000,0.01721773813
774.000000,0.01445971381
775.000000,0.01731549646
776.000000,0.01764947349
777.000000,0.01955416572
778.000000,0.02127187743
779.000000,0.02303116702
780.000000,0.02534789114
781.000000,0.02394323101
782.000000,0.02717233474
783.000000,0.03185984337
784.000000,0.03465328175
785.000000,0.03946387954
786.000000,0.04080132274
787.000000,0.05096422868
788.000000,0.05156225036
789.000000,0.05751479657
790.000000,0.06883703238
791.000000,0.07707147417
792.000000,0.09176465895
793.000000,0.1002731079
794.000000,0.1047790397
795.000000,0.1108134443
796.000000,0.1097321641
797.000000,0.09928663123
798.000000,0.08967044597
799.000000,0.07817723637
800.000000,0.06829809777
801.000000,0.05773826446
802.000000,0.05230580968
803.000000,0.04433858517
804.000000,0.04149017845
805.000000,0.03912054532
806.000000,0.03484755757
807.000000,0.03096406634
808.000000,0.03017970156
809.000000,0.02719871126
810.000000,0.02304889749
811.000000,0.02355407745
812.000000,0.02276647191
813.000000,0.01995718127
814.000000,0.02068313473
815.000000,0.01703464795
816.000000,0.018766207
817.000000,0.01855192927
818.000000,0.01717762913
819.000000,0.01579736337
820.000000,0.01646986182
821.000000,0.01387316221
822.000000,0.01408493388
823.000000,0.01598253867
824.000000,0.01659128095
825.000000,0.01602928895
826.000000,0.01405901146
827.000000,0.01484663366
828.000000,0.01254589505
829.000000,0.01403974264
830.000000,0.01220435109
831.000000,0.01092451806
832.000000,0.01378384822
833.000000,0.01237989737
834.000000,0.01252709997
835.000000,0.01117474474
836.000000,0.01572713256
837.000000,0.0135344542
838.000000,0.01094872294
839.000000,0.01373186085
840.000000,0.01249243874
841.000000,0.01085662599
842.000000,0.01072847663
843.000000,0.01408235534
844.000000,0.01152973477
845.000000,0.01289218116
846.000000,0.01082704882
847.000000,0.01297863902
848.000000,0.01286848525
849.000000,0.01288680504
850.000000,0.01270429439
851.000000,0.01386835316
852.000000,0.01335619366
853.000000,0.01069276758
854.000000,0.01508816856
855.000000,0.0108623798
856.000000,0.01057206087
857.000000,0.01175475877
858.000000,0.01334881298
859.000000,0.01263166099
860.000000,0.009537796209
861.000000,0.01073800584
862.000000,0.01352582559
863.000000,0.0121292373
864.000000,0.01208397373
865.000000,0.008525770429
866.000000,0.01163624945
867.000000,0.01211052925
868.000000,0.009473376232
869.000000,0.007903260971
870.000000,0.01198304681
871.000000,0.01311644584
872.000000,0.008935585791
873.000000,0.01088739689
874.000000,0.01419213189
875.000000,0.01467864094
876.000000,0.01174295276
877.000000,0.007072753655
878.000000,0.01186587309
879.000000,0.01335583943
880.000000,0.01656161998
881.000000,0.01357495314
882.000000,0.01307306496
883.000000,0.01104987206
884.000000,0.008719665874
885.000000,0.01002478213
886.000000,0.009879681176
887.000000,0.01043836009
888.000000,0.01307324855
889.000000,0.01181758087
890.000000,0.007634989391
891.000000,0.01096630948
892.000000,0.01398899139
893.000000,0.01327546694
894.000000,0.01464582648
895.000000,0.009530565973
896.000000,0.01243873427
897.000000,0.01101490973
898.000000,0.009575511465
899.000000,0.01032709969
900.000000,0.008201462967
901.000000,0.008457635908
902.000000,0.0120696759
903.000000,0.01139027068
904.000000,0.01089414468
905.000000,0.01429628093
906.000000,0.01109821955
907.000000,0.01297830272
908.000000,0.009720742228
909.000000,0.009533582922
910.000000,0.01101525807
911.000000,0.01083085423
912.000000,0.0113493829
913.000000,0.01206461732
914.000000,0.01535210378
915.000000,0.01023920063
916.000000,0.009570044278
917.000000,0.01310742054
918.000000,0.01459907756
919.000000,0.01566518973
920.000000,0.01010770833
921.000000,0.01328610173
922.000000,0.008739819916
923.000000,0.0122243321
924.000000,0.01025611125
925.000000,0.01135056911
926.000000,0.00956294716
927.000000,0.01503133385
928.000000,0.01447293888
929.000000,0.01358352731
930.000000,0.01083037299
931.000000,0.01609978193
932.000000,0.01494038943
933.000000,0.01240256246
934.000000,0.01513920431
935.000000,0.01403863488
936.000000,0.0143569692
937.000000,0.01478830648
938.000000,0.01482097897
939.000000,0.01338758411
940.000000,0.01086416335
941.000000,0.01149770461
942.000000,0.01453255468
943.000000,0.01291256371
944.000000,0.01452851397
945.000000,0.01031178307
946.000000,0.0132508029
947.000000,0.01340341034
948.000000,0.01737402749
949.000000,0.01391718919
950.000000,0.01340962271
951.000000,0.01501744275
952.000000,0.01734494958
953.000000,0.02022249851
954.000000,0.01264174523
955.000000,0.01901285265
956.000000,0.01187677652
957.000000,0.01867254345
958.000000,0.01911131285
959.000000,0.01871200676
960.000000,0.01227068632
961.000000,0.01515390976
962.000000,0.02093789453
963.000000,0.01862533434
964.000000,0.02019081156
965.000000,0.01859800358
966.000000,0.01952998447
967.000000,0.02007011094
968.000000,0.01866815876
969.000000,0.02240720354
970.000000,0.02569312543
971.000000,0.01958826015
972.000000,0.02054143978
973.000000,0.02136279652
974.000000,0.0225494099
975.000000,0.02548839274
976.000000,0.02724422831
977.000000,0.02863760866
978.000000,0.02945284639
979.000000,0.02813783191
980.000000,0.0320642998
981.000000,0.0323998309
982.000000,0.03660462309
983.000000,0.04064586174
984.000000,0.04305137487
985.000000,0.04940455746
986.000000,0.05166112057
987.000000,0.05907067749
988.000000,0.06950397768
989.000000,0.07378177596
990.000000,0.07961303386
991.000000,0.09379229915
992.000000,0.1134985797
993.000000,0.1388090097
994.000000,0.1685897556
995.000000,0.2155946659
996.000000,0.2783983899
997.000000,0.3743197241
998.000000,0.5145980303
999.000000,0.7116460169
1000.000000,0.9176170793
1001.000000,1.013365698
1002.000000,0.9162457732
1003.000000,0.7125165519
1004.000000,0.517653167
1005.000000,0.3825529416
1006.000000,0.2837979609
1007.000000,0.219716237
1008.000000,0.1745853577
1009.000000,0.1437948682
1010.000000,0.1215134807
1011.000000,0.1067502267
1012.000000,0.09590188446
1013.000000,0.08399692926
1014.000000,0.07932364568
1015.000000,0.0710550053
1016.000000,0.07086836126
1017.000000,0.07039099533
1018.000000,0.06896224739
1019.000000,0.0689331496
1020.000000,0.07471374795
1021.000000,0.08042504694
1022.000000,0.08816236766
1023.000000,0.09741861541
1024.000000,0.1148681006
1025.000000,0.1320352542
1026.000000,0.1640164265
1027.000000,0.2027143453
1028.000000,0.2648691563
1029.000000,0.3386979943
1030.000000,0.4137460522
1031.000000,0.4430659195
1032.000000,0.4106066566
1033.000000,0.3340068779
1034.000000,0.2603530049
1035.000000,0.2007713691
1036.000000,0.1535009982
1037.000000,0.1233149377
1038.000000,0.1026294387
1039.000000,0.08417723336
1040.000000,0.06989133074
1041.000000,0.06586838842
1042.000000,0.05550321174
1043.000000,0.0486237324
1044.000000,0.04132943595
1045.000000,0.04177223485
1046.000000,0.03624319269
1047.000000,0.03316906864
1048.000000,0.03049580461
1049.000000,0.032369024
1050.000000,0.02447378929
1051.000000,0.0246885473
1052.000000,0.02707619373
1053.000000,0.02507275377
1054.000000,0.02439408356
1055.000000,0.02191284814
1056.000000,0.02268109514
1057.000000,0.01963857324
1058.000000,0.01914353104
1059.000000,0.01946710871
1060.000000,0.01833718614
1061.000000,0.01979217485
1062.000000,0.01850195302
1063.000000,0.01673556513
1064.000000,0.01534585068
1065.000000,0.02092945959
1066.000000,0.01512229741
1067.000000,0.01707185425
1068.000000,0.01372732157
1069.000000,0.01383499084
1070.000000,0.01662732697
1071.000000,0.01920510626
1072.000000,0.01885814513
1073.000000,0.01466137606
1074.000000,0.01359349473
1075.000000,0.01677325088
1076.000000,0.01781007224
1077.000000,0.01344491257
1078.000000,0.01345685813
1079.000000,0.01774722165
1080.000000,0.01297152647
1081.000000,0.01621827207
1082.000000,0.01300555081
1083.000000,0.01521435868
1084.000000,0.01162026426
1085.000000,0.01517097547
1086.000000,0.01205774806
1087.000000,0.01167690081
1088.000000,0.0129823786
1089.000000,0.0164781289
1090.000000,0.0146032314
1091.000000,0.0139902879
1092.000000,0.01541966616
1093.000000,0.01259179003
1094.000000,0.01605472381
1095.000000,0.01113723606
1096.000000,0.01782055398
1097.000000,0.01471953689
1098.000000,0.01415526091
1099.000000,0.009078275067
1100.000000,0.01379466653
1101.000000,0.01369477645
1102.000000,0.01518626424
1103.000000,0.01155067025
1104.000000,0.01717826049
1105.000000,0.0134593194
1106.000000,0.01450847434
1107.000000,0.01272121172
1108.000000,0.01889846461
1109.000000,0.01282032784
1110.000000,0.01427377196
1111.000000,0.01605810368
1112.000000,0.01889079541
1113.000000,0.01433341417
1114.000000,0.01332317949
1115.000000,0.0138621495
1116.000000,0.0147049379
1117.000000,0.01591139175
1118.000000,0.01488914447
1119.000000,0.01273846789
1120.000000,0.01517297626
1121.000000,0.01555541311
1122.000000,0.01429585406
1123.000000,0.01745737301
1124.000000,0.01836965595
1125.000000,0.01130246193
1126.000000,0.01750823497
1127.000000,0.01793355345
1128.000000,0.02001874281
1129.000000,0.01892274593
1130.000000,0.02098625924
1131.000000,0.02045013325
1132.000000,0.01676962385
1133.000000,0.01817570679
1134.000000,0.01849653982
1135.000000,0.02179898797
1136.000000,0.02072042383
1137.000000,0.02060253585
1138.000000,0.02460219996
1139.000000,0.02788045547
1140.000000,0.02669651036
1141.000000,0.02730848776
1142.000000,0.02916453753
1143.000000,0.03302609942
1144.000000,0.03679748786
1145.000000,0.04129315921
1146.000000,0.04741010402
1147.000000,0.05264743763
1148.000000,0.05650197436
1149.000000,0.07259019274
1150.000000,0.08953463163
1151.000000,0.09716006802
1152.000000,0.1138502082
1153.000000,0.1371294819
1154.000000,0.1520189451
1155.000000,0.1546685505
1156.000000,0.1531071481
1157.000000,0.138955131
1158.000000,0.119674339
1159.000000,0.1055687496
1160.000000,0.08176791732
1161.000000,0.07544214259
1162.000000,0.06125577689
1163.000000,0.05458584584
1164.000000,0.04987391432
1165.000000,0.04526434695
1166.000000,0.04265752196
1167.000000,0.04500808793
1168.000000,0.03960769818
1169.000000,0.03709049542
1170.000000,0.03663076061
1171.000000,0.03773138779
1172.000000,0.03580062274
1173.000000,0.04518172692
1174.000000,0.04241391653
1175.000000,0.05173225633
1176.000000,0.05063092866
1177.000000,0.05918710275
1178.000000,0.0693424939
1179.000000,0.08463773537
1180.000000,0.1008675345
1181.000000,0.1135281212
1182.000000,0.1267207761
1183.000000,0.1348310869
1184.000000,0.129735959
1185.000000,0.115714365
1186.000000,0.09333970709
1187.000000,0.08409803241
1188.000000,0.06744433745
1189.000000,0.05773487499
1190.000000,0.04971432388
1191.000000,0.04038249239
1192.000000,0.0392649109
1193.000000,0.03688188167
1194.000000,0.03112503371
1195.000000,0.02616201011
1196.000000,0.02462379761
1197.000000,0.0243695406
1198.000000,0.02288257474
1199.000000,0.02350482122
1200.000000,0.01867007251
1201.000000,0.01896766007
1202.000000,0.01943604597
1203.000000,0.01821102458
1204.000000,0.01708499068
1205.000000,0.01513549414
1206.000000,0.01555992569
1207.000000,0.01605370977
1208.000000,0.01804462851
1209.000000,0.01518580067
1210.000000,0.0180228649
1211.000000,0.01637991418
1212.000000,0.01520624216
1213.000000,0.01523470125
1214.000000,0.01455400613
1215.000000,0.01328010959
1216.000000,0.01255665265
1217.000000,0.01638504019
1218.000000,0.01215007061
1219.000000,0.01555536699
1220.000000,0.01186582839
1221.000000,0.01357742289
1222.000000,0.0145516595
1223.000000,0.01561982118
1224.000000,0.013637706
1225.000000,0.01106232093
1226.000000,0.01034996579
1227.000000,0.01116422732
1228.000000,0.01415531922
1229.000000,0.01037506681
1230.000000,0.01424082938
1231.000000,0.0122807004
1232.000000,0.008838248586
1233.000000,0.01086640682
1234.000000,0.01305317849
1235.000000,0.01030169992
1236.000000,0.01254309471
1237.000000,0.01292768718
1238.000000,0.007452068711
1239.000000,0.00755624398
1240.000000,0.01002439646
1241.000000,0.00860361106
1242.000000,0.01254870578
1243.000000,0.01152526097
1244.000000,0.01019039913
1245.000000,0.01207240958
1246.000000,0.0125317441
1247.000000,0.007590908973
1248.000000,0.00964251722
1249.000000,0.01081055389
1250.000000,0.01474087653
1251.000000,0.01107444264
1252.000000,0.0141226944
1253.000000,0.008812566906
1254.000000,0.009068154326
1255.000000,0.01258821159
1256.000000,0.0104128415
1257.000000,0.01426652647
1258.000000,0.0131025211
1259.000000,0.009326046522
1260.000000,0.008704772807
1261.000000,0.01325903727
1262.000000,0.01212898752
1263.000000,0.01217128201
1264.000000,0.009041874921
1265.000000,0.01197178479
1266.000000,0.008421174346
1267.000000,0.01207664335
1268.000000,0.01237945657
1269.000000,0.009779031596
1270.000000,0.009951256276
1271.000000,0.01792460826
1272.000000,0.01179383304
1273.000000,0.01144599765
1274.000000,0.009077491136
1275.000000,0.0125089697
1276.000000,0.01163251705
1277.000000,0.0118611378
1278.000000,0.01372171133
1279.000000,0.01242865521
1280.000000,0.01649382688
1281.000000,0.01020976338
1282.000000,0.009767542952
1283.000000,0.0131016151
1284.000000,0.009535282115
1285.000000,0.01300213811
1286.000000,0.008824013625
1287.000000,0.01141981895
1288.000000,0.01551209326
1289.000000,0.01143573097
1290.000000,0.01212542583
1291.000000,0.0152022418
1292.000000,0.01240726053
1293.000000,0.01034698127
1294.000000,0.01095283891
1295.000000,0.0146864258
1296.000000,0.01449529007
1297.000000,0.01424371938
1298.000000,0.01147774904
1299.000000,0.009939469099
1300.000000,0.01197174605
1301.000000,0.008075365306
1302.000000,0.00835277268
1303.000000,0.009764961544
1304.000000,0.01109727468
1305.000000,0.01234893528
1306.000000,0.006591195009
1307.000000,0.01487754948
1308.000000,0.01101322393
1309.000000,0.01288534637
1310.000000,0.01470841114
1311.000000,0.01236067176
1312.000000,0.01511236061
1313.000000,0.01056550719
1314.000000,0.009100930904
1315.000000,0.01135780859
1316.000000,0.009561753662
1317.000000,0.01445689305
1318.000000,0.007309935159
1319.000000,0.01235351828
1320.000000,0.01193580586
1321.000000,0.01218237926
1322.000000,0.01053263013
1323.000000,0.009650528365
1324.000000,0.01099919126
1325.000000,0.00782045959
1326.000000,0.00894465198
1327.000000,0.01031670549
1328.000000,0.009206271702
1329.000000,0.009967244997
1330.000000,0.01229789172
1331.000000,0.006360360702
1332.000000,0.009577762562
1333.000000,0.00799713599
1334.000000,0.01198685549
1335.000000,0.0131865091
1336.000000,0.01160858247
1337.000000,0.008166456557
1338.000000,0.01009972889
1339.000000,0.009905962988
1340.000000,0.01160748459
1341.000000,0.01373999795
1342.000000,0.01042402968
1343.000000,0.01503484072
1344.000000,0.0125260372
1345.000000,0.01436699967
1346.000000,0.01089764278
1347.000000,0.008676091603
1348.000000,0.01736009625
1349.000000,0.01187890029
1350.000000,0.01019219122
1351.000000,0.008749940572
1352.000000,0.007203723511
1353.000000,0.01472774968
1354.000000,0.01226884857
1355.000000,0.01197796792
1356.000000,0.01033445671
1357.000000,0.01273887774
1358.000000,0.01420516214
1359.000000,0.01001926734
1360.000000,0.01103688925
1361.000000,0.008560327446
1362.000000,0.009088289942
1363.000000,0.01078095798
1364.000000,0.01240081572
1365.000000,0.01648943234
1366.000000,0.01321660891
1367.000000,0.01287225463
1368.000000,0.01236874132
1369.000000,0.01431566944
1370.000000,0.01177807456
1371.000000,0.01024413367
1372.000000,0.01093760406
1373.000000,0.012503469
1374.000000,0.01373572405
1375.000000,0.01377996469
1376.000000,0.01315650512
1377.000000,0.0123979061
1378.000000,0.01420640031
1379.000000,0.01353663636
1380.000000,0.01596703517
1381.000000,0.01185117046
1382.000000,0.01360110616
1383.000000,0.01256412089
1384.000000,0.01211601249
1385.000000,0.01538685833
1386.000000,0.01420028475
1387.000000,0.01268888035
1388.000000,0.01307017295
1389.000000,0.0123949844
1390.000000,0.01533337355
1391.000000,0.01433346031
1392.000000,0.01502461078
1393.000000,0.0142285099
1394.000000,0.01623340937
1395.000000,0.01720526845
1396.000000,0.01308922711
1397.000000,0.01334169339
1398.000000,0.01449288499
1399.000000,0.01337232348
1400.000000,0.01461130591
1401.000000,0.01714187742
1402.000000,0.01407990139
1403.000000,0.01354453252
1404.000000,0.01585783624
1405.000000,0.01764966491
1406.000000,0.01601780214
1407.000000,0.0143535906
1408.000000,0.01748163866
1409.000000,0.01670094809
1410.000000,0.0163687408
1411.000000,0.01782253058
1412.000000,0.01908731477
1413.000000,0.01718889052
1414.000000,0.01900766646
1415.000000,0.02016363386
1416.000000,0.01788048315
1417.000000,0.02018879742
1418.000000,0.01999288519
1419.000000,0.02106136165
1420.000000,0.02367924744
1421.000000,0.02487418843
1422.000000,0.02422073264
1423.000000,0.02723149593
1424.000000,0.02369627636
1425.000000,0.02829376986
1426.000000,0.02695398211
1427.000000,0.02845323096
1428.000000,0.03408126067
1429.000000,0.03470454973
1430.000000,0.03763079379
1431.000000,0.04028169286
1432.000000,0.0352581317
1433.000000,0.04461510056
1434.000000,0.04415324205
1435.000000,0.05208450059
1436.000000,0.05992950527
1437.000000,0.0603150035
1438.000000,0.06274198742
1439.000000,0.07509101061
1440.000000,0.08317791687
1441.000000,0.09702562721
1442.000000,0.1108565808
1443.000000,0.1208126103
1444.000000,0.1352911742
1445.000000,0.1545905224
1446.000000,0.1739706677
1447.000000,0.1938904164
1448.000000,0.213402811
1449.000000,0.2273716572
1450.000000,0.2286814253
1451.000000,0.2261714615
1452.000000,0.2202602302
1453.000000,0.1932757077
1454.000000,0.1781405404
1455.000000,0.157064243
1456.000000,0.1373906108
1457.000000,0.1221780147
1458.000000,0.1056361405
1459.000000,0.09201678604
1460.000000,0.08385575275
1461.000000,0.0742443549
1462.000000,0.06803695595
1463.000000,0.05831842116
1464.000000,0.05277276161
1465.000000,0.05375277282
1466.000000,0.04635325054
1467.000000,0.04423749485
1468.000000,0.03884018753
1469.000000,0.03756745286
1470.000000,0.03521488585
1471.000000,0.03141575634
1472.000000,0.0326844154
1473.000000,0.03239928689
1474.000000,0.02915202732
1475.000000,0.02943269684
1476.000000,0.02764989346
1477.000000,0.02485767246
1478.000000,0.02449982306
1479.000000,0.0212795319
1480.000000,0.02313443117
1481.000000,0.02211679191
1482.000000,0.02412631243
1483.000000,0.01861424825
1484.000000,0.01783142455
1485.000000,0.021065188
1486.000000,0.01584580996
1487.000000,0.0192836579
1488.000000,0.02034838944
1489.000000,0.01529067774
1490.000000,0.01904144736
1491.000000,0.01824876327
1492.000000,0.01981841021
1493.000000,0.01549612402
1494.000000,0.01591791671
1495.000000,0.01528511744
1496.000000,0.01480144924
1497.000000,0.01826070211
1498.000000,0.01797986596
1499.000000,0.0198904761
1500.000000,0.01871989955
1501.000000,0.01327440271
1502.000000,0.01593529947
1503.000000,0.01702112105
1504.000000,0.01811170158
1505.000000,0.0149203934
1506.000000,0.01225511175
1507.000000,0.01420343906
1508.000000,0.0133856749
1509.000000,0.01560352109
1510.000000,0.01712838098
1511.000000,0.01774080922
1512.000000,0.01548210659
1513.000000,0.01574676241
1514.000000,0.01616080508
1515.000000,0.01434925873
1516.000000,0.01652318631
1517.000000,0.01886964916
1518.000000,0.01309960343
1519.000000,0.01753500221
1520.000000,0.01693332141
1521.000000,0.01726837329
1522.000000,0.01762045983
1523.000000,0.02237011214
1524.000000,0.01503055207
1525.000000,0.0156210072
1526.000000,0.01295847692
1527.000000,0.01533246228
1528.000000,0.01710645779
1529.000000,0.0144606224
1530.000000,0.01384004793
1531.000000,0.01419223026
1532.000000,0.01268358126
1533.000000,0.02077177789
1534.000000,0.01675412206
1535.000000,0.01368453238
1536.000000,0.0159630631
1537.000000,0.017080577
1538.000000,0.01590340295
1539.000000,0.01588604795
1540.000000,0.01753179724
1541.000000,0.01494589853
1542.000000,0.01726610848
1543.000000,0.01558769256
1544.000000,0.01546022031
1545.000000,0.01875386838
1546.000000,0.01621618223
1547.000000,0.01725315474
1548.000000,0.01872284495
1549.000000,0.0211395795
1550.000000,0.01887310247
1551.000000,0.02107920133
1552.000000,0.01731280047
1553.000000,0.01858030662
1554.000000,0.02457022875
1555.000000,0.02204953189
1556.000000,0.021766863
1557.000000,0.02087490041
1558.000000,0.02302823908
1559.000000,0.02532529321
1560.000000,0.02524096276
1561.000000,0.02761407036
1562.000000,0.02733322283
1563.000000,0.02750556988
1564.000000,0.03599326577
1565.000000,0.03215434848
1566.000000,0.03433986421
1567.000000,0.03750132108
1568.000000,0.03930064942
1569.000000,0.04737008834
1570.000000,0.04693130194
1571.000000,0.05241864405
1572.000000,0.05647093926
1573.000000,0.06575536882
1574.000000,0.07371589241
1575.000000,0.08045493792
1576.000000,0.09040693438
1577.000000,0.1093799301
1578.000000,0.1236954104
1579.000000,0.1511909898
1580.000000,0.1798690569
1581.000000,0.2053222069
1582.000000,0.2251848039
1583.000000,0.2414608647
1584.000000,0.2338516385
1585.000000,0.2137986124
1586.000000,0.1909242811
1587.000000,0.1716168999
1588.000000,0.1596344918
1589.000000,0.1458425092
1590.000000,0.1415761859
1591.000000,0.1393914992
1592.000000,0.1444694243
1593.000000,0.1516503891
1594.000000,0.1720742889
1595.000000,0.1922008696
1596.000000,0.2269562584
1597.000000,0.2759427921
1598.000000,0.3421707013
1599.000000,0.4249214896
1600.000000,0.5215845373
1601.000000,0.6082590915
1602.000000,0.6482945731
1603.000000,0.6019548223
1604.000000,0.5184651307
1605.000000,0.4176564281
1606.000000,0.3274211518
1607.000000,0.2584310932
1608.000000,0.2076550903
1609.000000,0.1677509104
1610.000000,0.1405965043
1611.000000,0.1195278568
1612.000000,0.1021927472
1613.000000,0.08485246052
1614.000000,0.074830524
1615.000000,0.07247595351
1616.000000,0.05931198776
1617.000000,0.05443019667
1618.000000,0.05389981617
1619.000000,0.0453273376
1620.000000,0.04309153346
1621.000000,0.04236131153
1622.000000,0.04034792149
1623.000000,0.03648520269
1624.000000,0.03214770283
1625.000000,0.02703514003
1626.000000,0.02874283366
1627.000000,0.02908099297
1628.000000,0.02649900597
1629.000000,0.02541163473
1630.000000,0.02614031444
1631.000000,0.02293564485
1632.000000,0.02036217051
1633.000000,0.02181852154
1634.000000,0.02205131697
1635.000000,0.02244980668
1636.000000,0.0202547385
1637.000000,0.02013645351
1638.000000,0.01753129589
1639.000000,0.01815326441
1640.000000,0.01750500894
1641.000000,0.0165970347
1642.000000,0.01726420302
1643.000000,0.02048157456
1644.000000,0.01635477244
1645.000000,0.01693874713
1646.000000,0.01291911443
1647.000000,0.01704089556
1648.000000,0.01878120679
1649.000000,0.01613923723
1650.000000,0.01659733897
1651.000000,0.01655292966
1652.000000,0.01770610608
1653.000000,0.01492599604
1654.000000,0.0147903992
1655.000000,0.01662140621
1656.000000,0.01368765899
1657.000000,0.01370925948
1658.000000,0.01361111303
1659.000000,0.01462347805
1660.000000,0.01350185129
1661.000000,0.01674024886
1662.000000,0.01357441608
1663.000000,0.01232823683
1664.000000,0.01637852377
1665.000000,0.01574084685
1666.000000,0.01716451272
1667.000000,0.01503071065
1668.000000,0.01115921686
1669.000000,0.01656372537
1670.000000,0.01505024004
1671.000000,0.01107732119
1672.000000,0.01219596037
1673.000000,0.0100283102
1674.000000,0.01319214243
1675.000000,0.01055080313
1676.000000,0.01360713111
1677.000000,0.007939438887
1678.000000,0.01467772608
1679.000000,0.01555365284
1680.000000,0.01290842814
1681.000000,0.00969360989
1682.000000,0.01038565007
1683.000000,0.01360974658
1684.000000,0.006766183309
1685.000000,0.01343020743
1686.000000,0.008958079463
1687.000000,0.01093176565
1688.000000,0.0107108762
1689.000000,0.01176983114
1690.000000,0.01278544707
1691.000000,0.01069566834
1692.000000,0.01206783423
1693.000000,0.008732134682
1694.000000,0.01166618752
1695.000000,0.009034900134
1696.000000,0.01146456235
1697.000000,0.01127839136
1698.000000,0.01167691771
1699.000000,0.01159575117
1700.000000,0.01105192298
1701.000000,0.01288138982
1702.000000,0.009960311978
1703.000000,0.01131178674
1704.000000,0.01108637415
1705.000000,0.01288242058
1706.000000,0.01095612845
1707.000000,0.01026098098
1708.000000,0.01441765983
1709.000000,0.01032543408
1710.000000,0.008365917841
1711.000000,0.01457513135
1712.000000,0.0104664253
1713.000000,0.01119399579
1714.000000,0.01091903575
1715.000000,0.01092513184
1716.000000,0.01041619661
1717.000000,0.007650738265
1718.000000,0.01140372425
1719.000000,0.01555443431
1720.000000,0.01277375121
1721.000000,0.01166003405
1722.000000,0.01022808567
1723.000000,0.008755339846
1724.000000,0.009311231839
1725.000000,0.009323064444
1726.000000,0.008531311932
1727.000000,0.01388770023
1728.000000,0.01101328775
1729.000000,0.009516394155
1730.000000,0.01071774751
1731.000000,0.01411625637
1732.000000,0.0123561927
1733.000000,0.0132486434
1734.000000,0.009499517851
1735.000000,0.008198678027
1736.000000,0.01125677996
1737.000000,0.01162442558
1738.000000,0.01268914021
1739.000000,0.008245434722
1740.000000,0.01030326842
1741.000000,0.01421686502
1742.000000,0.007960224272
1743.000000,0.01008508543
1744.000000,0.01028832849
1745.000000,0.008614060959
1746.000000,0.01277049221
1747.000000,0.01046943124
1748.000000,0.008112510511
1749.000000,0.00909959384
1750.000000,0.009279210111
1751.000000,0.01427813026
1752.000000,0.01007532818
1753.000000,0.009439192532
1754.000000,0.01355417739
1755.000000,0.01139122645
1756.000000,0.01541145745
1757.000000,0.009747742258
1758.000000,0.007102056162
1759.000000,0.01363996515
1760.000000,0.009771203861
1761.000000,0.01076015671
1762.000000,0.01042902135
1763.000000,0.009442893697
1764.000000,0.01222617233
1765.000000,0.00921947582
1766.000000,0.01159397578
1767.000000,0.01014785682
1768.000000,0.01194290033
1769.000000,0.01445606762
1770.000000,0.01105168547
1771.000000,0.01002318037
1772.000000,0.01616702589
1773.000000,0.01446169961
1774.000000,0.01040332436
1775.000000,0.01255770563
1776.000000,0.01156691093
1777.000000,0.0102748212
1778.000000,0.008959362739
1779.000000,0.01095087148
1780.000000,0.008348748312
1781.000000,0.01377897675
1782.000000,0.01404290343
1783.000000,0.009068410465
1784.000000,0.009347103318
1785.000000,0.008170970635
1786.000000,0.01325535132
1787.000000,0.01080663443
1788.000000,0.008416501058
1789.000000,0.009931881069
1790.000000,0.01262328385
1791.000000,0.01126359658
1792.000000,0.01291656772
1793.000000,0.006180188303
1794.000000,0.01128479607
1795.000000,0.01152001935
1796.000000,0.01132795688
1797.000000,0.01117087551
1798.000000,0.009533921651
1799.000000,0.01017055062
1800.000000,0.009000792622
1801.000000,0.007849592919
1802.000000,0.01373017216
1803.000000,0.008934494657
1804.000000,0.009374350053
1805.000000,0.004372126073
1806.000000,0.01183649334
1807.000000,0.0100112425
1808.000000,0.00935737464
1809.000000,0.009964959006
1810.000000,0.009852704336
1811.000000,0.008945316361
1812.000000,0.009022671859
1813.000000,0.01137440649
1814.000000,0.0123859775
1815.000000,0.01266030703
1816.000000,0.01059420676
1817.000000,0.01294615209
1818.000000,0.01271980174
1819.000000,0.01312138135
1820.000000,0.01246048269
1821.000000,0.007583065188
1822.000000,0.0106554557
1823.000000,0.01133336186
1824.000000,0.01360845168
1825.000000,0.009586805151
1826.000000,0.01147476627
1827.000000,0.01087931724
1828.000000,0.007382228922
1829.000000,0.009426532776
1830.000000,0.008322452262
1831.000000,0.01464867838
1832.000000,0.01139738206
1833.000000,0.01292017292
1834.000000,0.01137880513
1835.000000,0.01166954774
1836.000000,0.01290084307
1837.000000,0.00948162382
1838.000000,0.008402933047
1839.000000,0.008793961508
1840.000000,0.01261802619
1841.000000,0.01059647442
1842.000000,0.008828773103
1843.000000,0.007870339041
1844.000000,0.009268586559
1845.000000,0.01120373321
1846.000000,0.01043348315
1847.000000,0.009244569494
1848.000000,0.008372998069
1849.000000,0.00948142517
1850.000000,0.01344810576
1851.000000,0.01528034095
1852.000000,0.01091471036
1853.000000,0.01362123707
1854.000000,0.0107033349
1855.000000,0.007876551258
1856.000000,0.009770821257
1857.000000,0.007926290839
1858.000000,0.0111011264
1859.000000,0.0105614502
1860.000000,0.006190463987
1861.000000,0.008346235475
1862.000000,0.01390776056
1863.000000,0.009197498486
1864.000000,0.01063110808
1865.000000,0.009562866191
1866.000000,0.008640660844
1867.000000,0.01085639021
1868.000000,0.009267853238
1869.000000,0.008937055417
1870.000000,0.0100181677
1871.000000,0.006281922344
1872.000000,0.006673618823
1873.000000,0.006402449611
1874.000000,0.01249642328
1875.000000,0.01118555937
1876.000000,0.0102222076
1877.000000,0.01112007872
1878.000000,0.01170377968
1879.000000,0.005246240016
1880.000000,0.006436675821
1881.000000,0.01048883477
1882.000000,0.01220851007
1883.000000,0.01154499107
1884.000000,0.007285903347
1885.000000,0.01009245966
1886.000000,0.0119471034
1887.000000,0.01005067378
1888.000000,0.008771503003
1889.000000,0.008972901781
1890.000000,0.01232795777
1891.000000,0.007379624561
1892.000000,0.00887755768
1893.000000,0.01208391359
1894.000000,0.008612382155
1895.000000,0.004459240499
1896.000000,0.01091779355
1897.000000,0.009434936909
1898.000000,0.007026581073
1899.000000,0.007399130053
1900.000000,0.01125858231
1901.000000,0.01182798056
1902.000000,0.00784926348
1903.000000,0.01111018384
1904.000000,0.009494310893
1905.000000,0.01021336039
1906.000000,0.01179233506
1907.000000,0.007016814984
1908.000000,0.008979873556
1909.000000,0.0163965074
1910.000000,0.007587599405
1911.000000,0.01057250598
1912.000000,0.007910921492
1913.000000,0.01190863433
1914.000000,0.01108708144
1915.000000,0.00866063095
1916.000000,0.0101219758
1917.000000,0.01125875833
1918.000000,0.01271536194
1919.000000,0.0111584197
1920.000000,0.01291653873
1921.000000,0.01076232673
1922.000000,0.01255032835
1923.000000,0.01111638735
1924.000000,0.0106055976
1925.000000,0.01135404197
1926.000000,0.01136247787
1927.000000,0.01048060764
1928.000000,0.008209392276
1929.000000,0.009710998588
1930.000000,0.01264025412
1931.000000,0.01039863029
1932.000000,0.008617235205
1933.000000,0.009385335141
1934.000000,0.0126734394
1935.000000,0.007385737191
1936.000000,0.007031228091
1937.000000,0.00874379037
1938.000000,0.008344548005
1939.000000,0.01205949122
1940.000000,0.01067817103
1941.000000,0.01144750227
1942.000000,0.009448857467
1943.000000,0.01166420983
1944.000000,0.009871737728
1945.000000,0.008209185383
1946.000000,0.008477227321
1947.000000,0.01139542451
1948.000000,0.01124727234
1949.000000,0.008914620243
1950.000000,0.01211968308
1951.000000,0.01108038887
1952.000000,0.009509643227
1953.000000,0.007753768749
1954.000000,0.01295738626
1955.000000,0.01083820914
1956.000000,0.01183973196
1957.000000,0.008371656062
1958.000000,0.01072736612
1959.000000,0.011928678
1960.000000,0.01060668012
1961.000000,0.01014324325
1962.000000,0.007777414132
1963.000000,0.01270608271
1964.000000,0.01170397984
1965.000000,0.008845264057
1966.000000,0.006588130701
1967.000000,0.01231885844
1968.000000,0.008039715157
1969.000000,0.009599382304
1970.000000,0.0098485117
1971.000000,0.01457786169
1972.000000,0.01105214307
1973.000000,0.01356519062
1974.000000,0.0108893501
1975.000000,0.00864809238
1976.000000,0.01257823311
1977.000000,0.01432564361
1978.000000,0.009280654238
1979.000000,0.009272534734
1980.000000,0.01256588548
1981.000000,0.01408056372
1982.000000,0.009503177831
1983.000000,0.008939417524
1984.000000,0.009829460397
1985.000000,0.009570824561
1986.000000,0.008831967853
1987.000000,0.01116815772
1988.000000,0.009914383923
1989.000000,0.009240824098
1990.000000,0.01157521646
1991.000000,0.006846034105
1992.000000,0.0132121999
1993.000000,0.01352313555
1994.000000,0.0114020728
1995.000000,0.009192538988
1996.000000,0.008334770633
1997.000000,0.008503094984
1998.000000,0.01123475853
1999.000000,0.00931447538
2000.000000,0.01175210762
