raman_shift_cm-1,intensity
200.000000,0.009333168695
201.000000,0.01206159687
202.000000,0.01090537688
203.000000,0.008837558103
204.000000,0.01141839192
205.000000,0.007174237299
206.000000,0.01126153279
207.000000,0.008951132488
208.000000,0.01133792778
209.000000,0.01095343378
210.000000,0.008540986996
211.000000,0.0111324555
212.000000,0.01075980801
213.000000,0.008783902424
214.000000,0.01407872695
215.000000,0.01168058424
216.000000,0.007712773689
217.000000,0.008101181534
218.000000,0.01071105123
219.000000,0.0107017202
220.000000,0.00862416479
221.000000,0.01250987912
222.000000,0.01027240561
223.000000,0.008353254019
224.000000,0.009329676002
225.000000,0.009721536769
226.000000,0.006972755929
227.000000,0.008415207817
228.000000,0.006460064554
229.000000,0.009493034113
230.000000,0.01130568491
231.000000,0.007508965346
232.000000,0.01072510158
233.000000,0.007715858988
234.000000,0.009754206931
235.000000,0.009049393229
236.000000,0.007657627366
237.000000,0.008984066814
238.000000,0.007631596942
239.000000,0.01066983011
240.000000,0.01017543455
241.000000,0.01248328678
242.000000,0.007157131459
243.000000,0.01226946966
244.000000,0.009926684495
245.000000,0.01089520571
246.000000,0.009707833454
247.000000,0.01317898917
248.000000,0.01285737732
249.000000,0.01222264559
250.000000,0.01060483692
251.000000,0.005410586379
252.000000,0.01119916842
253.000000,0.01002129086
254.000000,0.009819168937
255.000000,0.01095652819
256.000000,0.0124746306
257.000000,0.01062255647
258.000000,0.009155470533
259.000000,0.008533148909
260.000000,0.0108290825
261.000000,0.01228639206
262.000000,0.0111855214
263.000000,0.01100555986
264.000000,0.009188211787
265.000000,0.007618722987
266.000000,0.01198293715
267.000000,0.01130389605
268.000000,0.006436259912
269.000000,0.008657449501
270.000000,0.01209489272
271.000000,0.0122280786
272.000000,0.008811065787
273.000000,0.01460008456
274.000000,0.01289695373
275.000000,0.01200446036
276.000000,0.009838824283
277.000000,0.007312047165
278.000000,0.01171589231
279.000000,0.01365224203
280.000000,0.01192350409
281.000000,0.007940176856
282.000000,0.01237371644
283.000000,0.008766805809
284.000000,0.00570089839
285.000000,0.01073774328
286.000000,0.004677191743
287.000000,0.01032422858
288.000000,0.01212249469
289.000000,0.01217572843
290.000000,0.01554102127
291.000000,0.01143914692
292.000000,0.008133356378
293.000000,0.01133140483
294.000000,0.01145915449
295.000000,0.008936003429
296.000000,0.006601674642
297.000000,0.009354559841
298.000000,0.008713608296
299.000000,0.009309538782
300.000000,0.00972739823
301.000000,0.01161142788
302.000000,0.01129521352
303.000000,0.01295629131
304.000000,0.009054501996
305.000000,0.01191540459
306.000000,0.006617087311
307.000000,0.01015736417
308.000000,0.006936627769
309.000000,0.008337978092
310.000000,0.01219478961
311.000000,0.008205138236
312.000000,0.01298792774
313.000000,0.01354222996
314.000000,0.01118322185
315.000000,0.009510823698
316.000000,0.008145269373
317.000000,0.008436557265
318.000000,0.009969973636
319.000000,0.008128118965
320.000000,0.009929530471
321.000000,0.008554545794
322.000000,0.0113421053
323.000000,0.006447431441
324.000000,0.01107925857
325.000000,0.01202492758
326.000000,0.008107813744
327.000000,0.01305665761
328.000000,0.01318033186
329.000000,0.01149570326
330.000000,0.0071323682
331.000000,0.01065792808
332.000000,0.006897748838
333.000000,0.009207027215
334.000000,0.007599412194
335.000000,0.01043265559
336.000000,0.008627619396
337.000000,0.0107950885
338.000000,0.01196254214
339.000000,0.008711452614
340.000000,0.01120308987
341.000000,0.009301366715
342.000000,0.009679477739
343.000000,0.009514485545
344.000000,0.008623377039
345.000000,0.00898550612
346.000000,0.01194441419
347.000000,0.01220872474
348.000000,0.01005169052
349.000000,0.01179254502
350.000000,0.01210506436
351.000000,0.01142791837
352.000000,0.005913087154
353.000000,0.009962194534
354.000000,0.01265303071
355.000000,0.01074381764
356.000000,0.009927594559
357.000000,0.009421115531
358.000000,0.01068737184
359.000000,0.009394444228
360.000000,0.01182042051
361.000000,0.009944573596
362.000000,0.01011784313
363.000000,0.01109486564
364.000000,0.01257513932
365.000000,0.009828554645
366.000000,0.01103077801
367.000000,0.009581693294
368.000000,0.00772990766
369.000000,0.01013177806
370.000000,0.01122127155
371.000000,0.01085192861
372.000000,0.009960085153
373.000000,0.009624126627
374.000000,0.007686645609
375.000000,0.009881332136
376.000000,0.01330602901
377.000000,0.009683410639
378.000000,0.01006680867
379.000000,0.0129179632
380.000000,0.01037845875
381.000000,0.01064974781
382.000000,0.007846400657
383.000000,0.01178018052
384.000000,0.01290322594
385.000000,0.01003143347
386.000000,0.01224685257
387.000000,0.01209576941
388.000000,0.004691223196
389.000000,0.01283938015
390.000000,0.007352062694
391.000000,0.01101506692
392.000000,0.0110613183
393.000000,0.009685499559
394.000000,0.009438769071
395.000000,0.009397230521
396.000000,0.009217485226
397.000000,0.009254936491
398.000000,0.008713022117
399.000000,0.009970425458
400.000000,0.01036494485
401.000000,0.009757007926
402.000000,0.01077346064
403.000000,0.008515349912
404.000000,0.01052888399
405.000000,0.01177792336
406.000000,0.01329591923
407.000000,0.007634570516
408.000000,0.01167351377
409.000000,0.01069932055
410.000000,0.006258415868
411.000000,0.008917945635
412.000000,0.008182864165
413.000000,0.01120668909
414.000000,0.01312069097
415.000000,0.01268712284
416.000000,0.0106651723
417.000000,0.01293096294
418.000000,0.01095690446
419.000000,0.01062727083
420.000000,0.007157772829
421.000000,0.008742546604
422.000000,0.009451656478
423.000000,0.008651832427
424.000000,0.008220720758
425.000000,0.009242414076
426.000000,0.01218073272
427.000000,0.01109890067
428.000000,0.01072823664
429.000000,0.009481626798
430.000000,0.0092964337
431.000000,0.01013991582
432.000000,0.00872003782
433.000000,0.01053817739
434.000000,0.009915637058
435.000000,0.0095984305
436.000000,0.01052160637
437.000000,0.01014344093
438.000000,0.01073685453
439.000000,0.008317339755
440.000000,0.008204282032
441.000000,0.008533889901
442.000000,0.008235001453
443.000000,0.0126601644
444.000000,0.008452126639
445.000000,0.01086432421
446.000000,0.01152829702
447.000000,0.01297067778
448.000000,0.009741088442
449.000000,0.009049011386
450.000000,0.01050264722
451.000000,0.01368508396
452.000000,0.009622265303
453.000000,0.0119654961
454.000000,0.01206352793
455.000000,0.00788536589
456.000000,0.01241876447
457.000000,0.01162874193
458.000000,0.007098278234
459.000000,0.01208811615
460.000000,0.01266575706
461.000000,0.01036283132
462.000000,0.01077529599
463.000000,0.01163370885
464.000000,0.01088880009
465.000000,0.008529218161
466.000000,0.007900776315
467.000000,0.00876265233
468.000000,0.008801979781
469.000000,0.01146317338
470.000000,0.007730102168
471.000000,0.008564035435
472.000000,0.008515352148
473.000000,0.01270011442
474.000000,0.01358768821
475.000000,0.01113658519
476.000000,0.01184569057
477.000000,0.01156065278
478.000000,0.008407171436
479.000000,0.008954588697
480.000000,0.01119851252
481.000000,0.01051104106
482.000000,0.006118480531
483.000000,0.008364264935
484.000000,0.01016289522
485.000000,0.007401598496
486.000000,0.01143710455
487.000000,0.01151738959
488.000000,0.01278522541
489.000000,0.008034298178
490.000000,0.009792386015
491.000000,0.01188379115
492.000000,0.008508141927
493.000000,0.01034264115
494.000000,0.008899194218
495.000000,0.01020773637
496.000000,0.007790839384
497.000000,0.01029034808
498.000000,0.01332691964
499.000000,0.0125552423
500.000000,0.009032919668
501.000000,0.0100149461
502.000000,0.008156775874
503.000000,0.01226494172
504.000000,0.01077892954
505.000000,0.01243336837
506.000000,0.01029902199
507.000000,0.008995431614
508.000000,0.01180080048
509.000000,0.007843072562
510.000000,0.009921625245
511.000000,0.0125461283
512.000000,0.009047369509
513.000000,0.004822162912
514.000000,0.00824698182
515.000000,0.01399608942
516.000000,0.009605854
517.000000,0.007910901398
518.000000,0.009328870403
519.000000,0.0130773253
520.000000,0.009401891444
521.000000,0.008133278554
522.000000,0.01393669156
523.000000,0.01054699622
524.000000,0.01195583213
525.000000,0.00737696107
526.000000,0.01325147774
527.000000,0.01081916774
528.000000,0.01361058719
529.000000,0.01286174948
530.000000,0.01052016314
531.000000,0.01087627145
532.000000,0.01062100294
533.000000,0.01639846589
534.000000,0.01236349638
535.000000,0.01338914821
536.000000,0.01219675657
537.000000,0.006937417893
538.000000,0.008159792712
539.000000,0.01373713014
540.000000,0.01115243069
541.000000,0.009492301515
542.000000,0.01193318134
543.000000,0.0112027049
544.000000,0.01528347935
545.000000,0.009648852516
546.000000,0.009638333617
547.000000,0.01147627399
548.000000,0.01310758071
549.000000,0.01109568363
550.000000,0.01238576185
551.000000,0.01077429289
552.000000,0.01081348523
553.000000,0.01064024778
554.000000,0.0102572221
555.000000,0.0128681484
556.000000,0.01021605647
557.000000,0.01325438239
558.000000,0.007970602764
559.000000,0.00683050795
560.000000,0.0166023692
561.000000,0.008827986155
562.000000,0.01305979519
563.000000,0.01165358628
564.000000,0.01325764607
565.000000,0.01612962875
566.000000,0.01188173488
567.000000,0.01312082621
568.000000,0.0108593743
569.000000,0.01284675217
570.000000,0.009018552281
571.000000,0.01459866827
572.000000,0.01194956626
573.000000,0.009910932567
574.000000,0.01165989787
575.000000,0.01180646418
576.000000,0.01474120048
577.000000,0.00917209849
578.000000,0.01054917178
579.000000,0.01377276838
580.000000,0.01146693701
581.000000,0.01257681081
582.000000,0.01377718332
583.000000,0.01105745588
584.000000,0.01371216527
585.000000,0.009939140329
586.000000,0.01049893472
587.000000,0.01379178058
588.000000,0.0120139944
589.000000,0.01216048962
590.000000,0.01228439866
591.000000,0.01456011248
592.000000,0.01420624621
593.000000,0.01512579813
594.000000,0.01665004171
595.000000,0.01962346018
596.000000,0.01568914653
597.000000,0.01934577408
598.000000,0.01687127995
599.000000,0.01613191515
600.000000,0.01965890288
601.000000,0.01916405632
602.000000,0.02416167965
603.000000,0.02016203437
604.000000,0.02416870769
605.000000,0.02669352505
606.000000,0.02823094662
607.000000,0.03335630631
608.000000,0.03045348612
609.000000,0.03628315542
610.000000,0.04097969283
611.000000,0.04923944791
612.000000,0.0507133519
613.000000,0.05977699252
614.000000,0.0744509983
615.000000,0.09161626972
616.000000,0.1098150527
617.000000,0.133718878
618.000000,0.1600544091
619.000000,0.1826916976
620.000000,0.1921727479
621.000000,0.1809436938
622.000000,0.1584696031
623.000000,0.1359758338
624.000000,0.1093880943
625.000000,0.09456657831
626.000000,0.07490859108
627.000000,0.06410020153
628.000000,0.05172295129
629.000000,0.04721695579
630.000000,0.03966356268
631.000000,0.03502501075
632.000000,0.03298366559
633.000000,0.0294627954
634.000000,0.0286957793
635.000000,0.02513052247
636.000000,0.02505904666
637.000000,0.02231006367
638.000000,0.0198929961
639.000000,0.02198329691
640.000000,0.01868708134
641.000000,0.01749152137
642.000000,0.01637891837
643.000000,0.01816399224
644.000000,0.01405537771
645.000000,0.01261217746
646.000000,0.01473692046
647.000000,0.01396049017
648.000000,0.01387411408
649.000000,0.01528273503
650.000000,0.01792796711
651.000000,0.01455139048
652.000000,0.012988308
653.000000,0.01113334815
654.000000,0.01188515677
655.000000,0.01084896008
656.000000,0.01000506029
657.000000,0.012087511
658.000000,0.01436341826
659.000000,0.01272477262
660.000000,0.01263394115
661.000000,0.0116665793
662.000000,0.01232179103
663.000000,0.01167996415
664.000000,0.009651571955
665.000000,0.0131416314
666.000000,0.0113066687
667.000000,0.01151784736
668.000000,0.008987733912
669.000000,0.01447524641
670.000000,0.01436592641
671.000000,0.009752550566
672.000000,0.009250601259
673.000000,0.009588267239
674.000000,0.01284229743
675.000000,0.01400776157
676.000000,0.01032830214
677.000000,0.008696058078
678.000000,0.009221125905
679.000000,0.01220248996
680.000000,0.0114443022
681.000000,0.01028268423
682.000000,0.009384895071
683.000000,0.008537148812
684.000000,0.01146480394
685.000000,0.01197866768
686.000000,0.01282462185
687.000000,0.009669505183
688.000000,0.01262297777
689.000000,0.009596882139
690.000000,0.01075130564
691.000000,0.01512013764
692.000000,0.01409962627
693.000000,0.01050754045
694.000000,0.01544718256
695.000000,0.009343753524
696.000000,0.0102934979
697.000000,0.007414409918
698.000000,0.01025786166
699.000000,0.01205614476
700.000000,0.01368532248
701.000000,0.01419948624
702.000000,0.01184709342
703.000000,0.01380016398
704.000000,0.00786857114
705.000000,0.0128298141
706.000000,0.01033561331
707.000000,0.01130288726
708.000000,0.01055425738
709.000000,0.01029761094
710.000000,0.01211715804
711.000000,0.01001248223
712.000000,0.01141392688
713.000000,0.0114868327
714.000000,0.01168258479
715.000000,0.01405384433
716.000000,0.01474923707
717.000000,0.008093677776
718.000000,0.01326820585
719.000000,0.009715213658
720.000000,0.01113714772
721.000000,0.01354480686
722.000000,0.00754633519
723.000000,0.01253717692
724.000000,0.01072279608
725.000000,0.01065885908
726.000000,0.01128075212
727.000000,0.009792604794
728.000000,0.008943077063
729.000000,0.01046448045
730.000000,0.009695138491
731.000000,0.01309507457
732.000000,0.009773420102
733.000000,0.01272777699
734.000000,0.008754120162
735.000000,0.0124416296
736.000000,0.01512000195
737.000000,0.0145317756
738.000000,0.01152030484
739.000000,0.01560210024
740.000000,0.00556326258
741.000000,0.01092786843
742.000000,0.00813728802
743.000000,0.008746429022
744.000000,0.008701308919
745.000000,0.009250346143
746.000000,0.009937033081
747.000000,0.01152290535
748.000000,0.01434601558
749.000000,0.01326572695
750.000000,0.01145052425
751.000000,0.01073220585
752.000000,0.01149968776
753.000000,0.01753884976
754.000000,0.009293779044
755.000000,0.01571289064
756.000000,0.01347683672
757.000000,0.01290543582
758.000000,0.01926611878
759.000000,0.01404416314
760.000000,0.01195568724
761.000000,0.01420739831
762.000000,0.01582426122
763.000000,0.01548642132
764.000000,0.01483481125
765.000000,0.01360222131
766.000000,0.01247403039
767.000000,0.01539730339
768.000000,0.01670082799
769.000000,0.01440281169
770.000000,0.01346384309
771.000000,0.01362204227
772.000000,0.01378893628
773.000000,0.01664097633
774.000000,0.01525525042
775.000000,0.02069336856
776.000000,0.01592857236
777.000000,0.01859858074
778.000000,0.0233529335
779.000000,0.02347561856
780.000000,0.0245119333
781.000000,0.02510857191
782.000000,0.02745230342
783.000000,0.03106169768
784.000000,0.03508141125
785.000000,0.03709540212
786.000000,0.04172046377
787.000000,0.04381208983
788.000000,0.05419497418
789.000000,0.06433535346
790.000000,0.0683264112
791.000000,0.0804166606
792.000000,0.08908033278
793.000000,0.1015350209
794.000000,0.1087118083
795.000000,0.1070722122
796.000000,0.1071895375
797.000000,0.100071836
798.000000,0.08931653997
799.000000,0.08064981865
800.000000,0.06842558713
801.000000,0.05792825292
802.000000,0.05680431688
803.000000,0.04710204468
804.000000,0.04448857731
805.000000,0.03793114323
806.000000,0.0338288685
807.000000,0.03254292775
808.000000,0.02941059202
809.000000,0.02535010584
810.000000,0.02456508283
811.000000,0.02192712852
812.000000,0.02338065317
813.000000,0.01842885743
814.000000,0.01944857055
815.000000,0.01955792803
816.000000,0.01806426009
817.000000,0.01801656066
818.000000,0.01424235878
819.000000,0.01238189037
820.000000,0.01906423316
821.000000,0.01461757413
822.000000,0.01474213545
823.000000,0.01540700969
824.000000,0.01592574362
825.000000,0.01613641599
826.000000,0.01593078577
827.000000,0.0129405405
828.000000,0.01351953917
829.000000,0.01282142957
830.000000,0.009664248215
831.000000,0.01281276112
832.000000,0.01273240436
833.000000,0.01063366324
834.000000,0.009246676346
835.000000,0.01230560397
836.000000,0.01158774603
837.000000,0.01192690139
838.000000,0.01527772534
839.000000,0.01201751114
840.000000,0.01182732897
841.000000,0.009388366874
842.000000,0.01166232074
843.000000,0.01402419302
844.000000,0.0133405925
845.000000,0.01061619756
846.000000,0.01371835018
847.000000,0.01607118205
848.000000,0.009277329412
849.000000,0.01149946511
850.000000,0.008130742204
851.000000,0.01502928751
852.000000,0.008479522546
853.000000,0.01236802781
854.000000,0.01226563467
855.000000,0.01425557239
856.000000,0.01157853136
857.000000,0.01100075186
858.000000,0.008531740185
859.000000,0.009506088917
860.000000,0.01131695071
861.000000,0.01350503823
862.000000,0.008014843776
863.000000,0.01338546252
864.000000,0.01055258273
865.000000,0.008321874084
866.000000,0.01231853017
867.000000,0.01242183262
868.000000,0.01344598908
869.000000,0.01303492598
870.000000,0.01028355111
871.000000,0.01244321481
872.000000,0.01146331677
873.000000,0.01187610765
874.000000,0.01079857965
875.000000,0.009617433795
876.000000,0.01122289299
877.000000,0.01237032816
878.000000,0.009117520464
879.000000,0.01147669497
880.000000,0.009745676895
881.000000,0.008919664791
882.000000,0.01069737331
883.000000,0.01241874286
884.000000,0.01321365619
885.000000,0.009860329117
886.000000,0.01025336073
887.000000,0.009548611674
888.000000,0.01229324828
889.000000,0.01166307561
890.000000,0.01245216462
891.000000,0.01431766596
892.000000,0.01099728055
893.000000,0.01081610907
894.000000,0.01362893123
895.000000,0.01138275902
896.000000,0.01051826098
897.000000,0.01336519562
898.000000,0.01344296814
899.000000,0.008876382367
900.000000,0.009612037329
901.000000,0.01205555586
902.000000,0.01387099832
903.000000,0.01323303621
904.000000,0.0101014389
905.000000,0.01178345918
906.000000,0.009728143298
907.000000,0.01457577814
908.000000,0.01651336925
909.000000,0.01021720873
910.000000,0.0114891869
911.000000,0.009739561104
912.000000,0.01313249947
913.000000,0.01129412295
914.000000,0.01258418867
915.000000,0.0109557432
916.000000,0.0125403941
917.000000,0.00836723228
918.000000,0.01308336064
919.000000,0.008535824665
920.000000,0.01356424046
921.000000,0.01464879739
922.000000,0.01312691045
923.000000,0.01388636547
924.000000,0.01563226026
925.000000,0.01268700098
926.000000,0.01078852115
927.000000,0.01053639708
928.000000,0.01400834044
929.000000,0.008277664484
930.000000,0.0120162347
931.000000,0.01117759556
932.000000,0.01247910288
933.000000,0.01233074886
934.000000,0.0107401252
935.000000,0.01517581787
936.000000,0.01510052207
937.000000,0.009791749949
938.000000,0.01368327779
939.000000,0.01345451082
940.000000,0.009277657411
941.000000,0.01301883686
942.000000,0.01425676838
943.000000,0.01237418056
944.000000,0.01374942184
945.000000,0.01549490467
946.000000,0.01339050192
947.000000,0.01360244067
948.000000,0.01383132483
949.000000,0.01270538057
950.000000,0.01363639667
951.000000,0.01601334433
952.000000,0.01481562926
953.000000,0.01252434525
954.000000,0.01481437305
955.000000,0.01559976258
956.000000,0.01608729104
957.000000,0.01627894882
958.000000,0.0152790306
959.000000,0.01479264981
960.000000,0.01725933053
961.000000,0.01657733706
962.000000,0.01880410849
963.000000,0.01591238623
964.000000,0.01775159337
965.000000,0.02096848337
966.000000,0.01621356872
967.000000,0.01709428928
968.000000,0.02056115626
969.000000,0.02454225341
970.000000,0.02007542977
971.000000,0.02095734031
972.000000,0.02248800169
973.000000,0.02038332315
974.000000,0.02536679055
975.000000,0.02562438326
976.000000,0.02545097111
977.000000,0.02426335292
978.000000,0.03144788936
979.000000,0.03151281404
980.000000,0.03368432459
981.000000,0.03596273107
982.000000,0.03619176554
983.000000,0.03967995893
984.000000,0.04230447917
985.000000,0.05110190573
986.000000,0.0497583258
987.000000,0.0583170697
988.000000,0.0614045736
989.000000,0.07353452221
990.000000,0.07926893145
991.000000,0.09445147106
992.000000,0.1146692226
993.000000,0.1374611504
994.000000,0.1697697333
995.000000,0.2131365378
996.000000,0.2786864609
997.000000,0.3754731128
998.000000,0.5169859534
999.000000,0.7075196673
1000.000000,0.9156567834
1001.000000,1.014751914
1002.000000,0.9131128831
1003.000000,0.7088747588
1004.000000,0.5170398025
1005.000000,0.3786139402
1006.000000,0.2812377374
1007.000000,0.2175234441
1008.000000,0.1723664042
1009.000000,0.1416972355
1010.000000,0.1206744344
1011.000000,0.1032359871
1012.000000,0.09007474251
1013.000000,0.08244252385
1014.000000,0.07448679428
1015.000000,0.07237226072
1016.000000,0.06813518952
1017.000000,0.06885816851
1018.000000,0.06575643929
1019.000000,0.07181347312
1020.000000,0.0687163136
1021.000000,0.08247860898
1022.000000,0.08767450407
1023.000000,0.09663461362
1024.000000,0.1127860932
1025.000000,0.132005232
1026.000000,0.1599399277
1027.000000,0.208481138
1028.000000,0.266986794
1029.000000,0.3420085709
1030.000000,0.4098862932
1031.000000,0.440339659
1032.000000,0.4091427623
1033.000000,0.3364746569
1034.000000,0.2616813847
1035.000000,0.2016874209
1036.000000,0.1581359444
1037.000000,0.1240067454
1038.000000,0.1031840786
1039.000000,0.08059922559
1040.000000,0.07123647375
1041.000000,0.06627174985
1042.000000,0.05508096632
1043.000000,0.04644667201
1044.000000,0.0439964821
1045.000000,0.03608232258
1046.000000,0.03503740652
1047.000000,0.03895750148
1048.000000,0.03345808727
1049.000000,0.03013274126
1050.000000,0.02679221375
1051.000000,0.02768133328
1052.000000,0.02741357761
1053.000000,0.02415790089
1054.000000,0.02488549968
1055.000000,0.02168713293
1056.000000,0.02419853749
1057.000000,0.01957439973
1058.000000,0.01816804942
1059.000000,0.01684775607
1060.000000,0.01869364198
1061.000000,0.02006156444
1062.000000,0.02055107652
1063.000000,0.01829745653
1064.000000,0.01683085117
1065.000000,0.01693063376
1066.000000,0.01608946855
1067.000000,0.01703202773
1068.000000,0.01648430906
1069.000000,0.01965057859
1070.000000,0.02035006818
1071.000000,0.01357168947
1072.000000,0.0176301926
1073.000000,0.01715316635
1074.000000,0.0133553581
1075.000000,0.01567907794
1076.000000,0.01259705057
1077.000000,0.01207356197
1078.000000,0.01375103528
1079.000000,0.01384891455
1080.000000,0.01433571022
1081.000000,0.01217677589
1082.000000,0.01506612753
1083.000000,0.01480076976
1084.000000,0.01468760533
1085.000000,0.01339170836
1086.000000,0.01569800992
1087.000000,0.01358237627
1088.000000,0.01415779113
1089.000000,0.01321685764
1090.000000,0.007523721227
1091.000000,0.01668397897
1092.000000,0.0117360145
1093.000000,0.01441453018
1094.000000,0.01484625193
1095.000000,0.01239645776
1096.000000,0.01252719391
1097.000000,0.01464300868
1098.000000,0.01180028359
1099.000000,0.01958317068
1100.000000,0.01385529021
1101.000000,0.01021395973
1102.000000,0.01493295873
1103.000000,0.01545992794
1104.000000,0.01595657586
1105.000000,0.01350990235
1106.000000,0.01041592291
1107.000000,0.01448821041
1108.000000,0.01514122027
1109.000000,0.01227038539
1110.000000,0.01417817471
1111.000000,0.01231719737
1112.000000,0.01711089229
1113.000000,0.01640719089
1114.000000,0.01471479296
1115.000000,0.01425099839
1116.000000,0.01320609886
1117.000000,0.01672577682
1118.000000,0.01439755376
1119.000000,0.01518920273
1120.000000,0.01668229477
1121.000000,0.01457114979
1122.000000,0.01494978686
1123.000000,0.0134796291
1124.000000,0.01613470009
1125.000000,0.01360611535
1126.000000,0.0180761219
1127.000000,0.01497820872
1128.000000,0.01909149548
1129.000000,0.01853469371
1130.000000,0.01679116495
1131.000000,0.01811854913
1132.000000,0.01729863726
1133.000000,0.01970070158
1134.000000,0.01920794237
1135.000000,0.02213383216
1136.000000,0.02544995409
1137.000000,0.01748447996
1138.000000,0.02589616867
1139.000000,0.02694521481
1140.000000,0.02401916641
1141.000000,0.02724350405
1142.000000,0.03081517703
1143.000000,0.03389870347
1144.000000,0.03776467733
1145.000000,0.04232651886
1146.000000,0.04526004638
1147.000000,0.05082966658
1148.000000,0.0588643997
1149.000000,0.06959605716
1150.000000,0.08435898965
1151.000000,0.09968685163
1152.000000,0.1161838941
1153.000000,0.1330885659
1154.000000,0.1492125542
1155.000000,0.1538752266
1156.000000,0.151776055
1157.000000,0.1320454032
1158.000000,0.1183209208
1159.000000,0.1028920274
1160.000000,0.08308248698
1161.000000,0.07238859916
1162.000000,0.06109046615
1163.000000,0.05079669552
1164.000000,0.04736283521
1165.000000,0.04816204225
1166.000000,0.04362559965
1167.000000,0.03870193158
1168.000000,0.03748685918
1169.000000,0.03819300074
1170.000000,0.03605450486
1171.000000,0.03716254401
1172.000000,0.03677546216
1173.000000,0.04024985851
1174.000000,0.0429762837
1175.000000,0.05079749265
1176.000000,0.05471759963
1177.000000,0.05881336846
1178.000000,0.0709306729
1179.000000,0.08270419126
1180.000000,0.1003354727
1181.000000,0.1170249256
1182.000000,0.1303283081
1183.000000,0.135313493
1184.000000,0.1296845502
1185.000000,0.1128092622
1186.000000,0.09701114275
1187.000000,0.08119653809
1188.000000,0.06882718507
1189.000000,0.0576947301
1190.000000,0.04796393215
1191.000000,0.04026359447
1192.000000,0.04090008654
1193.000000,0.03736814408
1194.000000,0.0291435582
1195.000000,0.02907046331
1196.000000,0.0308966927
1197.000000,0.02403984249
1198.000000,0.02192294186
1199.000000,0.02251221725
1200.000000,0.0197801903
1201.000000,0.0183400604
1202.000000,0.01802442522
1203.000000,0.0148170264
1204.000000,0.01567759161
1205.000000,0.01718026394
1206.000000,0.01890382632
1207.000000,0.01799678939
1208.000000,0.01315386802
1209.000000,0.01757663728
1210.000000,0.01533423023
1211.000000,0.0146631406
1212.000000,0.01424435808
1213.000000,0.01383248951
1214.000000,0.01821202077
1215.000000,0.01498893874
1216.000000,0.01097748574
1217.000000,0.01022217165
1218.000000,0.0136583757
1219.000000,0.01330165647
1220.000000,0.01290918326
1221.000000,0.01273383973
1222.000000,0.01215097803
1223.000000,0.01175469326
1224.000000,0.01458694595
1225.000000,0.01193311092
1226.000000,0.01258076374
1227.000000,0.01461474273
1228.000000,0.01386194394
1229.000000,0.01339245756
1230.000000,0.007693871771
1231.000000,0.01133506001
1232.000000,0.01286902
1233.000000,0.01256947228
1234.000000,0.01270033733
1235.000000,0.01095421913
1236.000000,0.01475991777
1237.000000,0.0127897843
1238.000000,0.01084317242
1239.000000,0.008591744376
1240.000000,0.009409571472
1241.000000,0.01050056516
1242.000000,0.008148751632
1243.000000,0.01281659025
1244.000000,0.01260302395
1245.000000,0.01219059953
1246.000000,0.01091476567
1247.000000,0.01035342816
1248.000000,0.01166264204
1249.000000,0.01188983544
1250.000000,0.006311648426
1251.000000,0.01101565921
1252.000000,0.010897597
1253.000000,0.01185370643
1254.000000,0.009346739431
1255.000000,0.007900901081
1256.000000,0.01337700817
1257.000000,0.01202121923
1258.000000,0.008825966394
1259.000000,0.008711450106
1260.000000,0.01090448768
1261.000000,0.009747030869
1262.000000,0.01034166872
1263.000000,0.01324485713
1264.000000,0.01128448022
1265.000000,0.01264006412
1266.000000,0.01331341894
1267.000000,0.006361620849
1268.000000,0.01452149422
1269.000000,0.01581506234
1270.000000,0.01202944557
1271.000000,0.00998453449
1272.000000,0.01079921664
1273.000000,0.01917307914
1274.000000,0.01040079874
1275.000000,0.01478696573
1276.000000,0.01112260686
1277.000000,0.008988434692
1278.000000,0.00841464075
1279.000000,0.01035722004
1280.000000,0.01058283263
1281.000000,0.01245521792
1282.000000,0.01181058501
1283.000000,0.01517437115
1284.000000,0.01001678992
1285.000000,0.01388481238
1286.000000,0.01188349493
1287.000000,0.01104239317
1288.000000,0.009598659421
1289.000000,0.01264754695
1290.000000,0.01201764779
1291.000000,0.01359155656
1292.000000,0.008122938726
1293.000000,0.01118427827
1294.000000,0.01405041408
1295.000000,0.01080590111
1296.000000,0.01260275955
1297.000000,0.01063911554
1298.000000,0.01198244097
1299.000000,0.01206622869
1300.000000,0.01032846029
1301.000000,0.01231226694
1302.000000,0.01035939584
1303.000000,0.01187652628
1304.000000,0.01106032067
1305.000000,0.01031229513
1306.000000,0.01001814171
1307.000000,0.01289703039
1308.000000,0.01178799881
1309.000000,0.01077233969
1310.000000,0.0136662496
1311.000000,0.009822562616
1312.000000,0.008460541168
1313.000000,0.01014094026
1314.000000,0.01488580434
1315.000000,0.01141095526
1316.000000,0.01113702798
1317.000000,0.009843514968
1318.000000,0.01226914381
1319.000000,0.01079594771
1320.000000,0.01041784512
1321.000000,0.01291067555
1322.000000,0.01436695039
1323.000000,0.01058206729
1324.000000,0.01242290877
1325.000000,0.01065821835
1326.000000,0.01019219179
1327.000000,0.01103746008
1328.000000,0.01138916749
1329.000000,0.01165231958
1330.000000,0.0103547339
1331.000000,0.008759126969
1332.000000,0.007665253987
1333.000000,0.01495414904
1334.000000,0.01195569697
1335.000000,0.0123019419
1336.000000,0.01080576909
1337.000000,0.01357567874
1338.000000,0.01014308485
1339.000000,0.01440131937
1340.000000,0.009048689169
1341.000000,0.01148704674
1342.000000,0.01339613294
1343.000000,0.009448879201
1344.000000,0.01012255271
1345.000000,0.01074176682
1346.000000,0.01042444622
1347.000000,0.008157709338
1348.000000,0.01167479948
1349.000000,0.01517937577
1350.000000,0.01111784607
1351.000000,0.01132051194
1352.000000,0.01056721555
1353.000000,0.01150878857
1354.000000,0.009460001786
1355.000000,0.01008317339
1356.000000,0.01245015358
1357.000000,0.01508527567
1358.000000,0.01702319336
1359.000000,0.01359854193
1360.000000,0.01496523867
1361.000000,0.01293577471
1362.000000,0.009128113316
1363.000000,0.01065759172
1364.000000,0.01331431653
1365.000000,0.01386768394
1366.000000,0.01286940579
1367.000000,0.01557599992
1368.000000,0.01242079163
1369.000000,0.01129285611
1370.000000,0.01390053443
1371.000000,0.0125044327
1372.000000,0.01338280864
1373.000000,0.01074702586
1374.000000,0.01183143304
1375.000000,0.01543741153
1376.000000,0.0106425583
1377.000000,0.01094741172
1378.000000,0.01271902866
1379.000000,0.01211385744
1380.000000,0.01264221708
1381.000000,0.01434922465
1382.000000,0.01262869899
1383.000000,0.01171188983
1384.000000,0.01469004169
1385.000000,0.01268894487
1386.000000,0.01156756442
1387.000000,0.01334359198
1388.000000,0.0139108353
1389.000000,0.01262267516
1390.000000,0.01682690661
1391.000000,0.01370881199
1392.000000,0.01765903327
1393.000000,0.01153437725
1394.000000,0.01703628284
1395.000000,0.01529794997
1396.000000,0.01455399867
1397.000000,0.01718915021
1398.000000,0.01451993251
1399.000000,0.01443548052
1400.000000,0.012905883
1401.000000,0.01765848006
1402.000000,0.0125897506
1403.000000,0.01966542126
1404.000000,0.01460481817
1405.000000,0.01437390637
1406.000000,0.01854781358
1407.000000,0.01600567753
1408.000000,0.01825703455
1409.000000,0.01659370769
1410.000000,0.01619810734
1411.000000,0.01878680081
1412.000000,0.01437903578
1413.000000,0.01727007111
1414.000000,0.01788842367
1415.000000,0.01773050065
1416.000000,0.01837006658
1417.000000,0.02308259678
1418.000000,0.02164116423
1419.000000,0.01759168199
1420.000000,0.02576446504
1421.000000,0.02465181006
1422.000000,0.02701314967
1423.000000,0.02385375291
1424.000000,0.02533666072
1425.000000,0.02693255445
1426.000000,0.02928446345
1427.000000,0.02798886618
1428.000000,0.03010634888
1429.000000,0.03104173349
1430.000000,0.03653139093
1431.000000,0.03670658976
1432.000000,0.04013867911
1433.000000,0.0426358574
1434.000000,0.04691335477
1435.000000,0.04910543073
1436.000000,0.05629907562
1437.000000,0.05754748506
1438.000000,0.06600376427
1439.000000,0.07255425964
1440.000000,0.08185567197
1441.000000,0.0962732285
1442.000000,0.1096827971
1443.000000,0.120469226
1444.000000,0.1345591265
1445.000000,0.1561244565
1446.000000,0.1807170073
1447.000000,0.197852356
1448.000000,0.2136768771
1449.000000,0.2254022163
1450.000000,0.2343536558
1451.000000,0.2266375394
1452.000000,0.2163316969
1453.000000,0.1967327692
1454.000000,0.1768633073
1455.000000,0.1559183103
1456.000000,0.1363129583
1457.000000,0.1202666751
1458.000000,0.106546229
1459.000000,0.09208480855
1460.000000,0.08414547155
1461.000000,0.07730691908
1462.000000,0.0686699023
1463.000000,0.06017127034
1464.000000,0.05161636762
1465.000000,0.05282430256
1466.000000,0.04714885216
1467.000000,0.04420795918
1468.000000,0.04211012231
1469.000000,0.04127754799
1470.000000,0.03910872936
1471.000000,0.03444900435
1472.000000,0.03205086575
1473.000000,0.02910867651
1474.000000,0.02962951975
1475.000000,0.02769120067
1476.000000,0.02678282338
1477.000000,0.02414563172
1478.000000,0.02473219938
1479.000000,0.02134781343
1480.000000,0.025360093
1481.000000,0.02357152736
1482.000000,0.02261476999
1483.000000,0.02348161325
1484.000000,0.0186765894
1485.000000,0.02273826811
1486.000000,0.01918260806
1487.000000,0.01933507981
1488.000000,0.01437615938
1489.000000,0.0189469562
1490.000000,0.01816953414
1491.000000,0.01923921826
1492.000000,0.01619197349
1493.000000,0.01570050454
1494.000000,0.01634225477
1495.000000,0.01652501319
1496.000000,0.01905936284
1497.000000,0.01935723935
1498.000000,0.01614695533
1499.000000,0.01610524281
1500.000000,0.01732690001
1501.000000,0.01794254981
1502.000000,0.01706569838
1503.000000,0.01630589911
1504.000000,0.01636755333
1505.000000,0.01643796886
1506.000000,0.01404130126
1507.000000,0.01720556858
1508.000000,0.01320674247
1509.000000,0.0135136471
1510.000000,0.01181724917
1511.000000,0.01363090365
1512.000000,0.01334356027
1513.000000,0.014636291
1514.000000,0.01542074866
1515.000000,0.01152771795
1516.000000,0.01452011804
1517.000000,0.01130465606
1518.000000,0.01241160346
1519.000000,0.01114460301
1520.000000,0.01616635274
1521.000000,0.01575461495
1522.000000,0.01338564397
1523.000000,0.0128309286
1524.000000,0.01281956578
1525.000000,0.0137214092
1526.000000,0.01282224002
1527.000000,0.01134919026
1528.000000,0.01632434588
1529.000000,0.01319885853
1530.000000,0.01452813295
1531.000000,0.01445474437
1532.000000,0.01437151912
1533.000000,0.01509357462
1534.000000,0.01562370349
1535.000000,0.01632575616
1536.000000,0.01628483153
1537.000000,0.01842003649
1538.000000,0.0142577377
1539.000000,0.01723403524
1540.000000,0.01404535794
1541.000000,0.01283774018
1542.000000,0.01730792628
1543.000000,0.0189137944
1544.000000,0.01729465617
1545.000000,0.02160741389
1546.000000,0.02000887592
1547.000000,0.02207771652
1548.000000,0.01838826466
1549.000000,0.01836510895
1550.000000,0.02255800879
1551.000000,0.01451521708
1552.000000,0.01875049484
1553.000000,0.0202214633
1554.000000,0.02213564089
1555.000000,0.02048981304
1556.000000,0.0238448597
1557.000000,0.02084346652
1558.000000,0.02720111452
1559.000000,0.0271926726
1560.000000,0.02631561755
1561.000000,0.03003697078
1562.000000,0.03081564262
1563.000000,0.02611252689
1564.000000,0.03016890097
1565.000000,0.03405428946
1566.000000,0.03747702428
1567.000000,0.03904995072
1568.000000,0.04070054492
1569.000000,0.03757431753
1570.000000,0.04647401272
1571.000000,0.04670226634
1572.000000,0.05575294795
1573.000000,0.06065174027
1574.000000,0.07019676821
1575.000000,0.08138264328
1576.000000,0.09466104465
1577.000000,0.1096445822
1578.000000,0.1294203717
1579.000000,0.1513255033
1580.000000,0.1768129238
1581.000000,0.2068253008
1582.000000,0.2272386129
1583.000000,0.2382785709
1584.000000,0.230584215
1585.000000,0.2181843662
1586.000000,0.1964245596
1587.000000,0.171925394
1588.000000,0.15609627
1589.000000,0.1464926657
1590.000000,0.1371448633
1591.000000,0.1421954309
1592.000000,0.143028761
1593.000000,0.1533872446
1594.000000,0.1676799526
1595.000000,0.1943224355
1596.000000,0.2301584759
1597.000000,0.2723522805
1598.000000,0.3422589815
1599.000000,0.4291558686
1600.000000,0.5206945799
1601.000000,0.6088286294
1602.000000,0.6448091617
1603.000000,0.6064584735
1604.000000,0.5188154434
1605.000000,0.414248081
1606.000000,0.3315763239
1607.000000,0.2607675026
1608.000000,0.2048333862
1609.000000,0.1721017454
1610.000000,0.1431685792
1611.000000,0.1176217294
1612.000000,0.1010193104
1613.000000,0.08635545158
1614.000000,0.07395087163
1615.000000,0.06445225712
1616.000000,0.06211453405
1617.000000,0.05585974082
1618.000000,0.04840661003
1619.000000,0.04420765741
1620.000000,0.04386079193
1621.000000,0.03687642441
1622.000000,0.03736104811
1623.000000,0.03686241101
1624.000000,0.0308221009
1625.000000,0.02741737652
1626.000000,0.03063116764
1627.000000,0.02849380244
1628.000000,0.03122530109
1629.000000,0.02376390973
1630.000000,0.02813290591
1631.000000,0.02212110738
1632.000000,0.02475204096
1633.000000,0.02238940716
1634.000000,0.02345273274
1635.000000,0.02253471879
1636.000000,0.0187244545
1637.000000,0.01887307743
1638.000000,0.02163197373
1639.000000,0.02036518857
1640.000000,0.01712502722
1641.000000,0.01778586028
1642.000000,0.01664023038
1643.000000,0.01684233235
1644.000000,0.0172689791
1645.000000,0.01586843039
1646.000000,0.01554946933
1647.000000,0.02001784683
1648.000000,0.01526509955
1649.000000,0.01842085898
1650.000000,0.0141375819
1651.000000,0.01323136231
1652.000000,0.01704248501
1653.000000,0.01610467284
1654.000000,0.01562519871
1655.000000,0.0174375864
1656.000000,0.01333297738
1657.000000,0.01703968804
1658.000000,0.01825962639
1659.000000,0.01440940574
1660.000000,0.01945033351
1661.000000,0.01518962929
1662.000000,0.01274249033
1663.000000,0.01336080342
1664.000000,0.01332184045
1665.000000,0.01164917525
1666.000000,0.0177350245
1667.000000,0.01421486893
1668.000000,0.01543708038
1669.000000,0.01387859859
1670.000000,0.01502099876
1671.000000,0.0131067988
1672.000000,0.01379602074
1673.000000,0.01267975761
1674.000000,0.01351189845
1675.000000,0.0112150673
1676.000000,0.01054231928
1677.000000,0.009801674138
1678.000000,0.01263661486
1679.000000,0.01127116745
1680.000000,0.01119793785
1681.000000,0.01643649453
1682.000000,0.01336659425
1683.000000,0.01476758171
1684.000000,0.01404621556
1685.000000,0.01011261666
1686.000000,0.0132030679
1687.000000,0.01509620658
1688.000000,0.01184349784
1689.000000,0.01017498357
1690.000000,0.007855698409
1691.000000,0.009934619019
1692.000000,0.01167159781
1693.000000,0.01225705561
1694.000000,0.010460418
1695.000000,0.009544644522
1696.000000,0.01312293235
1697.000000,0.0120750902
1698.000000,0.01342755271
1699.000000,0.01311469031
1700.000000,0.01260285617
1701.000000,0.009910158483
1702.000000,0.008409864902
1703.000000,0.01126648847
1704.000000,0.00976849877
1705.000000,0.008969046466
1706.000000,0.0103469053
1707.000000,0.01179015976
1708.000000,0.009407991368
1709.000000,0.01311032959
1710.000000,0.01227959716
1711.000000,0.0111732898
1712.000000,0.01089090066
1713.000000,0.01092282007
1714.000000,0.01247553378
1715.000000,0.009412477947
1716.000000,0.01147784509
1717.000000,0.01202978108
1718.000000,0.01109305076
1719.000000,0.01525456233
1720.000000,0.009423364965
1721.000000,0.0123372049
1722.000000,0.01346056764
1723.000000,0.009403794985
1724.000000,0.01309246657
1725.000000,0.01264486764
1726.000000,0.01314891253
1727.000000,0.01154538505
1728.000000,0.01202677151
1729.000000,0.01160533377
1730.000000,0.0113789382
1731.000000,0.009151114012
1732.000000,0.01252482125
1733.000000,0.0119264136
1734.000000,0.008305535406
1735.000000,0.009600033239
1736.000000,0.008909043821
1737.000000,0.01675453041
1738.000000,0.009840235904
1739.000000,0.009960554129
1740.000000,0.009154668707
1741.000000,0.008756572024
1742.000000,0.01162780133
1743.000000,0.0118445101
1744.000000,0.01044428298
1745.000000,0.007248874608
1746.000000,0.01293856822
1747.000000,0.01101482303
1748.000000,0.01191008956
1749.000000,0.01033205227
1750.000000,0.009175465342
1751.000000,0.01176661909
1752.000000,0.00937515957
1753.000000,0.01282109454
1754.000000,0.00667313911
1755.000000,0.009887322806
1756.000000,0.007484102678
1757.000000,0.0116089235
1758.000000,0.01117954375
1759.000000,0.009329763898
1760.000000,0.01000249749
1761.000000,0.009390865024
1762.000000,0.01037499904
1763.000000,0.01226436528
1764.000000,0.009651293115
1765.000000,0.008689523983
1766.000000,0.01080917218
1767.000000,0.007972195958
1768.000000,0.01194200005
1769.000000,0.01139397426
1770.000000,0.008016771202
1771.000000,0.01145483072
1772.000000,0.00955912317
1773.000000,0.01254561406
1774.000000,0.0107990741
1775.000000,0.009273514444
1776.000000,0.01176474202
1777.000000,0.009399155999
1778.000000,0.009821766668
1779.000000,0.01014399618
1780.000000,0.009673818486
1781.000000,0.01206574996
1782.000000,0.008360431221
1783.000000,0.009873072787
1784.000000,0.01176113105
1785.000000,0.009497137283
1786.000000,0.01289894926
1787.000000,0.01125112044
1788.000000,0.009945355584
1789.000000,0.01148145961
1790.000000,0.007130648284
1791.000000,0.0114961139
1792.000000,0.01206319984
1793.000000,0.01108111369
1794.000000,0.009179650788
1795.000000,0.008495676878
1796.000000,0.01195950379
1797.000000,0.0116578294
1798.000000,0.01273891768
1799.000000,0.009166925388
1800.000000,0.009234124706
1801.000000,0.009196162512
1802.000000,0.009426874621
1803.000000,0.01330341104
1804.000000,0.01051918344
1805.000000,0.01250032951
1806.000000,0.009585211427
1807.000000,0.008679213132
1808.000000,0.006289780262
1809.000000,0.009684195734
1810.000000,0.01293792441
1811.000000,0.007390851373
1812.000000,0.01015287812
1813.000000,0.009829159195
1814.000000,0.007663256767
1815.000000,0.009684354378
1816.000000,0.01113023293
1817.000000,0.01189871753
1818.000000,0.01029719092
1819.000000,0.01155969511
1820.000000,0.01254003855
1821.000000,0.008818905957
1822.000000,0.005616633325
1823.000000,0.01080096117
1824.000000,0.01096945418
1825.000000,0.008914433116
1826.000000,0.007154294864
1827.000000,0.008803296344
1828.000000,0.011817063
1829.000000,0.01092002615
1830.000000,0.01133677129
1831.000000,0.009741757317
1832.000000,0.009864489407
1833.000000,0.0083024221
1834.000000,0.01225727183
1835.000000,0.008852429365
1836.000000,0.01195214993
1837.000000,0.008817023082
1838.000000,0.01162954683
1839.000000,0.01263963715
1840.000000,0.01012207365
1841.000000,0.008474167844
1842.000000,0.00897999453
1843.000000,0.008599028405
1844.000000,0.01218834231
1845.000000,0.01222974189
1846.000000,0.009543931671
1847.000000,0.01005194375
1848.000000,0.009102564853
1849.000000,0.01421516717
1850.000000,0.009581887457
1851.000000,0.01042823719
1852.000000,0.009013872769
1853.000000,0.008093023635
1854.000000,0.00914986744
1855.000000,0.01054244659
1856.000000,0.01027978258
1857.000000,0.008567823419
1858.000000,0.009687615726
1859.000000,0.01235768809
1860.000000,0.01082856795
1861.000000,0.008313859673
1862.000000,0.01006072236
1863.000000,0.009016249433
1864.000000,0.01212598714
1865.000000,0.007673676026
1866.000000,0.01074698666
1867.000000,0.009126690895
1868.000000,0.01300361205
1869.000000,0.01009270884
1870.000000,0.01228288357
1871.000000,0.007848859936
1872.000000,0.009182704344
1873.000000,0.01463183263
1874.000000,0.008982771317
1875.000000,0.01104534155
1876.000000,0.01147846451
1877.000000,0.008447455506
1878.000000,0.008239721669
1879.000000,0.009793588788
1880.000000,0.01222848003
1881.000000,0.01044486092
1882.000000,0.007521251402
1883.000000,0.01016450074
1884.000000,0.01154287496
1885.000000,0.009899787796
1886.000000,0.007315967075
1887.000000,0.007223206248
1888.000000,0.01275091853
1889.000000,0.01383537176
1890.000000,0.01060715421
1891.000000,0.007497617878
1892.000000,0.007943556805
1893.000000,0.01011568705
1894.000000,0.01050270493
1895.000000,0.01105947743
1896.000000,0.01068076785
1897.000000,0.01058826858
1898.000000,0.01082101689
1899.000000,0.01216732594
1900.000000,0.01476957839
1901.000000,0.01146693448
1902.000000,0.01148699738
1903.000000,0.007463409546
1904.000000,0.01092953143
1905.000000,0.008986860201
1906.000000,0.01092955296
1907.000000,0.006908725081
1908.000000,0.00942170896
1909.000000,0.01336936
1910.000000,0.01325716928
1911.000000,0.008724070624
1912.000000,0.01134623515
1913.000000,0.009450831962
1914.000000,0.01022685408
1915.000000,0.008327957419
1916.000000,0.01116518316
1917.000000,0.01392493286
1918.000000,0.01346258278
1919.000000,0.01200299332
1920.000000,0.008454272942
1921.000000,0.00678259716
1922.000000,0.01027159587
1923.000000,0.0111358488
1924.000000,0.01275993322
1925.000000,0.0104437263
1926.000000,0.01201343536
1927.000000,0.008941184659
1928.000000,0.009922751484
1929.000000,0.007978885778
1930.000000,0.01353995978
1931.000000,0.009986221986
1932.000000,0.008742515516
1933.000000,0.007140843221
1934.000000,0.01162115688
1935.000000,0.01208929434
1936.000000,0.01184567637
1937.000000,0.007794451182
1938.000000,0.01131760049
1939.000000,0.01017465713
1940.000000,0.009041338527
1941.000000,0.009188881411
1942.000000,0.009481866471
1943.000000,0.01037846203
1944.000000,0.01061301143
1945.000000,0.008902368529
1946.000000,0.01241239739
1947.000000,0.01082268544
1948.000000,0.0104637839
1949.000000,0.009977451788
1950.000000,0.01121337768
1951.000000,0.01339878854
1952.000000,0.01188464055
1953.000000,0.007426512496
1954.000000,0.008622378679
1955.000000,0.01236170144
1956.000000,0.01138414612
1957.000000,0.01143944168
1958.000000,0.01244123473
1959.000000,0.01125037081
1960.000000,0.008248659429
1961.000000,0.01031305962
1962.000000,0.0116106514
1963.000000,0.01149295915
1964.000000,0.01189812586
1965.000000,0.006872198551
1966.000000,0.01190132792
1967.000000,0.01000291591
1968.000000,0.009118610313
1969.000000,0.01118284028
1970.000000,0.01411844874
1971.000000,0.01093693925
1972.000000,0.008299259231
1973.000000,0.01156910671
1974.000000,0.01188951285
1975.000000,0.007666778638
1976.000000,0.01021861529
1977.000000,0.00977393705
1978.000000,0.009732592201
1979.000000,0.007867379587
1980.000000,0.009237419281
1981.000000,0.01053987777
1982.000000,0.01100829961
1983.000000,0.0123681873
1984.000000,0.01012586153
1985.000000,0.01260072222
1986.000000,0.01179003364
1987.000000,0.009722948537
1988.000000,0.01134547867
1989.000000,0.01322300737
1990.000000,0.007504725071
1991.000000,0.009558143835
1992.000000,0.01046842975
1993.000000,0.01193754351
1994.000000,0.008174227856
1995.000000,0.01034310804
1996.000000,0.009363182285
1997.000000,0.008488590167
1998.000000,0.01234433452
1999.000000,0.01120319628
2000.000000,0.008216110659
