raman_shift_cm-1,intensity
200.000000,0.01079076505
201.000000,0.0130947941
202.000000,0.00650099944
203.000000,0.01344711254
204.000000,0.009979475891
205.000000,0.008474379142
206.000000,0.008468650077
207.000000,0.007909158902
208.000000,0.009627730868
209.000000,0.01174302083
210.000000,0.01124361207
211.000000,0.01135229005
212.000000,0.00668633588
213.000000,0.006934264369
214.000000,0.01318403218
215.000000,0.0120144351
216.000000,0.01444333221
217.000000,0.01249677704
218.000000,0.008028605189
219.000000,0.01264817661
220.000000,0.01133466542
221.000000,0.0105077733
222.000000,0.008438624732
223.000000,0.01008418114
224.000000,0.009784874019
225.000000,0.01186419378
226.000000,0.010328371
227.000000,0.01324912394
228.000000,0.008530917048
229.000000,0.01102235158
230.000000,0.01107809059
231.000000,0.00835198962
232.000000,0.007718396969
233.000000,0.01210835194
234.000000,0.01111633928
235.000000,0.009756714901
236.000000,0.01087072856
237.000000,0.008731575754
238.000000,0.01055923185
239.000000,0.008872555278
240.000000,0.01046066043
241.000000,0.01205553888
242.000000,0.009404377548
243.000000,0.01178346539
244.000000,0.008015800495
245.000000,0.009507500718
246.000000,0.00735528184
247.000000,0.009883881347
248.000000,0.0102426499
249.000000,0.009691106355
250.000000,0.009550571956
251.000000,0.01276660625
252.000000,0.01293409781
253.000000,0.007655547207
254.000000,0.0124353371
255.000000,0.006641269627
256.000000,0.008618752944
257.000000,0.00974112472
258.000000,0.01031044348
259.000000,0.007993797184
260.000000,0.008644003169
261.000000,0.0102425605
262.000000,0.008702721519
263.000000,0.008807481469
264.000000,0.01142272803
265.000000,0.01195396334
266.000000,0.00997073331
267.000000,0.0101275634
268.000000,0.01005229762
269.000000,0.009182845639
270.000000,0.009069366293
271.000000,0.008016996176
272.000000,0.01138959759
273.000000,0.009924837787
274.000000,0.009818617511
275.000000,0.01049492294
276.000000,0.01115553105
277.000000,0.01293659629
278.000000,0.009547783858
279.000000,0.009292881492
280.000000,0.0104967259
281.000000,0.0084049288
282.000000,0.01264115196
283.000000,0.01194913976
284.000000,0.01148486373
285.000000,0.009858149209
286.000000,0.01157691087
287.000000,0.01219852586
288.000000,0.01109830088
289.000000,0.009538898388
290.000000,0.006729095488
291.000000,0.0119935464
292.000000,0.009393502613
293.000000,0.008413921306
294.000000,0.01188197506
295.000000,0.01077751212
296.000000,0.007263890051
297.000000,0.0099038767
298.000000,0.009563890693
299.000000,0.01208798452
300.000000,0.006312922286
301.000000,0.009332452384
302.000000,0.009827486527
303.000000,0.01294219944
304.000000,0.00793803575
305.000000,0.004224371488
306.000000,0.007337601657
307.000000,0.01063222391
308.000000,0.01172569779
309.000000,0.0135740311
310.000000,0.0109092518
311.000000,0.008503199777
312.000000,0.01187704168
313.000000,0.01008659244
314.000000,0.009707240829
315.000000,0.01014471399
316.000000,0.01265921662
317.000000,0.008307640869
318.000000,0.008063131654
319.000000,0.009978408167
320.000000,0.009978782216
321.000000,0.008483478248
322.000000,0.008353959557
323.000000,0.01086867169
324.000000,0.01278950819
325.000000,0.01154031004
326.000000,0.01148506074
327.000000,0.0126067894
328.000000,0.00613386927
329.000000,0.007095665126
330.000000,0.008706030531
331.000000,0.007727116845
332.000000,0.008139060044
333.000000,0.01025812405
334.000000,0.007550121532
335.000000,0.009232435911
336.000000,0.006033654036
337.000000,0.008172552119
338.000000,0.01281213935
339.000000,0.009035800217
340.000000,0.01077041956
341.000000,0.0115390063
342.000000,0.009141453896
343.000000,0.01128199355
344.000000,0.01055346496
345.000000,0.01151977995
346.000000,0.008854444136
347.000000,0.00724579214
348.000000,0.008082485162
349.000000,0.009017687087
350.000000,0.01119957815
351.000000,0.009719908555
352.000000,0.00933152501
353.000000,0.009770391412
354.000000,0.01232988989
355.000000,0.008980005914
356.000000,0.01315430023
357.000000,0.00767709009
358.000000,0.008948450092
359.000000,0.01184357629
360.000000,0.01116988121
361.000000,0.008423871401
362.000000,0.0099174906
363.000000,0.008718373928
364.000000,0.01183895702
365.000000,0.01121708321
366.000000,0.008712077228
367.000000,0.01093336297
368.000000,0.009405411304
369.000000,0.00999658406
370.000000,0.01027036758
371.000000,0.009013777003
372.000000,0.01099261469
373.000000,0.01106390669
374.000000,0.01099595422
375.000000,0.01235412668
376.000000,0.009602128798
377.000000,0.007180663735
378.000000,0.009169017509
379.000000,0.01054942215
380.000000,0.01019271456
381.000000,0.01130692201
382.000000,0.01176319247
383.000000,0.009915996298
384.000000,0.009931263441
385.000000,0.00817802481
386.000000,0.01221987575
387.000000,0.009626665184
388.000000,0.007988785529
389.000000,0.007927524785
390.000000,0.009327621864
391.000000,0.01326884208
392.000000,0.01170403596
393.000000,0.006771768374
394.000000,0.009913543224
395.000000,0.01068962062
396.000000,0.0114157554
397.000000,0.01085091608
398.000000,0.008883067642
399.000000,0.01098929434
400.000000,0.009058202105
401.000000,0.005686199096
402.000000,0.008750772909
403.000000,0.008797580549
404.000000,0.0120778001
405.000000,0.01228359012
406.000000,0.008082072595
407.000000,0.01052151342
408.000000,0.01035504017
409.000000,0.007304266491
410.000000,0.006070684915
411.000000,0.009992541239
412.000000,0.01045208661
413.000000,0.008990675661
414.000000,0.004759161257
415.000000,0.01012369476
416.000000,0.009026605721
417.000000,0.008406230102
418.000000,0.009537880864
419.000000,0.007930368696
420.000000,0.0113084101
421.000000,0.01021119059
422.000000,0.009072343752
423.000000,0.01075629265
424.000000,0.01012965395
425.000000,0.007158765824
426.000000,0.009908225753
427.000000,0.009283564738
428.000000,0.006717822888
429.000000,0.008896563926
430.000000,0.01105474242
431.000000,0.008964503004
432.000000,0.01301996057
433.000000,0.01360284977
434.000000,0.009595217447
435.000000,0.01131628881
436.000000,0.01419625797
437.000000,0.00954945369
438.000000,0.008416168426
439.000000,0.009371016709
440.000000,0.007468858612
441.000000,0.007520575145
442.000000,0.01063791689
443.000000,0.009388792278
444.000000,0.01071690515
445.000000,0.01120251166
446.000000,0.008698898832
447.000000,0.009840420254
448.000000,0.009692537162
449.000000,0.008895664334
450.000000,0.008561959274
451.000000,0.01086787693
452.000000,0.009958217634
453.000000,0.01090524883
454.000000,0.01224451519
455.000000,0.01227313252
456.000000,0.00802263843
457.000000,0.00853720151
458.000000,0.009738471828
459.000000,0.01050040925
460.000000,0.0121321016
461.000000,0.008333208247
462.000000,0.009386125276
463.000000,0.01075620967
464.000000,0.01272221427
465.000000,0.01302533819
466.000000,0.008257343026
467.000000,0.009847689818
468.000000,0.008658774904
469.000000,0.0119717889
470.000000,0.01117323106
471.000000,0.009566485172
472.000000,0.009062277878
473.000000,0.01087741895
474.000000,0.01225089514
475.000000,0.008758262792
476.000000,0.009648724212
477.000000,0.01052494623
478.000000,0.01033802886
479.000000,0.01098080265
480.000000,0.008309037525
481.000000,0.009121518085
482.000000,0.006114407465
483.000000,0.01042939327
484.000000,0.01246161349
485.000000,0.006210349942
486.000000,0.009064635214
487.000000,0.01212888139
488.000000,0.01004988284
489.000000,0.006549133594
490.000000,0.0126806047
491.000000,0.007494977791
492.000000,0.01309270969
493.000000,0.00918566443
494.000000,0.008945999436
495.000000,0.01041721475
496.000000,0.01032330304
497.000000,0.01157303011
498.000000,0.01138161552
499.000000,0.01008535526
500.000000,0.01303102888
501.000000,0.01181775514
502.000000,0.01094334403
503.000000,0.01067106317
504.000000,0.01021537526
505.000000,0.01025618193
506.000000,0.01174658803
507.000000,0.01137087693
508.000000,0.01050755852
509.000000,0.01246417631
510.000000,0.009915537222
511.000000,0.01131791589
512.000000,0.01217149361
513.000000,0.008227924727
514.000000,0.009937362032
515.000000,0.0138100405
516.000000,0.008565240378
517.000000,0.01279081774
518.000000,0.008374542369
519.000000,0.01131275463
520.000000,0.008381135525
521.000000,0.009284789196
522.000000,0.009775227208
523.000000,0.009436736967
524.000000,0.01256029292
525.000000,0.01221918204
526.000000,0.01230162453
527.000000,0.01095807642
528.000000,0.01385437456
529.000000,0.01264877655
530.000000,0.01125122074
531.000000,0.008515003729
532.000000,0.0119946807
533.000000,0.01193968485
534.000000,0.01083601814
535.000000,0.01208547632
536.000000,0.01221236496
537.000000,0.01008880514
538.000000,0.01183001018
539.000000,0.0114077327
540.000000,0.01135459292
541.000000,0.01005992831
542.000000,0.009833355815
543.000000,0.01101294266
544.000000,0.01365613503
545.000000,0.01546233111
546.000000,0.01008910061
547.000000,0.008739098229
548.000000,0.01018452029
549.000000,0.009218015694
550.000000,0.01007570026
551.000000,0.01172580963
552.000000,0.009127127408
553.000000,0.01219796604
554.000000,0.01258862149
555.000000,0.01406500939
556.000000,0.01469852656
557.000000,0.01308476611
558.000000,0.01565399847
559.000000,0.01015232886
560.000000,0.01173805812
561.000000,0.01156442779
562.000000,0.01213568053
563.000000,0.01334535977
564.000000,0.01069056656
565.000000,0.01480695757
566.000000,0.01397762364
567.000000,0.01217981406
568.000000,0.0124678033
569.000000,0.009651165936
570.000000,0.006682840225
571.000000,0.01153319255
572.000000,0.01240693118
573.000000,0.01229761477
574.000000,0.009719593919
575.000000,0.01109198486
576.000000,0.01557695339
577.000000,0.01361871296
578.000000,0.01348897864
579.000000,0.01174323564
580.000000,0.01394302127
581.000000,0.01515078308
582.000000,0.0142243781
583.000000,0.01204086088
584.000000,0.01356431014
585.000000,0.01140491433
586.000000,0.01272263043
587.000000,0.01469673585
588.000000,0.01266130253
589.000000,0.01349118228
590.000000,0.01705346675
591.000000,0.0141382194
592.000000,0.01629837022
593.000000,0.01451157163
594.000000,0.01321953183
595.000000,0.01590505632
596.000000,0.01564742701
597.000000,0.01289089855
598.000000,0.0150920716
599.000000,0.01732106853
600.000000,0.02186064848
601.000000,0.01867657212
602.000000,0.02078335558
603.000000,0.02329740966
604.000000,0.02403494191
605.000000,0.02445482416
606.000000,0.03049796492
607.000000,0.03218673697
608.000000,0.02761858615
609.000000,0.03798254042
610.000000,0.04166358367
611.000000,0.04821834645
612.000000,0.05371712068
613.000000,0.06455094138
614.000000,0.07890388026
615.000000,0.0942301493
616.000000,0.1143856324
617.000000,0.1369907221
618.000000,0.1624283311
619.000000,0.1836881142
620.000000,0.1880722345
621.000000,0.1863320057
622.000000,0.1610765024
623.000000,0.1355577799
624.000000,0.1110895575
625.000000,0.09179503243
626.000000,0.07089650875
627.000000,0.06339831912
628.000000,0.05105957949
629.000000,0.04435457284
630.000000,0.03693493635
631.000000,0.03271116055
632.000000,0.03367051994
633.000000,0.02860594516
634.000000,0.0269686401
635.000000,0.02484258459
636.000000,0.0212120791
637.000000,0.02070317405
638.000000,0.01841137907
639.000000,0.01926877513
640.000000,0.01459056412
641.000000,0.0174486513
642.000000,0.01936591691
643.000000,0.01936347597
644.000000,0.01871835312
645.000000,0.01696681459
646.000000,0.01357338452
647.000000,0.01700290343
648.000000,0.01590246412
649.000000,0.01510118771
650.000000,0.01189523148
651.000000,0.01483685071
652.000000,0.01664389428
653.000000,0.01511161584
654.000000,0.01299840173
655.000000,0.01436827377
656.000000,0.01313671642
657.000000,0.0133412846
658.000000,0.01453610158
659.000000,0.01341812229
660.000000,0.01276813745
661.000000,0.01328394819
662.000000,0.01079450664
663.000000,0.01035436589
664.000000,0.01321466975
665.000000,0.01099570878
666.000000,0.01321363037
667.000000,0.008377083145
668.000000,0.01435257903
669.000000,0.01171495899
670.000000,0.01516971174
671.000000,0.006887072983
672.000000,0.008417366781
673.000000,0.01450649455
674.000000,0.01198718125
675.000000,0.01224130633
676.000000,0.0118484701
677.000000,0.01188549324
678.000000,0.01260459349
679.000000,0.009499829957
680.000000,0.01114537386
681.000000,0.01403570723
682.000000,0.01178604639
683.000000,0.01017017354
684.000000,0.01157246215
685.000000,0.01343748577
686.000000,0.01094635503
687.000000,0.0109718065
688.000000,0.01228461984
689.000000,0.01298385165
690.000000,0.0142139809
691.000000,0.01100987593
692.000000,0.01194754747
693.000000,0.01332091219
694.000000,0.007454408803
695.000000,0.01151471845
696.000000,0.0121404761
697.000000,0.0110504026
698.000000,0.009516342018
699.000000,0.0123701974
700.000000,0.01367437828
701.000000,0.01102446592
702.000000,0.01023837015
703.000000,0.01076945612
704.000000,0.01429332518
705.000000,0.01367163741
706.000000,0.01128537737
707.000000,0.009019796552
708.000000,0.008686467553
709.000000,0.01056559456
710.000000,0.01058306163
711.000000,0.01174640258
712.000000,0.008970561153
713.000000,0.01097798557
714.000000,0.01229417572
715.000000,0.007881031521
716.000000,0.01582090183
717.000000,0.01240557088
718.000000,0.01231704866
719.000000,0.008685661032
720.000000,0.009248493792
721.000000,0.01333255248
722.000000,0.01308695971
723.000000,0.006480505828
724.000000,0.01365067608
725.000000,0.01281704501
726.000000,0.01262609297
727.000000,0.009188302313
728.000000,0.01193700869
729.000000,0.01023522065
730.000000,0.01258717371
731.000000,0.01516244718
732.000000,0.0127954674
733.000000,0.01357178446
734.000000,0.01094994358
735.000000,0.009563093125
736.000000,0.01166276488
737.000000,0.0137388577
738.000000,0.01463655205
739.000000,0.01162344154
740.000000,0.01228840341
741.000000,0.01102855631
742.000000,0.008439044303
743.000000,0.01208733086
744.000000,0.01265985405
745.000000,0.01119167753
746.000000,0.0117304484
747.000000,0.008540690895
748.000000,0.01231266034
749.000000,0.01502663518
750.000000,0.01229369381
751.000000,0.01360692584
752.000000,0.01338711035
753.000000,0.01107768661
754.000000,0.01310466702
755.000000,0.01115348173
756.000000,0.01872297503
757.000000,0.0134294105
758.000000,0.0109736388
759.000000,0.01022322667
760.000000,0.01641735543
761.000000,0.0148299918
762.000000,0.0145749402
763.000000,0.01126051732
764.000000,0.01306931778
765.000000,0.01200384014
766.000000,0.01687861277
767.000000,0.01392439315
768.000000,0.01913244822
769.000000,0.016672244
770.000000,0.01538385678
771.000000,0.01913973988
772.000000,0.01276313133
773.000000,0.01584153612
774.000000,0.01732627009
775.000000,0.02097207006
776.000000,0.02179936351
777.000000,0.02129375604
778.000000,0.01811461494
779.000000,0.02185674889
780.000000,0.0221748248
781.000000,0.02859581211
782.000000,0.02726666445
783.000000,0.03176348778
784.000000,0.03722502677
785.000000,0.03691152317
786.000000,0.04275556656
787.000000,0.04582553974
788.000000,0.05304048796
789.000000,0.06067979294
790.000000,0.06964251444
791.000000,0.07996601608
792.000000,0.08981337898
793.000000,0.1043323667
794.000000,0.1066035069
795.000000,0.1110967015
796.000000,0.1073091119
797.000000,0.09609005442
798.000000,0.09254889564
799.000000,0.08030040308
800.000000,0.06687947711
801.000000,0.05915409147
802.000000,0.04973912804
803.000000,0.04718081317
804.000000,0.04450142211
805.000000,0.03951733017
806.000000,0.03095747683
807.000000,0.02717082781
808.000000,0.02923198524
809.000000,0.02950079803
810.000000,0.02451203204
811.000000,0.02504702501
812.000000,0.01891023142
813.000000,0.02039915991
814.000000,0.02057290549
815.000000,0.018059656
816.000000,0.01772055527
817.000000,0.01891911427
818.000000,0.01575368406
819.000000,0.01452856661
820.000000,0.01757355865
821.000000,0.01617944754
822.000000,0.01335296765
823.000000,0.01589898158
824.000000,0.0136278141
825.000000,0.01577359115
826.000000,0.01424518077
827.000000,0.01347806892
828.000000,0.01231322155
829.000000,0.01408680035
830.000000,0.01342964237
831.000000,0.01715732456
832.000000,0.01314894256
833.000000,0.01041696902
834.000000,0.0171347586
835.000000,0.008812795341
836.000000,0.01609181413
837.000000,0.01097223531
838.000000,0.01538884535
839.000000,0.01216237698
840.000000,0.01354320794
841.000000,0.01244810071
842.000000,0.01210260444
843.000000,0.0133049156
844.000000,0.01092214675
845.000000,0.01311030036
846.000000,0.009943743388
847.000000,0.01059613487
848.000000,0.0110001648
849.000000,0.0117778335
850.000000,0.01436875977
851.000000,0.0102307835
852.000000,0.01014964888
853.000000,0.0095908701
854.000000,0.01099699397
855.000000,0.01290617957
856.000000,0.01026421691
857.000000,0.01114692386
858.000000,0.01053460148
859.000000,0.01185943456
860.000000,0.007643866329
861.000000,0.01284310078
862.000000,0.0134886446
863.000000,0.009953919519
864.000000,0.01147271685
865.000000,0.009782253346
866.000000,0.01359270649
867.000000,0.01284394529
868.000000,0.01737005834
869.000000,0.01115213571
870.000000,0.009810492087
871.000000,0.01059788343
872.000000,0.009039976798
873.000000,0.01196901632
874.000000,0.01216935266
875.000000,0.01339711617
876.000000,0.01235877861
877.000000,0.01072417798
878.000000,0.01414012773
879.000000,0.01271634219
880.000000,0.01322231536
881.000000,0.009222017503
882.000000,0.009899463409
883.000000,0.01029154739
884.000000,0.01079661397
885.000000,0.007216309412
886.000000,0.01399999829
887.000000,0.01118485589
888.000000,0.01331193933
889.000000,0.01317387727
890.000000,0.01462888052
891.000000,0.01279937249
892.000000,0.01241911495
893.000000,0.01020211149
894.000000,0.01194548546
895.000000,0.01522514948
896.000000,0.008208964655
897.000000,0.01033993811
898.000000,0.01231982923
899.000000,0.01502134277
900.000000,0.009615211989
901.000000,0.01093101444
902.000000,0.01216141068
903.000000,0.01808794476
904.000000,0.01017011895
905.000000,0.01161507116
906.000000,0.01344149042
907.000000,0.01057035858
908.000000,0.01277789307
909.000000,0.01286028367
910.000000,0.01134253074
911.000000,0.01279552556
912.000000,0.01556881987
913.000000,0.01240714713
914.000000,0.011336206
915.000000,0.01072835214
916.000000,0.01271923208
917.000000,0.01436898903
918.000000,0.01262428386
919.000000,0.01298949678
920.000000,0.01770460843
921.000000,0.01092314999
922.000000,0.01033429238
923.000000,0.01308126355
924.000000,0.01214877188
925.000000,0.01377160146
926.000000,0.01515054843
927.000000,0.01344000035
928.000000,0.01238463166
929.000000,0.01386827567
930.000000,0.01385485851
931.000000,0.01276520912
932.000000,0.0118609782
933.000000,0.01440841979
934.000000,0.01273913436
935.000000,0.01092223471
936.000000,0.0146453428
937.000000,0.01232031608
938.000000,0.0123616616
939.000000,0.01482072376
940.000000,0.01204431532
941.000000,0.01334755749
942.000000,0.01183517319
943.000000,0.01084867911
944.000000,0.01458844454
945.000000,0.01722496457
946.000000,0.01248924514
947.000000,0.01668186172
948.000000,0.01662253034
949.000000,0.01764028124
950.000000,0.01264484754
951.000000,0.01363612418
952.000000,0.01839401789
953.000000,0.01518340911
954.000000,0.01546138752
955.000000,0.0170949363
956.000000,0.01711726023
957.000000,0.01503207725
958.000000,0.01594802917
959.000000,0.01790554873
960.000000,0.01744838619
961.000000,0.01575758643
962.000000,0.02008438941
963.000000,0.01957681896
964.000000,0.01761760569
965.000000,0.01755424849
966.000000,0.02092945657
967.000000,0.01474592918
968.000000,0.02028786634
969.000000,0.01945104685
970.000000,0.01989963538
971.000000,0.0236804474
972.000000,0.02326745185
973.000000,0.02957440675
974.000000,0.02395025409
975.000000,0.02611701218
976.000000,0.02371477669
977.000000,0.02977559159
978.000000,0.02799150593
979.000000,0.03121747698
980.000000,0.03518766376
981.000000,0.03704776573
982.000000,0.03807706694
983.000000,0.04244452495
984.000000,0.04227786644
985.000000,0.04516836588
986.000000,0.04860123431
987.000000,0.05830317062
988.000000,0.06789784274
989.000000,0.07172441846
990.000000,0.08294202124
991.000000,0.095784304
992.000000,0.1149782037
993.000000,0.1338342463
994.000000,0.1712582757
995.000000,0.2167439801
996.000000,0.2781621619
997.000000,0.3730483978
998.000000,0.5135723624
999.000000,0.709034002
1000.000000,0.9188331291
1001.000000,1.014316111
1002.000000,0.9136095757
1003.000000,0.709635013
1004.000000,0.5181358917
1005.000000,0.3795515479
1006.000000,0.2820590582
1007.000000,0.2208712192
1008.000000,0.1775358265
1009.000000,0.1410487298
1010.000000,0.1214179513
1011.000000,0.106933071
1012.000000,0.09520484941
1013.000000,0.08368020349
1014.000000,0.07441742398
1015.000000,0.07218040899
1016.000000,0.06795817683
1017.000000,0.06827452783
1018.000000,0.07129150553
1019.000000,0.06934128842
1020.000000,0.07375395438
1021.000000,0.07607400493
1022.000000,0.08768198506
1023.000000,0.09513111733
1024.000000,0.1092966916
1025.000000,0.1364012682
1026.000000,0.1636453195
1027.000000,0.2072887981
1028.000000,0.2609933571
1029.000000,0.3414778667
1030.000000,0.4129925856
1031.000000,0.4403029574
1032.000000,0.4076592203
1033.000000,0.3348469935
1034.000000,0.2631494036
1035.000000,0.1974038816
1036.000000,0.1567578931
1037.000000,0.1282137528
1038.000000,0.1015064613
1039.000000,0.08831687847
1040.000000,0.07181744589
1041.000000,0.06154009888
1042.000000,0.05648468152
1043.000000,0.0485882336
1044.000000,0.0441661982
1045.000000,0.03926935173
1046.000000,0.03444971113
1047.000000,0.03355708186
1048.000000,0.03331283467
1049.000000,0.03212148797
1050.000000,0.02815658592
1051.000000,0.02747171952
1052.000000,0.02374242858
1053.000000,0.02413942722
1054.000000,0.02320605833
1055.000000,0.02237641515
1056.000000,0.0219984787
1057.000000,0.0218894183
1058.000000,0.02299830801
1059.000000,0.02153796033
1060.000000,0.02051810959
1061.000000,0.01659440069
1062.000000,0.01699513503
1063.000000,0.01831284542
1064.000000,0.01806849802
1065.000000,0.01899827152
1066.000000,0.01373349907
1067.000000,0.01732317461
1068.000000,0.01696139526
1069.000000,0.01580557244
1070.000000,0.01468118228
1071.000000,0.01650776887
1072.000000,0.01555298321
1073.000000,0.01663508523
1074.000000,0.01153241523
1075.000000,0.01358181344
1076.000000,0.01828293557
1077.000000,0.01556637213
1078.000000,0.01345368967
1079.000000,0.01424495912
1080.000000,0.01219703338
1081.000000,0.01751560715
1082.000000,0.01744103145
1083.000000,0.01626831446
1084.000000,0.01682997256
1085.000000,0.01529645294
1086.000000,0.01692014728
1087.000000,0.01550296861
1088.000000,0.01699793038
1089.000000,0.0140955796
1090.000000,0.01392634354
1091.000000,0.01294433984
1092.000000,0.01309227871
1093.000000,0.01086209581
1094.000000,0.01660709841
1095.000000,0.01673192587
1096.000000,0.01538165544
1097.000000,0.01589886666
1098.000000,0.01435737914
1099.000000,0.01487328306
1100.000000,0.01122397529
1101.000000,0.01375598794
1102.000000,0.01031840552
1103.000000,0.01257412668
1104.000000,0.01336872802
1105.000000,0.01333752063
1106.000000,0.0118783197
1107.000000,0.0165632276
1108.000000,0.01601740983
1109.000000,0.01305307284
1110.000000,0.01171117231
1111.000000,0.0132323721
1112.000000,0.01612132752
1113.000000,0.01055147886
1114.000000,0.01600347074
1115.000000,0.01423868024
1116.000000,0.01380641947
1117.000000,0.01672010338
1118.000000,0.01485858113
1119.000000,0.01425117351
1120.000000,0.0175490708
1121.000000,0.01210424211
1122.000000,0.01862637296
1123.000000,0.01394841855
1124.000000,0.01418342386
1125.000000,0.01921978867
1126.000000,0.02292443621
1127.000000,0.01907094414
1128.000000,0.0152952283
1129.000000,0.01299887921
1130.000000,0.01820276841
1131.000000,0.01818303272
1132.000000,0.01753241986
1133.000000,0.01901375721
1134.000000,0.01858442877
1135.000000,0.02234320964
1136.000000,0.0213652072
1137.000000,0.02211480789
1138.000000,0.01932678214
1139.000000,0.02552816512
1140.000000,0.02373367657
1141.000000,0.02995529568
1142.000000,0.03068465331
1143.000000,0.02946053031
1144.000000,0.03613865686
1145.000000,0.03853725544
1146.000000,0.0470956935
1147.000000,0.05327305569
1148.000000,0.06254002997
1149.000000,0.06910163064
1150.000000,0.08434189213
1151.000000,0.09613112358
1152.000000,0.1172112383
1153.000000,0.1340095404
1154.000000,0.1490300262
1155.000000,0.1541132485
1156.000000,0.1509834774
1157.000000,0.1345898164
1158.000000,0.117428555
1159.000000,0.1032869616
1160.000000,0.08535238145
1161.000000,0.07219923524
1162.000000,0.06182763011
1163.000000,0.05617534195
1164.000000,0.05035550708
1165.000000,0.04735539793
1166.000000,0.04251046116
1167.000000,0.04187703374
1168.000000,0.0384276307
1169.000000,0.04122701383
1170.000000,0.03773219678
1171.000000,0.03957719397
1172.000000,0.04008960607
1173.000000,0.03859967383
1174.000000,0.04607618707
1175.000000,0.04720334196
1176.000000,0.05537585883
1177.000000,0.05706120754
1178.000000,0.06728683156
1179.000000,0.07982631481
1180.000000,0.09582074893
1181.000000,0.1153298005
1182.000000,0.1298213641
1183.000000,0.1332698045
1184.000000,0.1285947919
1185.000000,0.1135100015
1186.000000,0.09895454502
1187.000000,0.08263882243
1188.000000,0.06829204688
1189.000000,0.05829485157
1190.000000,0.05213153164
1191.000000,0.04361640881
1192.000000,0.03433690261
1193.000000,0.0330057016
1194.000000,0.02970427715
1195.000000,0.02938970133
1196.000000,0.02665712437
1197.000000,0.02571709561
1198.000000,0.01953155058
1199.000000,0.02415323836
1200.000000,0.0200729302
1201.000000,0.02139660313
1202.000000,0.0196889511
1203.000000,0.01633169916
1204.000000,0.01587588367
1205.000000,0.01817364442
1206.000000,0.01878819347
1207.000000,0.01432484943
1208.000000,0.01350208247
1209.000000,0.01136677335
1210.000000,0.01328699835
1211.000000,0.01338926488
1212.000000,0.01403425513
1213.000000,0.0155889084
1214.000000,0.01321625489
1215.000000,0.0117911441
1216.000000,0.01307025998
1217.000000,0.01350946792
1218.000000,0.01380668362
1219.000000,0.01364138413
1220.000000,0.01290272367
1221.000000,0.01421778347
1222.000000,0.01244530242
1223.000000,0.01085603159
1224.000000,0.01248123222
1225.000000,0.01640330158
1226.000000,0.01103490948
1227.000000,0.01741737566
1228.000000,0.01150752855
1229.000000,0.01384862365
1230.000000,0.009192025963
1231.000000,0.0121100526
1232.000000,0.01509288433
1233.000000,0.00988478198
1234.000000,0.01071645564
1235.000000,0.01272446331
1236.000000,0.01274712285
1237.000000,0.00908591859
1238.000000,0.009486821185
1239.000000,0.01249495251
1240.000000,0.01247325668
1241.000000,0.01330310823
1242.000000,0.01149462098
1243.000000,0.01302426385
1244.000000,0.0141382942
1245.000000,0.009324010685
1246.000000,0.01370526538
1247.000000,0.01316448801
1248.000000,0.01417485465
1249.000000,0.01086761289
1250.000000,0.01153959803
1251.000000,0.01174047467
1252.000000,0.01061918847
1253.000000,0.01352851316
1254.000000,0.01197084123
1255.000000,0.009548793832
1256.000000,0.01200033229
1257.000000,0.009379797995
1258.000000,0.008383489082
1259.000000,0.009397858625
1260.000000,0.01146340148
1261.000000,0.01163734694
1262.000000,0.0111836249
1263.000000,0.01244443185
1264.000000,0.01513969486
1265.000000,0.009146720539
1266.000000,0.01218411725
1267.000000,0.0118760067
1268.000000,0.008993077921
1269.000000,0.01033063013
1270.000000,0.0117039693
1271.000000,0.0113577816
1272.000000,0.009658837258
1273.000000,0.01278099156
1274.000000,0.01174060065
1275.000000,0.01251592972
1276.000000,0.01436392772
1277.000000,0.008771281669
1278.000000,0.01317389327
1279.000000,0.01216845028
1280.000000,0.009530768257
1281.000000,0.01111659916
1282.000000,0.01041138622
1283.000000,0.008935808695
1284.000000,0.01278743579
1285.000000,0.009703717089
1286.000000,0.007241302127
1287.000000,0.01280513558
1288.000000,0.01025012221
1289.000000,0.01191858581
1290.000000,0.01159476545
1291.000000,0.01059408012
1292.000000,0.01044776119
1293.000000,0.006257505658
1294.000000,0.01038899182
1295.000000,0.008970264975
1296.000000,0.01216889361
1297.000000,0.009664711529
1298.000000,0.009911002735
1299.000000,0.01137538215
1300.000000,0.008944271318
1301.000000,0.009801483835
1302.000000,0.0102379416
1303.000000,0.01196984281
1304.000000,0.008364143212
1305.000000,0.01267991943
1306.000000,0.01091340401
1307.000000,0.01021724618
1308.000000,0.01186420883
1309.000000,0.01316969897
1310.000000,0.01344425853
1311.000000,0.00917842232
1312.000000,0.01382506876
1313.000000,0.01128363282
1314.000000,0.01376564709
1315.000000,0.009164822862
1316.000000,0.0108971278
1317.000000,0.0110190451
1318.000000,0.008770584909
1319.000000,0.01036174094
1320.000000,0.01300883744
1321.000000,0.01342548828
1322.000000,0.0125425502
1323.000000,0.01181730076
1324.000000,0.01041678626
1325.000000,0.01529124331
1326.000000,0.008676804403
1327.000000,0.00895732953
1328.000000,0.009809647803
1329.000000,0.01166027324
1330.000000,0.01043136517
1331.000000,0.01283621266
1332.000000,0.008292102373
1333.000000,0.01297051391
1334.000000,0.01478867891
1335.000000,0.01307650909
1336.000000,0.01080920738
1337.000000,0.01022829832
1338.000000,0.01353094821
1339.000000,0.008115277033
1340.000000,0.009893579435
1341.000000,0.008187595586
1342.000000,0.01118710388
1343.000000,0.01505985944
1344.000000,0.01066039663
1345.000000,0.0136025718
1346.000000,0.009432397444
1347.000000,0.0104805106
1348.000000,0.01045582291
1349.000000,0.01363734755
1350.000000,0.009903868387
1351.000000,0.01032192086
1352.000000,0.01166411529
1353.000000,0.01468170039
1354.000000,0.01181542407
1355.000000,0.01517750904
1356.000000,0.01251765375
1357.000000,0.01128050867
1358.000000,0.01403291338
1359.000000,0.01069889932
1360.000000,0.01008304169
1361.000000,0.01209281656
1362.000000,0.008917178844
1363.000000,0.009635471309
1364.000000,0.0104143213
1365.000000,0.01208282395
1366.000000,0.01406988622
1367.000000,0.01431480485
1368.000000,0.01174912184
1369.000000,0.01262054269
1370.000000,0.01160665182
1371.000000,0.009497197484
1372.000000,0.01308482593
1373.000000,0.01091994469
1374.000000,0.01384856844
1375.000000,0.01138406367
1376.000000,0.01053028416
1377.000000,0.01318865157
1378.000000,0.01153503445
1379.000000,0.0101097409
1380.000000,0.01473029356
1381.000000,0.01340158241
1382.000000,0.01346214801
1383.000000,0.01307220134
1384.000000,0.0119054461
1385.000000,0.007624459473
1386.000000,0.01205743587
1387.000000,0.01237293529
1388.000000,0.01413897759
1389.000000,0.01086953054
1390.000000,0.01443180121
1391.000000,0.01367234351
1392.000000,0.01657516201
1393.000000,0.01242345681
1394.000000,0.01397640503
1395.000000,0.01455809407
1396.000000,0.01535326081
1397.000000,0.01685867659
1398.000000,0.01542418498
1399.000000,0.01192920446
1400.000000,0.01803472706
1401.000000,0.0111321715
1402.000000,0.01642822952
1403.000000,0.01794064307
1404.000000,0.01426015754
1405.000000,0.01572255868
1406.000000,0.0159071535
1407.000000,0.01413286233
1408.000000,0.01729586433
1409.000000,0.01499654726
1410.000000,0.01780453018
1411.000000,0.01868380979
1412.000000,0.01999477943
1413.000000,0.0208976723
1414.000000,0.01949793502
1415.000000,0.02007597064
1416.000000,0.0191847656
1417.000000,0.02001940598
1418.000000,0.02244513471
1419.000000,0.02287358533
1420.000000,0.0229666426
1421.000000,0.02278416483
1422.000000,0.02565016629
1423.000000,0.02236555285
1424.000000,0.02454274551
1425.000000,0.02713694497
1426.000000,0.03015914049
1427.000000,0.02696549692
1428.000000,0.02887417395
1429.000000,0.03037976798
1430.000000,0.03616178491
1431.000000,0.03859309425
1432.000000,0.04263930813
1433.000000,0.04707550205
1434.000000,0.04377278524
1435.000000,0.04974859054
1436.000000,0.05370523309
1437.000000,0.05810821998
1438.000000,0.06672035959
1439.000000,0.07313724567
1440.000000,0.08343367461
1441.000000,0.09303988685
1442.000000,0.1033956797
1443.000000,0.1219735768
1444.000000,0.1387498156
1445.000000,0.1556612626
1446.000000,0.1724773246
1447.000000,0.1922004752
1448.000000,0.2115673089
1449.000000,0.2271874084
1450.000000,0.2321640232
1451.000000,0.2266150924
1452.000000,0.2144173356
1453.000000,0.1918136446
1454.000000,0.1774515042
1455.000000,0.1552456722
1456.000000,0.1372024773
1457.000000,0.1190473022
1458.000000,0.1024441759
1459.000000,0.0953432516
1460.000000,0.08403183641
1461.000000,0.07229995096
1462.000000,0.06381613455
1463.000000,0.05920817579
1464.000000,0.05668317838
1465.000000,0.05140433072
1466.000000,0.04646462628
1467.000000,0.04469971422
1468.000000,0.04060477623
1469.000000,0.03550186239
1470.000000,0.03633985376
1471.000000,0.03296549028
1472.000000,0.02971111108
1473.000000,0.03197828486
1474.000000,0.02921175838
1475.000000,0.02434050252
1476.000000,0.02752491874
1477.000000,0.02542609373
1478.000000,0.02343718111
1479.000000,0.02243709087
1480.000000,0.02060446973
1481.000000,0.01908714485
1482.000000,0.02186291008
1483.000000,0.02168841878
1484.000000,0.0196151198
1485.000000,0.02030158944
1486.000000,0.01864602895
1487.000000,0.01830326866
1488.000000,0.01962119683
1489.000000,0.01925260818
1490.000000,0.02075595147
1491.000000,0.01682205072
1492.000000,0.01814175484
1493.000000,0.01690331301
1494.000000,0.01743035933
1495.000000,0.01923131487
1496.000000,0.0173916497
1497.000000,0.01493418244
1498.000000,0.01539228386
1499.000000,0.01499161838
1500.000000,0.01549159939
1501.000000,0.01458752838
1502.000000,0.01479975087
1503.000000,0.01532315877
1504.000000,0.01618292385
1505.000000,0.01382470649
1506.000000,0.01551785475
1507.000000,0.01539606244
1508.000000,0.01687924279
1509.000000,0.01568297762
1510.000000,0.01614448931
1511.000000,0.0156257804
1512.000000,0.0172562394
1513.000000,0.01478630964
1514.000000,0.01213462645
1515.000000,0.01565413484
1516.000000,0.01308021912
1517.000000,0.01068871404
1518.000000,0.01586374741
1519.000000,0.01487469865
1520.000000,0.01532639135
1521.000000,0.01584013735
1522.000000,0.01464578458
1523.000000,0.01707191791
1524.000000,0.01516302965
1525.000000,0.01449342067
1526.000000,0.01517667644
1527.000000,0.01127729454
1528.000000,0.01620304842
1529.000000,0.01248740035
1530.000000,0.0161177814
1531.000000,0.01519011645
1532.000000,0.01567587846
1533.000000,0.0140847101
1534.000000,0.01892003052
1535.000000,0.01196000035
1536.000000,0.01571351036
1537.000000,0.01439503206
1538.000000,0.01321767109
1539.000000,0.01913819108
1540.000000,0.01693023761
1541.000000,0.02138306674
1542.000000,0.01843521984
1543.000000,0.01811792939
1544.000000,0.01847687027
1545.000000,0.01520661706
1546.000000,0.01541999699
1547.000000,0.0209331145
1548.000000,0.0200726659
1549.000000,0.01746908595
1550.000000,0.01944986868
1551.000000,0.01995824475
1552.000000,0.02240337637
1553.000000,0.02122540363
1554.000000,0.01977747904
1555.000000,0.02320935876
1556.000000,0.02128460847
1557.000000,0.02408513324
1558.000000,0.02265667623
1559.000000,0.01864457628
1560.000000,0.02863320179
1561.000000,0.02484493261
1562.000000,0.02970045684
1563.000000,0.03034081938
1564.000000,0.02965549809
1565.000000,0.03018074177
1566.000000,0.03802697894
1567.000000,0.03711172754
1568.000000,0.04178196242
1569.000000,0.04310752001
1570.000000,0.04796419415
1571.000000,0.05102469034
1572.000000,0.05346815846
1573.000000,0.06093155377
1574.000000,0.0711141048
1575.000000,0.07803918234
1576.000000,0.0920491906
1577.000000,0.1080334672
1578.000000,0.1296390942
1579.000000,0.1540003893
1580.000000,0.1737369592
1581.000000,0.2056660032
1582.000000,0.2303284428
1583.000000,0.2344568371
1584.000000,0.2301473853
1585.000000,0.2178849669
1586.000000,0.1945622519
1587.000000,0.1727567768
1588.000000,0.1578728269
1589.000000,0.1476533692
1590.000000,0.1404290053
1591.000000,0.1400065853
1592.000000,0.1437767617
1593.000000,0.1537200948
1594.000000,0.1693425128
1595.000000,0.1937064687
1596.000000,0.2269491636
1597.000000,0.2773985683
1598.000000,0.3401393664
1599.000000,0.4243483093
1600.000000,0.5199027848
1601.000000,0.6071510026
1602.000000,0.6439509677
1603.000000,0.6056540937
1604.000000,0.518559926
1605.000000,0.4150950492
1606.000000,0.3284993277
1607.000000,0.2571900115
1608.000000,0.208611658
1609.000000,0.1722256139
1610.000000,0.1421655218
1611.000000,0.1183235401
1612.000000,0.1028302803
1613.000000,0.08895388004
1614.000000,0.0759868545
1615.000000,0.06706516399
1616.000000,0.06011682241
1617.000000,0.05682596952
1618.000000,0.05214726241
1619.000000,0.04763607476
1620.000000,0.04283095655
1621.000000,0.04386570094
1622.000000,0.0372495679
1623.000000,0.03626337877
1624.000000,0.03366286854
1625.000000,0.03351421809
1626.000000,0.02677572265
1627.000000,0.02954649155
1628.000000,0.02694231262
1629.000000,0.02600834099
1630.000000,0.02317383784
1631.000000,0.02285696199
1632.000000,0.02570461723
1633.000000,0.02429421778
1634.000000,0.01923493783
1635.000000,0.02177837409
1636.000000,0.01980282712
1637.000000,0.0222226948
1638.000000,0.02054572628
1639.000000,0.02067995244
1640.000000,0.01869669783
1641.000000,0.01849937296
1642.000000,0.01680803271
1643.000000,0.01485027612
1644.000000,0.01629860882
1645.000000,0.01940294292
1646.000000,0.01933974849
1647.000000,0.0148651774
1648.000000,0.01465199533
1649.000000,0.01461531754
1650.000000,0.01432010867
1651.000000,0.01336435961
1652.000000,0.01408168478
1653.000000,0.0164332486
1654.000000,0.01640170139
1655.000000,0.01805819125
1656.000000,0.01437375975
1657.000000,0.01045455601
1658.000000,0.01331053468
1659.000000,0.01221253581
1660.000000,0.01345145538
1661.000000,0.01258010792
1662.000000,0.01569193744
1663.000000,0.01215247874
1664.000000,0.01364221577
1665.000000,0.01693523553
1666.000000,0.01340621443
1667.000000,0.01019856307
1668.000000,0.01494722479
1669.000000,0.01404584238
1670.000000,0.01410995392
1671.000000,0.01430401974
1672.000000,0.01112880095
1673.000000,0.01097103815
1674.000000,0.01306432573
1675.000000,0.009505469812
1676.000000,0.01106172828
1677.000000,0.01476713578
1678.000000,0.01012241077
1679.000000,0.01312802978
1680.000000,0.01441461623
1681.000000,0.01224136595
1682.000000,0.01145771874
1683.000000,0.01473037444
1684.000000,0.009613494144
1685.000000,0.01530301318
1686.000000,0.01042102181
1687.000000,0.01212689728
1688.000000,0.009948068723
1689.000000,0.009947322034
1690.000000,0.01381489008
1691.000000,0.01204468871
1692.000000,0.01285094765
1693.000000,0.009372731602
1694.000000,0.01112450306
1695.000000,0.009419679902
1696.000000,0.01167788922
1697.000000,0.01256821087
1698.000000,0.0126143397
1699.000000,0.0126134055
1700.000000,0.01036864291
1701.000000,0.01266634623
1702.000000,0.01072620546
1703.000000,0.01408520924
1704.000000,0.0111782441
1705.000000,0.01373705295
1706.000000,0.01077262032
1707.000000,0.01268030964
1708.000000,0.01183801518
1709.000000,0.008603171108
1710.000000,0.01262594165
1711.000000,0.009602365804
1712.000000,0.007929436931
1713.000000,0.01156123524
1714.000000,0.01341872764
1715.000000,0.01265274306
1716.000000,0.009634031925
1717.000000,0.007973763779
1718.000000,0.006113656104
1719.000000,0.009956617373
1720.000000,0.01016595591
1721.000000,0.01083152953
1722.000000,0.01346638038
1723.000000,0.01073027484
1724.000000,0.009037015632
1725.000000,0.008950571993
1726.000000,0.009246603224
1727.000000,0.009769356576
1728.000000,0.01164286043
1729.000000,0.0104097669
1730.000000,0.01085752094
1731.000000,0.01118150533
1732.000000,0.01137062897
1733.000000,0.01219606685
1734.000000,0.01317440303
1735.000000,0.009050952484
1736.000000,0.01037183738
1737.000000,0.01069726946
1738.000000,0.01061283708
1739.000000,0.01245110607
1740.000000,0.0122646787
1741.000000,0.00968026591
1742.000000,0.01403900932
1743.000000,0.01184982813
1744.000000,0.0121704975
1745.000000,0.009705157855
1746.000000,0.01233704284
1747.000000,0.01021963633
1748.000000,0.00901944519
1749.000000,0.01104507017
1750.000000,0.008867972031
1751.000000,0.008731155953
1752.000000,0.01164265205
1753.000000,0.01228643438
1754.000000,0.009466968994
1755.000000,0.01258045451
1756.000000,0.01297849601
1757.000000,0.01293127222
1758.000000,0.01138876803
1759.000000,0.01015918118
1760.000000,0.01365485175
1761.000000,0.01000566512
1762.000000,0.01162231079
1763.000000,0.01285016697
1764.000000,0.01396805698
1765.000000,0.01129142526
1766.000000,0.01122572727
1767.000000,0.01172562607
1768.000000,0.01114148846
1769.000000,0.01283459551
1770.000000,0.01274928924
1771.000000,0.01399269211
1772.000000,0.0106208634
1773.000000,0.01212577586
1774.000000,0.009369685037
1775.000000,0.00994177672
1776.000000,0.01341709037
1777.000000,0.01019987896
1778.000000,0.007111096687
1779.000000,0.009668446874
1780.000000,0.009694794924
1781.000000,0.007215824946
1782.000000,0.01104663252
1783.000000,0.01226005668
1784.000000,0.009679876292
1785.000000,0.01250418627
1786.000000,0.00673364471
1787.000000,0.01206353563
1788.000000,0.01061491352
1789.000000,0.01490765199
1790.000000,0.0106709426
1791.000000,0.01057642213
1792.000000,0.01057363256
1793.000000,0.009962335755
1794.000000,0.009893436721
1795.000000,0.01191923701
1796.000000,0.0111188718
1797.000000,0.01116753768
1798.000000,0.01112260041
1799.000000,0.009306547209
1800.000000,0.01416507705
1801.000000,0.008697590539
1802.000000,0.01234619536
1803.000000,0.01026412615
1804.000000,0.01254680776
1805.000000,0.0101563519
1806.000000,0.01263861383
1807.000000,0.01151411261
1808.000000,0.01279123868
1809.000000,0.01432542704
1810.000000,0.01098461414
1811.000000,0.0108742666
1812.000000,0.006069682575
1813.000000,0.01061786085
1814.000000,0.01226300487
1815.000000,0.01010396551
1816.000000,0.010692114
1817.000000,0.01026664447
1818.000000,0.00694240189
1819.000000,0.0121839646
1820.000000,0.00921425713
1821.000000,0.008010204085
1822.000000,0.01240199682
1823.000000,0.01130051343
1824.000000,0.01161888786
1825.000000,0.01079550234
1826.000000,0.009320233446
1827.000000,0.01222610644
1828.000000,0.00892767619
1829.000000,0.01102791125
1830.000000,0.008675377516
1831.000000,0.008478704276
1832.000000,0.01207133335
1833.000000,0.009087217168
1834.000000,0.01353501471
1835.000000,0.008108752775
1836.000000,0.01253645721
1837.000000,0.009984967843
1838.000000,0.01198499542
1839.000000,0.01184684932
1840.000000,0.007130849481
1841.000000,0.01167526112
1842.000000,0.009943827223
1843.000000,0.008774354839
1844.000000,0.01248257481
1845.000000,0.01121608355
1846.000000,0.01129901184
1847.000000,0.01314368027
1848.000000,0.01241750233
1849.000000,0.01070146733
1850.000000,0.009007453599
1851.000000,0.01326036679
1852.000000,0.009305581179
1853.000000,0.007519939373
1854.000000,0.01410044631
1855.000000,0.01441365202
1856.000000,0.007464636708
1857.000000,0.01121583773
1858.000000,0.007861386999
1859.000000,0.01170353764
1860.000000,0.009662686802
1861.000000,0.007898407731
1862.000000,0.01228839254
1863.000000,0.008876111369
1864.000000,0.01124924501
1865.000000,0.009250210919
1866.000000,0.01369445374
1867.000000,0.01251482114
1868.000000,0.009660466097
1869.000000,0.006475964201
1870.000000,0.01118176181
1871.000000,0.008732072947
1872.000000,0.01270533918
1873.000000,0.01342718688
1874.000000,0.01050347693
1875.000000,0.01217130431
1876.000000,0.008016298532
1877.000000,0.01155648893
1878.000000,0.01353905798
1879.000000,0.007883328139
1880.000000,0.01182906405
1881.000000,0.01089992129
1882.000000,0.01206081851
1883.000000,0.01054086327
1884.000000,0.01027868962
1885.000000,0.01265246796
1886.000000,0.0104686462
1887.000000,0.01129094239
1888.000000,0.007844386199
1889.000000,0.01112747957
1890.000000,0.01167844852
1891.000000,0.01011296999
1892.000000,0.01029335031
1893.000000,0.006646426647
1894.000000,0.008421443856
1895.000000,0.009868586875
1896.000000,0.009778094092
1897.000000,0.01443400158
1898.000000,0.0118167217
1899.000000,0.008131291976
1900.000000,0.01462000509
1901.000000,0.007735517789
1902.000000,0.008190054941
1903.000000,0.008700314978
1904.000000,0.01024093217
1905.000000,0.01519210422
1906.000000,0.009856653124
1907.000000,0.01137756881
1908.000000,0.007596856585
1909.000000,0.009507443456
1910.000000,0.01517097589
1911.000000,0.01280897933
1912.000000,0.01207921238
1913.000000,0.01322410818
1914.000000,0.01143228534
1915.000000,0.01136895757
1916.000000,0.00832322254
1917.000000,0.007515525916
1918.000000,0.009094999129
1919.000000,0.009727010276
1920.000000,0.008828196818
1921.000000,0.01170455204
1922.000000,0.01381359418
1923.000000,0.01032713581
1924.000000,0.007386716726
1925.000000,0.0080011329
1926.000000,0.0123360116
1927.000000,0.01185703338
1928.000000,0.01079130126
1929.000000,0.011573212
1930.000000,0.0125036098
1931.000000,0.01043662897
1932.000000,0.01093475297
1933.000000,0.009692587215
1934.000000,0.006582306148
1935.000000,0.01054341739
1936.000000,0.01026425613
1937.000000,0.01108594688
1938.000000,0.009275548312
1939.000000,0.01109954571
1940.000000,0.01104786077
1941.000000,0.00950343826
1942.000000,0.008385345738
1943.000000,0.008979596436
1944.000000,0.01094449548
1945.000000,0.01195392304
1946.000000,0.01377477292
1947.000000,0.01011124103
1948.000000,0.01125371759
1949.000000,0.01259954001
1950.000000,0.00837375516
1951.000000,0.01149263751
1952.000000,0.009408714115
1953.000000,0.009566598811
1954.000000,0.01175376145
1955.000000,0.009834038366
1956.000000,0.0109286762
1957.000000,0.008156578884
1958.000000,0.01016062546
1959.000000,0.008601826585
1960.000000,0.009692097443
1961.000000,0.01576857383
1962.000000,0.01032619662
1963.000000,0.009867372396
1964.000000,0.009514707928
1965.000000,0.008792136749
1966.000000,0.01377118881
1967.000000,0.008944250478
1968.000000,0.01491773261
1969.000000,0.009858123184
1970.000000,0.01268194308
1971.000000,0.01051362529
1972.000000,0.009042765271
1973.000000,0.009919063762
1974.000000,0.01285782463
1975.000000,0.00995151433
1976.000000,0.00651364317
1977.000000,0.01394032959
1978.000000,0.008908590874
1979.000000,0.009633688368
1980.000000,0.01313729942
1981.000000,0.006991851961
1982.000000,0.009282413268
1983.000000,0.01151159371
1984.000000,0.01150406054
1985.000000,0.01139308614
1986.000000,0.008389493472
1987.000000,0.01209266079
1988.000000,0.009382806535
1989.000000,0.01062982211
1990.000000,0.008450467592
1991.000000,0.0136727602
1992.000000,0.009535980443
1993.000000,0.01012655438
1994.000000,0.009196488661
1995.000000,0.01104548434
1996.000000,0.007638704365
1997.000000,0.01008356638
1998.000000,0.009832288251
1999.000000,0.01347518485
2000.000000,0.009625381965
