raman_shift_cm-1,intensity
200.000000,0.007277981384
201.000000,0.007665420508
202.000000,0.007469123902
203.000000,0.008828514786
204.000000,0.01296867055
205.000000,0.006871708527
206.000000,0.01196250244
207.000000,0.01259973577
208.000000,0.009364100333
209.000000,0.008673380299
210.000000,0.01101971385
211.000000,0.01250483333
212.000000,0.01438701522
213.000000,0.01185981159
214.000000,0.01326411117
215.000000,0.00917608123
216.000000,0.008328470237
217.000000,0.006637598858
218.000000,0.007769982686
219.000000,0.009350764263
220.000000,0.01046386633
221.000000,0.007451922292
222.000000,0.01171054311
223.000000,0.009872522821
224.000000,0.008794469272
225.000000,0.008548546074
226.000000,0.01412075366
227.000000,0.01041808881
228.000000,0.008284035476
229.000000,0.008172181861
230.000000,0.0137560547
231.000000,0.008923964907
232.000000,0.01245833725
233.000000,0.0129277407
234.000000,0.005432655622
235.000000,0.01278367506
236.000000,0.009665129494
237.000000,0.007914006635
238.000000,0.008994850548
239.000000,0.01120460021
240.000000,0.01083103661
241.000000,0.01093438823
242.000000,0.008633846005
243.000000,0.01264208542
244.000000,0.01308846013
245.000000,0.01375260988
246.000000,0.01208569232
247.000000,0.01387368261
248.000000,0.01427319564
249.000000,0.01149414367
250.000000,0.01184824761
251.000000,0.0112506351
252.000000,0.01118936095
253.000000,0.01181329829
254.000000,0.006669144312
255.000000,0.009439812115
256.000000,0.01106342495
257.000000,0.005873353823
258.000000,0.007204641171
259.000000,0.01325762711
260.000000,0.007970615475
261.000000,0.009160558249
262.000000,0.01083980526
263.000000,0.009137919961
264.000000,0.00836860348
265.000000,0.009058382114
266.000000,0.009234448332
267.000000,0.008931551317
268.000000,0.0104562221
269.000000,0.01331145125
270.000000,0.01080476226
271.000000,0.01334209901
272.000000,0.0115721495
273.000000,0.01176533268
274.000000,0.01126682211
275.000000,0.009496019658
276.000000,0.01093746145
277.000000,0.01070038784
278.000000,0.007870218124
279.000000,0.01159173613
280.000000,0.01125101446
281.000000,0.01083292422
282.000000,0.008979361224
283.000000,0.004829883172
284.000000,0.01303193529
285.000000,0.009956776536
286.000000,0.005742915797
287.000000,0.01139750079
288.000000,0.008699693773
289.000000,0.01147267072
290.000000,0.009895521782
291.000000,0.0123681781
292.000000,0.01056686979
293.000000,0.01065941901
294.000000,0.01040066368
295.000000,0.01256240134
296.000000,0.007509718948
297.000000,0.01245572657
298.000000,0.01147997213
299.000000,0.008993948658
300.000000,0.01009849402
301.000000,0.009210561556
302.000000,0.01022268563
303.000000,0.01198507141
304.000000,0.008746210528
305.000000,0.0115915549
306.000000,0.01198704319
307.000000,0.0113805928
308.000000,0.01323227965
309.000000,0.009963001313
310.000000,0.01149309523
311.000000,0.01506487271
312.000000,0.01016532653
313.000000,0.009830366722
314.000000,0.01011787922
315.000000,0.01128289845
316.000000,0.008873650098
317.000000,0.00962027849
318.000000,0.006601333574
319.000000,0.008012494429
320.000000,0.008069680787
321.000000,0.007792257622
322.000000,0.009224562165
323.000000,0.0115002877
324.000000,0.009347467559
325.000000,0.007467926285
326.000000,0.01059939554
327.000000,0.01045433161
328.000000,0.007312352441
329.000000,0.01041315795
330.000000,0.007970082392
331.000000,0.00885242192
332.000000,0.008642265237
333.000000,0.01175882255
334.000000,0.008466753842
335.000000,0.009476415528
336.000000,0.01048181879
337.000000,0.01218308005
338.000000,0.01248171438
339.000000,0.008080450305
340.000000,0.01248907593
341.000000,0.01071754746
342.000000,0.01251158549
343.000000,0.01222876378
344.000000,0.009058323363
345.000000,0.0102009888
346.000000,0.009536022555
347.000000,0.01087226293
348.000000,0.01343323433
349.000000,0.01023620637
350.000000,0.008799966503
351.000000,0.01519589654
352.000000,0.008140838101
353.000000,0.01013126328
354.000000,0.01010087391
355.000000,0.007590330876
356.000000,0.01171545111
357.000000,0.01225816875
358.000000,0.009969403614
359.000000,0.01024852627
360.000000,0.00980846993
361.000000,0.006612135652
362.000000,0.01062257835
363.000000,0.007649671378
364.000000,0.008223401454
365.000000,0.01093138558
366.000000,0.01198813198
367.000000,0.008405164513
368.000000,0.01242002237
369.000000,0.01367390174
370.000000,0.01048449728
371.000000,0.009990716297
372.000000,0.01054994639
373.000000,0.009343689954
374.000000,0.008440591986
375.000000,0.01143752385
376.000000,0.01158731713
377.000000,0.009151360013
378.000000,0.009344785854
379.000000,0.008910136777
380.000000,0.008754722278
381.000000,0.008221766483
382.000000,0.007147498265
383.000000,0.01196183517
384.000000,0.009457926034
385.000000,0.01029453446
386.000000,0.01373611114
387.000000,0.009190178163
388.000000,0.01131067061
389.000000,0.007467088291
390.000000,0.008910782515
391.000000,0.01154233809
392.000000,0.009637016385
393.000000,0.007304537117
394.000000,0.007099281621
395.000000,0.01082328019
396.000000,0.008298747453
397.000000,0.01150375526
398.000000,0.01069585663
399.000000,0.009514836677
400.000000,0.0100188825
401.000000,0.01164272195
402.000000,0.01021665762
403.000000,0.008269750447
404.000000,0.01081362769
405.000000,0.009452757725
406.000000,0.009696303774
407.000000,0.01128507061
408.000000,0.01080564204
409.000000,0.01217058077
410.000000,0.00979186809
411.000000,0.009259821383
412.000000,0.009491097498
413.000000,0.01090825165
414.000000,0.008577376538
415.000000,0.00945640535
416.000000,0.008504692502
417.000000,0.008640644475
418.000000,0.009821407686
419.000000,0.0149250273
420.000000,0.009425120911
421.000000,0.01068625084
422.000000,0.01036735489
423.000000,0.009840663051
424.000000,0.01024622512
425.000000,0.01402763227
426.000000,0.009678441033
427.000000,0.01333178754
428.000000,0.0114631548
429.000000,0.008494524365
430.000000,0.008927923418
431.000000,0.009297830932
432.000000,0.008076268829
433.000000,0.01244670772
434.000000,0.01101045682
435.000000,0.01123939498
436.000000,0.008201670655
437.000000,0.01111981445
438.000000,0.009163483321
439.000000,0.01495630799
440.000000,0.01003748986
441.000000,0.01076937235
442.000000,0.01102810745
443.000000,0.009294949399
444.000000,0.009459999635
445.000000,0.009456255683
446.000000,0.0118866546
447.000000,0.008807109916
448.000000,0.009917516826
449.000000,0.01087233093
450.000000,0.009435447055
451.000000,0.007572980643
452.000000,0.007912637965
453.000000,0.009426539781
454.000000,0.0083541494
455.000000,0.01211495757
456.000000,0.01026925902
457.000000,0.01018916512
458.000000,0.008277070158
459.000000,0.01126310808
460.000000,0.009547978145
461.000000,0.008392852085
462.000000,0.009002604645
463.000000,0.01487943405
464.000000,0.009065837243
465.000000,0.008562874627
466.000000,0.0124905178
467.000000,0.01168804316
468.000000,0.009699339481
469.000000,0.01293521223
470.000000,0.007412069426
471.000000,0.009329300419
472.000000,0.007075848796
473.000000,0.01291544861
474.000000,0.01034514468
475.000000,0.0152910546
476.000000,0.01115836458
477.000000,0.01119013145
478.000000,0.008071806172
479.000000,0.007968481123
480.000000,0.009309672877
481.000000,0.01200194367
482.000000,0.008221472617
483.000000,0.005617475852
484.000000,0.01188069236
485.000000,0.01199605212
486.000000,0.008438412415
487.000000,0.01106873271
488.000000,0.01238503056
489.000000,0.01248029428
490.000000,0.007159953575
491.000000,0.01032452876
492.000000,0.008697445583
493.000000,0.01206452603
494.000000,0.01037210292
495.000000,0.007841484462
496.000000,0.01038972901
497.000000,0.0113406576
498.000000,0.007168564621
499.000000,0.007547022445
500.000000,0.008858441241
501.000000,0.009583801316
502.000000,0.009071185543
503.000000,0.006608453861
504.000000,0.007124977486
505.000000,0.01010555984
506.000000,0.01098918911
507.000000,0.008458798572
508.000000,0.01052439708
509.000000,0.01388120176
510.000000,0.009810970695
511.000000,0.00937149056
512.000000,0.008868086399
513.000000,0.01117932831
514.000000,0.01072271265
515.000000,0.01078169467
516.000000,0.009573511728
517.000000,0.01112486937
518.000000,0.01114577686
519.000000,0.01007023864
520.000000,0.01262806385
521.000000,0.007338881318
522.000000,0.01178974414
523.000000,0.01016509116
524.000000,0.01207169346
525.000000,0.01416356645
526.000000,0.01055757316
527.000000,0.01010364515
528.000000,0.01045262226
529.000000,0.01322155569
530.000000,0.01354848472
531.000000,0.01087424153
532.000000,0.01183200191
533.000000,0.0141072784
534.000000,0.01165985634
535.000000,0.007682146393
536.000000,0.009039620831
537.000000,0.009709636406
538.000000,0.01144951426
539.000000,0.009592821521
540.000000,0.01344459254
541.000000,0.009804794451
542.000000,0.01384089967
543.000000,0.009491421126
544.000000,0.01344802767
545.000000,0.01119885618
546.000000,0.0136483427
547.000000,0.01473267056
548.000000,0.01434871641
549.000000,0.01298424913
550.000000,0.009489076036
551.000000,0.009390870051
552.000000,0.004753470709
553.000000,0.01394948356
554.000000,0.0135740976
555.000000,0.01312780568
556.000000,0.008910214633
557.000000,0.01662220746
558.000000,0.009890029293
559.000000,0.01296572573
560.000000,0.008092158747
561.000000,0.01011936225
562.000000,0.01379667838
563.000000,0.01345029267
564.000000,0.009315837348
565.000000,0.01133140746
566.000000,0.01376374983
567.000000,0.00794995879
568.000000,0.01316193692
569.000000,0.008624825339
570.000000,0.01299585941
571.000000,0.01128890121
572.000000,0.01381043343
573.000000,0.01089899524
574.000000,0.01128500496
575.000000,0.01134582467
576.000000,0.01022100523
577.000000,0.01163832244
578.000000,0.01025946092
579.000000,0.01125064061
580.000000,0.01382124438
581.000000,0.01193848901
582.000000,0.01483370557
583.000000,0.0142425168
584.000000,0.01462886811
585.000000,0.01087948699
586.000000,0.01413702491
587.000000,0.01636369884
588.000000,0.01550975395
589.000000,0.01637269455
590.000000,0.01720291592
591.000000,0.01145022363
592.000000,0.01589055004
593.000000,0.01618227391
594.000000,0.01507538756
595.000000,0.0132714078
596.000000,0.01663352973
597.000000,0.01655009546
598.000000,0.02134208058
599.000000,0.02074297284
600.000000,0.01809453033
601.000000,0.01770098994
602.000000,0.01914177019
603.000000,0.02192546725
604.000000,0.0219968604
605.000000,0.02903938646
606.000000,0.0247335916
607.000000,0.02933500399
608.000000,0.0327382724
609.000000,0.03689286386
610.000000,0.03873443822
611.000000,0.04582245048
612.000000,0.05389979019
613.000000,0.06356769592
614.000000,0.0739258805
615.000000,0.09023394379
616.000000,0.1112811921
617.000000,0.138717053
618.000000,0.1582213188
619.000000,0.1832254348
620.000000,0.1934583021
621.000000,0.1790840389
622.000000,0.1635199072
623.000000,0.1377581875
624.000000,0.1110369655
625.000000,0.09283234799
626.000000,0.07811938785
627.000000,0.06272494373
628.000000,0.05411749402
629.000000,0.04428178138
630.000000,0.0393563608
631.000000,0.03637094836
632.000000,0.03244735204
633.000000,0.0329060934
634.000000,0.02686607672
635.000000,0.02291651625
636.000000,0.02541871628
637.000000,0.02408407033
638.000000,0.02184974074
639.000000,0.01976706016
640.000000,0.01758992295
641.000000,0.01710407602
642.000000,0.02074062419
643.000000,0.01868111071
644.000000,0.01681566628
645.000000,0.01698158343
646.000000,0.01505398827
647.000000,0.013536022
648.000000,0.01410152521
649.000000,0.01463036703
650.000000,0.01120534292
651.000000,0.01134816255
652.000000,0.01054692783
653.000000,0.01287005907
654.000000,0.01478011692
655.000000,0.0107325708
656.000000,0.01095291017
657.000000,0.009873752539
658.000000,0.0119894815
659.000000,0.01041864338
660.000000,0.01065821951
661.000000,0.01035699235
662.000000,0.01690904851
663.000000,0.0121639285
664.000000,0.01095948114
665.000000,0.01128239065
666.000000,0.01383129552
667.000000,0.01397044589
668.000000,0.0125078387
669.000000,0.008016318989
670.000000,0.0138174597
671.000000,0.01393346574
672.000000,0.01330772043
673.000000,0.01266462398
674.000000,0.01183621257
675.000000,0.01402677857
676.000000,0.01100944962
677.000000,0.01364816818
678.000000,0.01059640135
679.000000,0.01075763128
680.000000,0.01061115563
681.000000,0.01035920925
682.000000,0.01046676966
683.000000,0.01291494394
684.000000,0.01448638439
685.000000,0.009972469216
686.000000,0.009286085756
687.000000,0.01381188583
688.000000,0.01065173892
689.000000,0.01184751599
690.000000,0.01158463916
691.000000,0.01307262357
692.000000,0.009503550875
693.000000,0.01351507225
694.000000,0.01281678684
695.000000,0.006861311157
696.000000,0.01089412952
697.000000,0.01044866778
698.000000,0.01195065378
699.000000,0.01106424899
700.000000,0.009690270329
701.000000,0.0104886018
702.000000,0.01186378898
703.000000,0.01124919998
704.000000,0.01085682587
705.000000,0.01556220837
706.000000,0.01221411351
707.000000,0.008949399939
708.000000,0.01140029458
709.000000,0.01181240365
710.000000,0.009204009231
711.000000,0.01139974612
712.000000,0.009507578543
713.000000,0.006774760816
714.000000,0.01186801283
715.000000,0.01243963834
716.000000,0.01242606721
717.000000,0.01091941026
718.000000,0.01004634032
719.000000,0.01169717263
720.000000,0.01208831915
721.000000,0.01307149236
722.000000,0.01392043252
723.000000,0.01288443575
724.000000,0.01015495278
725.000000,0.01120930926
726.000000,0.008554805088
727.000000,0.01277531398
728.000000,0.01252535573
729.000000,0.01375526907
730.000000,0.01238834987
731.000000,0.01455642455
732.000000,0.01009686325
733.000000,0.01215631748
734.000000,0.01103609182
735.000000,0.01111919798
736.000000,0.008080981089
737.000000,0.01013254188
738.000000,0.007699521814
739.000000,0.01101040575
740.000000,0.01031908116
741.000000,0.01199407864
742.000000,0.008163794642
743.000000,0.01077521326
744.000000,0.0113435884
745.000000,0.007331205749
746.000000,0.0151710817
747.000000,0.01293851217
748.000000,0.01053114454
749.000000,0.01583589391
750.000000,0.01485112161
751.000000,0.007361096413
752.000000,0.01174146022
753.000000,0.01118407529
754.000000,0.01259956331
755.000000,0.01073209705
756.000000,0.0122066356
757.000000,0.0129934594
758.000000,0.008024310417
759.000000,0.0133477079
760.000000,0.01604013727
761.000000,0.01367258661
762.000000,0.01588614845
763.000000,0.01695099488
764.000000,0.0146059176
765.000000,0.01505165884
766.000000,0.01534430482
767.000000,0.01399262056
768.000000,0.0196645713
769.000000,0.01639575437
770.000000,0.01702336498
771.000000,0.01824566065
772.000000,0.01978166196
773.000000,0.01470565729
774.000000,0.01599520296
775.000000,0.01902212862
776.000000,0.02058674024
777.000000,0.01808216778
778.000000,0.01883661882
779.000000,0.02433755342
780.000000,0.02570536917
781.000000,0.02542160276
782.000000,0.02745515689
783.000000,0.02920023722
784.000000,0.03104950768
785.000000,0.03517321188
786.000000,0.04153762684
787.000000,0.04606075138
788.000000,0.05469438852
789.000000,0.05779217266
790.000000,0.06605029719
791.000000,0.08076306152
792.000000,0.08852660849
793.000000,0.09976529785
794.000000,0.1077397049
795.000000,0.1078784762
796.000000,0.1046231824
797.000000,0.1009014032
798.000000,0.0849662154
799.000000,0.08082287262
800.000000,0.0658394757
801.000000,0.06195136033
802.000000,0.05332047397
803.000000,0.04681854938
804.000000,0.04210056095
805.000000,0.03710806962
806.000000,0.0305666227
807.000000,0.03200772355
808.000000,0.02819013759
809.000000,0.02681786858
810.000000,0.023916737
811.000000,0.0222022295
812.000000,0.02330145936
813.000000,0.02226454413
814.000000,0.01993450178
815.000000,0.01627575179
816.000000,0.01610677171
817.000000,0.01534406736
818.000000,0.01902866782
819.000000,0.01734284381
820.000000,0.01605647772
821.000000,0.01525737048
822.000000,0.01374872792
823.000000,0.01652989743
824.000000,0.0125720434
825.000000,0.01270598429
826.000000,0.01584645444
827.000000,0.01522098837
828.000000,0.01365183205
829.000000,0.01110452789
830.000000,0.01095259356
831.000000,0.0150064168
832.000000,0.01394141675
833.000000,0.01603201111
834.000000,0.01203875112
835.000000,0.01271159494
836.000000,0.01090663148
837.000000,0.01597092713
838.000000,0.009259869864
839.000000,0.01375715623
840.000000,0.01566476048
841.000000,0.01049349547
842.000000,0.00946670622
843.000000,0.01025951282
844.000000,0.009380193172
845.000000,0.0128498059
846.000000,0.01192406337
847.000000,0.01025587432
848.000000,0.01145998373
849.000000,0.01498758899
850.000000,0.01144538212
851.000000,0.01112121336
852.000000,0.01574608274
853.000000,0.01007590002
854.000000,0.01088879961
855.000000,0.01471692752
856.000000,0.01183090297
857.000000,0.007928738087
858.000000,0.009971524308
859.000000,0.007185296503
860.000000,0.01035454624
861.000000,0.01225986821
862.000000,0.00831927967
863.000000,0.01463791182
864.000000,0.01408188696
865.000000,0.01315024619
866.000000,0.01007761733
867.000000,0.011586293
868.000000,0.01262520452
869.000000,0.0134253797
870.000000,0.01405913505
871.000000,0.007181861271
872.000000,0.01007153648
873.000000,0.009169714106
874.000000,0.01080556213
875.000000,0.01189874556
876.000000,0.01606873993
877.000000,0.01128615078
878.000000,0.01328995807
879.000000,0.01169981348
880.000000,0.01140861363
881.000000,0.01497546725
882.000000,0.009258795118
883.000000,0.01283988384
884.000000,0.01564416601
885.000000,0.01835816507
886.000000,0.01047734823
887.000000,0.009649860817
888.000000,0.008999399065
889.000000,0.0107048772
890.000000,0.01153273367
891.000000,0.01157052293
892.000000,0.01381152709
893.000000,0.01092862578
894.000000,0.01220770386
895.000000,0.008260152607
896.000000,0.010258325
897.000000,0.01128865527
898.000000,0.006863364979
899.000000,0.01186304488
900.000000,0.01340802837
901.000000,0.01181107392
902.000000,0.01210792848
903.000000,0.01168243028
904.000000,0.009314872067
905.000000,0.01182256147
906.000000,0.01062469503
907.000000,0.01196093632
908.000000,0.01193987686
909.000000,0.0120597048
910.000000,0.009199092914
911.000000,0.01175255402
912.000000,0.01540713543
913.000000,0.01380585487
914.000000,0.01148764526
915.000000,0.01051699602
916.000000,0.01399703973
917.000000,0.01203619612
918.000000,0.008508603032
919.000000,0.01120588644
920.000000,0.01551556895
921.000000,0.008777658553
922.000000,0.01233032846
923.000000,0.0107245811
924.000000,0.01214432292
925.000000,0.01148415667
926.000000,0.01059060835
927.000000,0.007227750938
928.000000,0.01201238144
929.000000,0.01255968193
930.000000,0.01227791925
931.000000,0.01046114308
932.000000,0.01142461682
933.000000,0.01718345677
934.000000,0.01052703014
935.000000,0.01220008398
936.000000,0.01041830045
937.000000,0.01255786973
938.000000,0.0135891944
939.000000,0.01561800174
940.000000,0.01371754205
941.000000,0.01337320818
942.000000,0.01419517784
943.000000,0.01471091295
944.000000,0.0136133853
945.000000,0.01375983846
946.000000,0.01638931313
947.000000,0.01261318979
948.000000,0.01401715813
949.000000,0.01247471888
950.000000,0.01343222735
951.000000,0.01762048561
952.000000,0.01337584805
953.000000,0.01599802571
954.000000,0.0194046228
955.000000,0.01641261185
956.000000,0.01524649446
957.000000,0.01423093892
958.000000,0.01091848739
959.000000,0.01437043136
960.000000,0.01470420304
961.000000,0.01878140885
962.000000,0.01857212977
963.000000,0.01490591849
964.000000,0.01912906413
965.000000,0.01699749094
966.000000,0.02238674852
967.000000,0.02216633793
968.000000,0.02106590618
969.000000,0.01949498406
970.000000,0.02446846002
971.000000,0.02336764787
972.000000,0.02468690936
973.000000,0.02427864534
974.000000,0.02359749396
975.000000,0.02672117491
976.000000,0.02459735149
977.000000,0.02912060563
978.000000,0.02930782963
979.000000,0.02721535168
980.000000,0.03333239193
981.000000,0.0343318395
982.000000,0.0360580362
983.000000,0.03945690123
984.000000,0.04445894699
985.000000,0.04446897557
986.000000,0.04920385071
987.000000,0.05837972887
988.000000,0.0640615957
989.000000,0.0686067941
990.000000,0.08286528221
991.000000,0.09269603715
992.000000,0.1151001567
993.000000,0.1377244242
994.000000,0.1702073171
995.000000,0.2111814184
996.000000,0.2775941895
997.000000,0.3764357554
998.000000,0.5121528759
999.000000,0.7085979858
1000.000000,0.9151296619
1001.000000,1.016210819
1002.000000,0.914644538
1003.000000,0.7102452908
1004.000000,0.5180128915
1005.000000,0.3794711224
1006.000000,0.2880492704
1007.000000,0.2186209173
1008.000000,0.1751394425
1009.000000,0.1418710821
1010.000000,0.1251970127
1011.000000,0.1046877182
1012.000000,0.09492611835
1013.000000,0.08221476657
1014.000000,0.07751673979
1015.000000,0.07468546426
1016.000000,0.07151360291
1017.000000,0.06853349524
1018.000000,0.07082625281
1019.000000,0.07063930023
1020.000000,0.07552238068
1021.000000,0.07784622149
1022.000000,0.08697428155
1023.000000,0.09529386249
1024.000000,0.1138080941
1025.000000,0.1325513171
1026.000000,0.1629723823
1027.000000,0.2046644812
1028.000000,0.2669005615
1029.000000,0.3388472639
1030.000000,0.4090132864
1031.000000,0.4431264017
1032.000000,0.4066297853
1033.000000,0.3378828997
1034.000000,0.2639069997
1035.000000,0.1969771399
1036.000000,0.1578005728
1037.000000,0.125209235
1038.000000,0.1015148803
1039.000000,0.08496605075
1040.000000,0.06919610733
1041.000000,0.06301338641
1042.000000,0.05498072283
1043.000000,0.04561271252
1044.000000,0.0434373184
1045.000000,0.03751063439
1046.000000,0.03690020698
1047.000000,0.03223606068
1048.000000,0.03195860317
1049.000000,0.02693878539
1050.000000,0.02704700318
1051.000000,0.02585326357
1052.000000,0.02498647283
1053.000000,0.02658108015
1054.000000,0.02768203077
1055.000000,0.01941780254
1056.000000,0.02336255963
1057.000000,0.02044749195
1058.000000,0.01979883737
1059.000000,0.0192015804
1060.000000,0.01900088065
1061.000000,0.01867022
1062.000000,0.02009212889
1063.000000,0.02059494631
1064.000000,0.01841337685
1065.000000,0.01747767418
1066.000000,0.01823099145
1067.000000,0.01762052435
1068.000000,0.02018262922
1069.000000,0.01443088057
1070.000000,0.01333872846
1071.000000,0.01535554431
1072.000000,0.01629036134
1073.000000,0.0150611007
1074.000000,0.01576505607
1075.000000,0.01002672651
1076.000000,0.01346506243
1077.000000,0.01352706479
1078.000000,0.0120396953
1079.000000,0.01337767367
1080.000000,0.01399046327
1081.000000,0.01510875781
1082.000000,0.01240528351
1083.000000,0.01085200198
1084.000000,0.01484887685
1085.000000,0.01777749709
1086.000000,0.01420206958
1087.000000,0.01407909633
1088.000000,0.01182643611
1089.000000,0.01414691898
1090.000000,0.01679510136
1091.000000,0.009773674917
1092.000000,0.01560770683
1093.000000,0.009729034173
1094.000000,0.01649574752
1095.000000,0.01516921795
1096.000000,0.01293193785
1097.000000,0.01409177143
1098.000000,0.01680139572
1099.000000,0.01142637003
1100.000000,0.01586978234
1101.000000,0.01471322024
1102.000000,0.01357994434
1103.000000,0.01644371549
1104.000000,0.01038396076
1105.000000,0.01340701994
1106.000000,0.01131870443
1107.000000,0.01360579267
1108.000000,0.01479863205
1109.000000,0.01062880595
1110.000000,0.01439019654
1111.000000,0.01445812037
1112.000000,0.01280507194
1113.000000,0.01387510112
1114.000000,0.01625499393
1115.000000,0.01482288691
1116.000000,0.01751084448
1117.000000,0.01234283419
1118.000000,0.01205888591
1119.000000,0.01700734629
1120.000000,0.01216657428
1121.000000,0.01735529838
1122.000000,0.01511046273
1123.000000,0.01665623894
1124.000000,0.0148750571
1125.000000,0.01784048258
1126.000000,0.0186809705
1127.000000,0.01873865786
1128.000000,0.01766040422
1129.000000,0.01446365684
1130.000000,0.0193693298
1131.000000,0.01813690692
1132.000000,0.02104079748
1133.000000,0.01606411966
1134.000000,0.02056612931
1135.000000,0.01958364467
1136.000000,0.02125168803
1137.000000,0.02402527945
1138.000000,0.02508240675
1139.000000,0.0276171542
1140.000000,0.0273307221
1141.000000,0.02938269853
1142.000000,0.03119759394
1143.000000,0.03105495046
1144.000000,0.03873758056
1145.000000,0.03912399852
1146.000000,0.04481861761
1147.000000,0.05307103537
1148.000000,0.05896401076
1149.000000,0.0695601038
1150.000000,0.07831936309
1151.000000,0.09696076648
1152.000000,0.1141966933
1153.000000,0.1330380112
1154.000000,0.1494141855
1155.000000,0.1533940796
1156.000000,0.1484831832
1157.000000,0.1352786285
1158.000000,0.1195749147
1159.000000,0.1024432681
1160.000000,0.08613088662
1161.000000,0.07260228276
1162.000000,0.06518393422
1163.000000,0.05541167034
1164.000000,0.04991630448
1165.000000,0.04652970457
1166.000000,0.0417469122
1167.000000,0.03823473668
1168.000000,0.03640394943
1169.000000,0.03734153964
1170.000000,0.0381162074
1171.000000,0.03935658598
1172.000000,0.0376918688
1173.000000,0.04151593376
1174.000000,0.04399136164
1175.000000,0.04707806569
1176.000000,0.05837584217
1177.000000,0.05952067762
1178.000000,0.06927697872
1179.000000,0.08401126479
1180.000000,0.1023560347
1181.000000,0.1153852864
1182.000000,0.1324894915
1183.000000,0.1332603417
1184.000000,0.1285340292
1185.000000,0.1145269387
1186.000000,0.09704051629
1187.000000,0.08138607927
1188.000000,0.06756862347
1189.000000,0.05669873802
1190.000000,0.0469056285
1191.000000,0.04339588164
1192.000000,0.03755826414
1193.000000,0.03403057386
1194.000000,0.03273315393
1195.000000,0.02891770951
1196.000000,0.02635589996
1197.000000,0.02693032399
1198.000000,0.02194141575
1199.000000,0.01858916358
1200.000000,0.01947681188
1201.000000,0.01735008356
1202.000000,0.01847355277
1203.000000,0.01784814938
1204.000000,0.01759145711
1205.000000,0.01775731078
1206.000000,0.01796668035
1207.000000,0.01718793388
1208.000000,0.01628662775
1209.000000,0.0150956097
1210.000000,0.01442932255
1211.000000,0.0150665876
1212.000000,0.01435709248
1213.000000,0.01255695038
1214.000000,0.0136254292
1215.000000,0.01554897475
1216.000000,0.01415042301
1217.000000,0.01231124104
1218.000000,0.01419213204
1219.000000,0.01480323395
1220.000000,0.01144626826
1221.000000,0.01652865078
1222.000000,0.01544630929
1223.000000,0.01289040539
1224.000000,0.01521010069
1225.000000,0.01351019034
1226.000000,0.01413264306
1227.000000,0.01120651977
1228.000000,0.01188130559
1229.000000,0.01229376108
1230.000000,0.01247535351
1231.000000,0.01168203462
1232.000000,0.009556136568
1233.000000,0.01038498885
1234.000000,0.01323380213
1235.000000,0.01161022982
1236.000000,0.01545079999
1237.000000,0.01479850833
1238.000000,0.0117793211
1239.000000,0.01253995864
1240.000000,0.008674378512
1241.000000,0.01339618012
1242.000000,0.01411536979
1243.000000,0.01056662544
1244.000000,0.01051326572
1245.000000,0.01087012168
1246.000000,0.01327573043
1247.000000,0.0138299413
1248.000000,0.01001453044
1249.000000,0.01111200597
1250.000000,0.01279951725
1251.000000,0.01218948162
1252.000000,0.01120150868
1253.000000,0.01270949045
1254.000000,0.0100312676
1255.000000,0.008927372639
1256.000000,0.01283849318
1257.000000,0.01304890893
1258.000000,0.01411640377
1259.000000,0.01107996968
1260.000000,0.01007237121
1261.000000,0.01176238956
1262.000000,0.01146999637
1263.000000,0.01172802522
1264.000000,0.01144258315
1265.000000,0.01406799575
1266.000000,0.01214109214
1267.000000,0.01406683143
1268.000000,0.01023261225
1269.000000,0.009657827424
1270.000000,0.01324010422
1271.000000,0.009253899467
1272.000000,0.009355156406
1273.000000,0.009374721605
1274.000000,0.008033139248
1275.000000,0.01233622458
1276.000000,0.01459185252
1277.000000,0.01250350498
1278.000000,0.01299553517
1279.000000,0.01078591906
1280.000000,0.009625676603
1281.000000,0.01241441968
1282.000000,0.009237963013
1283.000000,0.00852651382
1284.000000,0.009769744558
1285.000000,0.01334997534
1286.000000,0.01206411649
1287.000000,0.01088693676
1288.000000,0.009319479161
1289.000000,0.009553948427
1290.000000,0.01193924643
1291.000000,0.01115989565
1292.000000,0.009851901404
1293.000000,0.01343795463
1294.000000,0.01005708997
1295.000000,0.008246062929
1296.000000,0.01078722817
1297.000000,0.0132713543
1298.000000,0.01257711085
1299.000000,0.01299047326
1300.000000,0.009716821213
1301.000000,0.0120699459
1302.000000,0.01148711441
1303.000000,0.01076612269
1304.000000,0.009069496992
1305.000000,0.01354321644
1306.000000,0.01141850661
1307.000000,0.01018720558
1308.000000,0.0126175069
1309.000000,0.01599370221
1310.000000,0.008382627944
1311.000000,0.01170155111
1312.000000,0.01463802717
1313.000000,0.01467396018
1314.000000,0.009259854459
1315.000000,0.01019694164
1316.000000,0.007323820498
1317.000000,0.0111188212
1318.000000,0.008217030493
1319.000000,0.009128053595
1320.000000,0.01380406428
1321.000000,0.008855247991
1322.000000,0.007767939251
1323.000000,0.01120557298
1324.000000,0.01158953451
1325.000000,0.01165979674
1326.000000,0.01347404492
1327.000000,0.009959915118
1328.000000,0.01104731898
1329.000000,0.01255266682
1330.000000,0.01056014306
1331.000000,0.01403050358
1332.000000,0.01326100113
1333.000000,0.01148675043
1334.000000,0.01110345485
1335.000000,0.01154157228
1336.000000,0.01210089679
1337.000000,0.007737644888
1338.000000,0.009029967263
1339.000000,0.009989839671
1340.000000,0.009876564849
1341.000000,0.01028436073
1342.000000,0.01034418153
1343.000000,0.01165533916
1344.000000,0.01088027107
1345.000000,0.01216107439
1346.000000,0.01212578042
1347.000000,0.01142276009
1348.000000,0.0107357015
1349.000000,0.01013063259
1350.000000,0.01303293212
1351.000000,0.01068559705
1352.000000,0.0119831291
1353.000000,0.01310160196
1354.000000,0.01198157529
1355.000000,0.00855947035
1356.000000,0.01014183142
1357.000000,0.0153626947
1358.000000,0.008491560906
1359.000000,0.01399546164
1360.000000,0.009522887984
1361.000000,0.011799105
1362.000000,0.01368708626
1363.000000,0.009745765449
1364.000000,0.01360345786
1365.000000,0.007469176563
1366.000000,0.01143372232
1367.000000,0.01053554818
1368.000000,0.01256782732
1369.000000,0.01329914182
1370.000000,0.01411536085
1371.000000,0.0140687146
1372.000000,0.01114189299
1373.000000,0.01023257454
1374.000000,0.01283419721
1375.000000,0.01102626638
1376.000000,0.008050498024
1377.000000,0.00795385112
1378.000000,0.01135539911
1379.000000,0.01141771289
1380.000000,0.01240331854
1381.000000,0.0126894289
1382.000000,0.009296110682
1383.000000,0.01299841744
1384.000000,0.01029732102
1385.000000,0.01340747711
1386.000000,0.0126124181
1387.000000,0.0157569459
1388.000000,0.01353810238
1389.000000,0.01188468406
1390.000000,0.01254001602
1391.000000,0.01320575817
1392.000000,0.01433283282
1393.000000,0.01483183049
1394.000000,0.01181757748
1395.000000,0.01167486298
1396.000000,0.01521269708
1397.000000,0.01395846375
1398.000000,0.01615043797
1399.000000,0.01520888865
1400.000000,0.01770927015
1401.000000,0.01588066549
1402.000000,0.01249079605
1403.000000,0.01422342427
1404.000000,0.01631880461
1405.000000,0.01345771961
1406.000000,0.0157451161
1407.000000,0.01727608333
1408.000000,0.01840011646
1409.000000,0.0182316696
1410.000000,0.01398905031
1411.000000,0.01947263976
1412.000000,0.01588223819
1413.000000,0.01814174734
1414.000000,0.01683589774
1415.000000,0.02067326099
1416.000000,0.01925765679
1417.000000,0.02038698291
1418.000000,0.02134849671
1419.000000,0.02101662216
1420.000000,0.02063727407
1421.000000,0.02534826261
1422.000000,0.02458815165
1423.000000,0.02587159876
1424.000000,0.02205890792
1425.000000,0.02273206303
1426.000000,0.03097967439
1427.000000,0.03056422681
1428.000000,0.02740496845
1429.000000,0.03334224684
1430.000000,0.03471510162
1431.000000,0.03495913386
1432.000000,0.03863191812
1433.000000,0.04592056834
1434.000000,0.04452873551
1435.000000,0.0508138838
1436.000000,0.05302022399
1437.000000,0.0570958695
1438.000000,0.07103607201
1439.000000,0.07527125431
1440.000000,0.08201176316
1441.000000,0.09280079445
1442.000000,0.1054551039
1443.000000,0.1185673468
1444.000000,0.1382417071
1445.000000,0.1574534761
1446.000000,0.1756199008
1447.000000,0.196344187
1448.000000,0.2115018171
1449.000000,0.2266707193
1450.000000,0.2268310259
1451.000000,0.2260013889
1452.000000,0.2167708594
1453.000000,0.1959354088
1454.000000,0.1816405173
1455.000000,0.154228964
1456.000000,0.1370019164
1457.000000,0.1206214923
1458.000000,0.1078308477
1459.000000,0.09590896568
1460.000000,0.08339278015
1461.000000,0.07125538226
1462.000000,0.06931392795
1463.000000,0.06144709383
1464.000000,0.05629917725
1465.000000,0.04709705388
1466.000000,0.04703268397
1467.000000,0.04236426558
1468.000000,0.04153403717
1469.000000,0.04039351673
1470.000000,0.03322323786
1471.000000,0.03262930142
1472.000000,0.031134952
1473.000000,0.02804386034
1474.000000,0.02914895462
1475.000000,0.02785112198
1476.000000,0.02409547119
1477.000000,0.0231490798
1478.000000,0.0243678164
1479.000000,0.01970807528
1480.000000,0.02293086318
1481.000000,0.02329536868
1482.000000,0.02268418771
1483.000000,0.01875625081
1484.000000,0.02339479961
1485.000000,0.02348388092
1486.000000,0.01704985326
1487.000000,0.02204557904
1488.000000,0.02092342225
1489.000000,0.01982946742
1490.000000,0.01642691028
1491.000000,0.01950915303
1492.000000,0.01527958257
1493.000000,0.01723086647
1494.000000,0.01848829819
1495.000000,0.01773324265
1496.000000,0.01607685871
1497.000000,0.01715364236
1498.000000,0.01607164754
1499.000000,0.01670213445
1500.000000,0.01461336685
1501.000000,0.01373278275
1502.000000,0.01477647753
1503.000000,0.0134065366
1504.000000,0.01774115646
1505.000000,0.02039408061
1506.000000,0.01674958527
1507.000000,0.01759053877
1508.000000,0.01336489168
1509.000000,0.01502987533
1510.000000,0.0131396807
1511.000000,0.0163978416
1512.000000,0.01537295592
1513.000000,0.01325041541
1514.000000,0.01773763764
1515.000000,0.01501579718
1516.000000,0.01652805524
1517.000000,0.0167351799
1518.000000,0.01772551676
1519.000000,0.01746010735
1520.000000,0.01513432989
1521.000000,0.0146432026
1522.000000,0.01387548528
1523.000000,0.01312011216
1524.000000,0.01836358047
1525.000000,0.01405364046
1526.000000,0.01775576099
1527.000000,0.01354549885
1528.000000,0.01386042484
1529.000000,0.01703444142
1530.000000,0.01496036274
1531.000000,0.01383196662
1532.000000,0.01839452184
1533.000000,0.01309593327
1534.000000,0.01405589278
1535.000000,0.01691979891
1536.000000,0.01857491448
1537.000000,0.01587473513
1538.000000,0.01446348799
1539.000000,0.02030929929
1540.000000,0.01634523178
1541.000000,0.01532892812
1542.000000,0.01691131067
1543.000000,0.01909035019
1544.000000,0.01189061393
1545.000000,0.01541802961
1546.000000,0.01896572424
1547.000000,0.018925461
1548.000000,0.01834674749
1549.000000,0.01830980047
1550.000000,0.02004559976
1551.000000,0.02136248748
1552.000000,0.01875471625
1553.000000,0.01949507135
1554.000000,0.02222821798
1555.000000,0.02075408778
1556.000000,0.01956048888
1557.000000,0.02235507497
1558.000000,0.02140672037
1559.000000,0.02545270355
1560.000000,0.02689070993
1561.000000,0.02516177762
1562.000000,0.02730581835
1563.000000,0.02956053003
1564.000000,0.03275823396
1565.000000,0.03406285019
1566.000000,0.03470529428
1567.000000,0.03719249644
1568.000000,0.04174633881
1569.000000,0.0435989811
1570.000000,0.04708065714
1571.000000,0.04855750617
1572.000000,0.05624792948
1573.000000,0.06321432124
1574.000000,0.07053546883
1575.000000,0.07839923105
1576.000000,0.08936540808
1577.000000,0.1093701403
1578.000000,0.1287208232
1579.000000,0.1511911009
1580.000000,0.1760323335
1581.000000,0.204041784
1582.000000,0.2267873826
1583.000000,0.2384537235
1584.000000,0.2324270233
1585.000000,0.214194305
1586.000000,0.19334252
1587.000000,0.1716855038
1588.000000,0.1608909047
1589.000000,0.145010688
1590.000000,0.1429890871
1591.000000,0.1398606748
1592.000000,0.1468294293
1593.000000,0.1510478336
1594.000000,0.1703884836
1595.000000,0.1912961279
1596.000000,0.2256713382
1597.000000,0.2739697583
1598.000000,0.3382961175
1599.000000,0.4236471866
1600.000000,0.5221335812
1601.000000,0.6115868205
1602.000000,0.6428168505
1603.000000,0.6031288655
1604.000000,0.5185266671
1605.000000,0.4198174486
1606.000000,0.3249207233
1607.000000,0.2617503656
1608.000000,0.2064618127
1609.000000,0.1668953547
1610.000000,0.1424070028
1611.000000,0.1217330377
1612.000000,0.105289233
1613.000000,0.08845333463
1614.000000,0.07697287883
1615.000000,0.06932457415
1616.000000,0.06299943507
1617.000000,0.05768886872
1618.000000,0.05366566332
1619.000000,0.0477432076
1620.000000,0.0445472746
1621.000000,0.04083244589
1622.000000,0.0363747411
1623.000000,0.03630840944
1624.000000,0.03623086628
1625.000000,0.03311387935
1626.000000,0.02612587172
1627.000000,0.03160817841
1628.000000,0.02588601727
1629.000000,0.03062298911
1630.000000,0.02933868817
1631.000000,0.02570224527
1632.000000,0.02704636448
1633.000000,0.02126787704
1634.000000,0.02171814135
1635.000000,0.02013081979
1636.000000,0.02151050059
1637.000000,0.02039635345
1638.000000,0.02021527375
1639.000000,0.01952690088
1640.000000,0.02165675896
1641.000000,0.01848151831
1642.000000,0.01726359182
1643.000000,0.01791617558
1644.000000,0.01826424694
1645.000000,0.0178868165
1646.000000,0.01482960621
1647.000000,0.01554231375
1648.000000,0.01561970866
1649.000000,0.01419382736
1650.000000,0.01267242956
1651.000000,0.01430181704
1652.000000,0.01027919065
1653.000000,0.01448205695
1654.000000,0.01241887653
1655.000000,0.014055499
1656.000000,0.01424038243
1657.000000,0.01796813518
1658.000000,0.01799417196
1659.000000,0.01833622666
1660.000000,0.01417731205
1661.000000,0.0129544893
1662.000000,0.01537428853
1663.000000,0.01168933703
1664.000000,0.01337259465
1665.000000,0.01199058387
1666.000000,0.01324681862
1667.000000,0.01468085859
1668.000000,0.01110363787
1669.000000,0.01355757611
1670.000000,0.01333066469
1671.000000,0.0133106717
1672.000000,0.01374145419
1673.000000,0.01199025744
1674.000000,0.0125078712
1675.000000,0.01191628424
1676.000000,0.009579466939
1677.000000,0.01529396903
1678.000000,0.01373320476
1679.000000,0.01362528095
1680.000000,0.01104229326
1681.000000,0.008903812737
1682.000000,0.01269599916
1683.000000,0.01040905822
1684.000000,0.01549900344
1685.000000,0.01534606848
1686.000000,0.01100845204
1687.000000,0.01451135061
1688.000000,0.01329759119
1689.000000,0.01173911205
1690.000000,0.008885473617
1691.000000,0.01297858394
1692.000000,0.0134814749
1693.000000,0.01351386294
1694.000000,0.01075921317
1695.000000,0.01184873355
1696.000000,0.0118588166
1697.000000,0.0118018775
1698.000000,0.0105532564
1699.000000,0.01375016166
1700.000000,0.01276728491
1701.000000,0.0109146998
1702.000000,0.01245190539
1703.000000,0.01347061906
1704.000000,0.01224655655
1705.000000,0.01217040063
1706.000000,0.01302753175
1707.000000,0.01007495733
1708.000000,0.01282131758
1709.000000,0.01021924291
1710.000000,0.01185053928
1711.000000,0.01379319635
1712.000000,0.01057442512
1713.000000,0.01361955689
1714.000000,0.01266607657
1715.000000,0.01400281456
1716.000000,0.008547085192
1717.000000,0.003942394931
1718.000000,0.009569710295
1719.000000,0.01531326907
1720.000000,0.011940456
1721.000000,0.01087845338
1722.000000,0.0114209255
1723.000000,0.01222627019
1724.000000,0.01103384271
1725.000000,0.01575105977
1726.000000,0.01156435684
1727.000000,0.00879842206
1728.000000,0.008849671188
1729.000000,0.01105589214
1730.000000,0.0112476787
1731.000000,0.0128131347
1732.000000,0.01303966189
1733.000000,0.01316899044
1734.000000,0.00925729539
1735.000000,0.01200268365
1736.000000,0.009924594498
1737.000000,0.01149023388
1738.000000,0.00915153958
1739.000000,0.01364336193
1740.000000,0.01377567581
1741.000000,0.01177531644
1742.000000,0.009288974511
1743.000000,0.01309726822
1744.000000,0.01164117358
1745.000000,0.008479112484
1746.000000,0.01227947467
1747.000000,0.01270056945
1748.000000,0.011944634
1749.000000,0.007600437728
1750.000000,0.01231118431
1751.000000,0.01280046562
1752.000000,0.009815324674
1753.000000,0.01301240646
1754.000000,0.01190175397
1755.000000,0.01276649495
1756.000000,0.007603337822
1757.000000,0.01033462425
1758.000000,0.01179662194
1759.000000,0.008004341575
1760.000000,0.01107136961
1761.000000,0.0141225916
1762.000000,0.007877873952
1763.000000,0.01351230991
1764.000000,0.01252280285
1765.000000,0.009094703356
1766.000000,0.009240983947
1767.000000,0.00909341457
1768.000000,0.01136624488
1769.000000,0.00627618714
1770.000000,0.01201992071
1771.000000,0.007806843966
1772.000000,0.01000022432
1773.000000,0.009859163767
1774.000000,0.01214134598
1775.000000,0.008757259932
1776.000000,0.00906958997
1777.000000,0.01292559577
1778.000000,0.0137936331
1779.000000,0.01052070007
1780.000000,0.009920534152
1781.000000,0.01108545138
1782.000000,0.01071458773
1783.000000,0.01058084072
1784.000000,0.008632359461
1785.000000,0.006265579989
1786.000000,0.01097103492
1787.000000,0.01039793597
1788.000000,0.01268738589
1789.000000,0.01263604298
1790.000000,0.01364726
1791.000000,0.009503628125
1792.000000,0.01186157968
1793.000000,0.008048265081
1794.000000,0.01093631398
1795.000000,0.0114016713
1796.000000,0.009014465022
1797.000000,0.01020306773
1798.000000,0.01512340545
1799.000000,0.008761917316
1800.000000,0.0124063463
1801.000000,0.009687250621
1802.000000,0.01212601508
1803.000000,0.005403215356
1804.000000,0.00783642423
1805.000000,0.009884131255
1806.000000,0.01357285263
1807.000000,0.0100376951
1808.000000,0.00795446891
1809.000000,0.009486932672
1810.000000,0.01183463699
1811.000000,0.007333665641
1812.000000,0.0104366055
1813.000000,0.009939186201
1814.000000,0.009532506669
1815.000000,0.01110563923
1816.000000,0.008868029396
1817.000000,0.01144329128
1818.000000,0.01156117313
1819.000000,0.0136961094
1820.000000,0.01102082905
1821.000000,0.01024549582
1822.000000,0.008234336664
1823.000000,0.009342431005
1824.000000,0.007866987309
1825.000000,0.01304541529
1826.000000,0.005906940067
1827.000000,0.01121525135
1828.000000,0.01129907392
1829.000000,0.01168342005
1830.000000,0.009555936265
1831.000000,0.01468651838
1832.000000,0.00977251652
1833.000000,0.00732525787
1834.000000,0.009110391325
1835.000000,0.008950491936
1836.000000,0.01290306002
1837.000000,0.01029873694
1838.000000,0.008595009486
1839.000000,0.008587508807
1840.000000,0.0100870778
1841.000000,0.009480011087
1842.000000,0.01018685438
1843.000000,0.01233860692
1844.000000,0.007722430056
1845.000000,0.009105034132
1846.000000,0.01087182631
1847.000000,0.007540434361
1848.000000,0.01167241377
1849.000000,0.0131273777
1850.000000,0.01073931772
1851.000000,0.01212038681
1852.000000,0.009893900436
1853.000000,0.01061779403
1854.000000,0.01113771001
1855.000000,0.01054343553
1856.000000,0.01299924209
1857.000000,0.009749948863
1858.000000,0.01240216633
1859.000000,0.009815243383
1860.000000,0.01371737859
1861.000000,0.01333621258
1862.000000,0.01134973916
1863.000000,0.007970736264
1864.000000,0.008917361675
1865.000000,0.005416654053
1866.000000,0.01216688349
1867.000000,0.009601296743
1868.000000,0.009037748553
1869.000000,0.01052180609
1870.000000,0.00764428854
1871.000000,0.009520322479
1872.000000,0.01078766975
1873.000000,0.01232849516
1874.000000,0.01480890437
1875.000000,0.008883696521
1876.000000,0.01226578976
1877.000000,0.009265534211
1878.000000,0.008431801561
1879.000000,0.01116372977
1880.000000,0.01033801465
1881.000000,0.007477865695
1882.000000,0.01036978664
1883.000000,0.01430337941
1884.000000,0.008994064519
1885.000000,0.008997016314
1886.000000,0.01293371526
1887.000000,0.01102704546
1888.000000,0.009096056254
1889.000000,0.01150644724
1890.000000,0.009543269666
1891.000000,0.009044270921
1892.000000,0.01133924856
1893.000000,0.008826888581
1894.000000,0.01208754543
1895.000000,0.01367160323
1896.000000,0.009268605988
1897.000000,0.009194584722
1898.000000,0.009121441936
1899.000000,0.01045558414
1900.000000,0.008974976843
1901.000000,0.01069528347
1902.000000,0.01205960232
1903.000000,0.008362998653
1904.000000,0.01094289849
1905.000000,0.01276309261
1906.000000,0.01215240659
1907.000000,0.008712311271
1908.000000,0.01298161679
1909.000000,0.008611196249
1910.000000,0.01247102578
1911.000000,0.007377528142
1912.000000,0.01168545625
1913.000000,0.00989139216
1914.000000,0.009823821241
1915.000000,0.009695690198
1916.000000,0.008551618681
1917.000000,0.01134326882
1918.000000,0.0107571423
1919.000000,0.01205147359
1920.000000,0.008807718164
1921.000000,0.01186105043
1922.000000,0.01241065788
1923.000000,0.008672467699
1924.000000,0.012874991
1925.000000,0.01344611517
1926.000000,0.008108972425
1927.000000,0.008626363027
1928.000000,0.0152707861
1929.000000,0.01114945825
1930.000000,0.01021527798
1931.000000,0.008662717199
1932.000000,0.01178384744
1933.000000,0.009609824329
1934.000000,0.01126181825
1935.000000,0.01089026196
1936.000000,0.01141012103
1937.000000,0.01177954646
1938.000000,0.009929796043
1939.000000,0.01138332487
1940.000000,0.01164284086
1941.000000,0.009964665346
1942.000000,0.00905031223
1943.000000,0.01098221228
1944.000000,0.01352652526
1945.000000,0.01008264816
1946.000000,0.009523265067
1947.000000,0.01104278054
1948.000000,0.009534918585
1949.000000,0.01059582344
1950.000000,0.0103682346
1951.000000,0.009319342523
1952.000000,0.01110364362
1953.000000,0.008735254156
1954.000000,0.008945308073
1955.000000,0.007093988257
1956.000000,0.008814660006
1957.000000,0.01074999608
1958.000000,0.0125874949
1959.000000,0.0161976955
1960.000000,0.0100497146
1961.000000,0.009398548987
1962.000000,0.01406480715
1963.000000,0.007429570497
1964.000000,0.01195617674
1965.000000,0.01080590522
1966.000000,0.01338147589
1967.000000,0.009815846048
1968.000000,0.0105317857
1969.000000,0.006866739689
1970.000000,0.008937556751
1971.000000,0.01003421632
1972.000000,0.008998540941
1973.000000,0.008687558834
1974.000000,0.01210706996
1975.000000,0.007178092448
1976.000000,0.006759779298
1977.000000,0.007093232763
1978.000000,0.008500299343
1979.000000,0.008039379324
1980.000000,0.009255093068
1981.000000,0.008457430995
1982.000000,0.01321688021
1983.000000,0.008441899529
1984.000000,0.009505798648
1985.000000,0.01094459808
1986.000000,0.01436440257
1987.000000,0.009562919135
1988.000000,0.00883496817
1989.000000,0.0118383792
1990.000000,0.009112450357
1991.000000,0.006874178232
1992.000000,0.006910614781
1993.000000,0.009053774063
1994.000000,0.00724198438
1995.000000,0.01203803315
1996.000000,0.01078457638
1997.000000,0.01323671985
1998.000000,0.01042780793
1999.000000,0.009351544017
2000.000000,0.01136048946
