raman_shift_cm-1,intensity
200.000000,0.01117973941
201.000000,0.01050864071
202.000000,0.009957681938
203.000000,0.005436013331
204.000000,0.01093709865
205.000000,0.005821776741
206.000000,0.01189440595
207.000000,0.01128672308
208.000000,0.01173513488
209.000000,0.01173064916
210.000000,0.01067251355
211.000000,0.009005715174
212.000000,0.00946182809
213.000000,0.01309233315
214.000000,0.008911967079
215.000000,0.009620416757
216.000000,0.008627875196
217.000000,0.009042646691
218.000000,0.009464272095
219.000000,0.01059073499
220.000000,0.009490164777
221.000000,0.009368706514
222.000000,0.008844741072
223.000000,0.01025778963
224.000000,0.007390539421
225.000000,0.01018349336
226.000000,0.01269942858
227.000000,0.008545806354
228.000000,0.009989105079
229.000000,0.01571456449
230.000000,0.008095057017
231.000000,0.006838383651
232.000000,0.009227310799
233.000000,0.0136950689
234.000000,0.01415168936
235.000000,0.007649750745
236.000000,0.01122227494
237.000000,0.01009130667
238.000000,0.008905793933
239.000000,0.006191413033
240.000000,0.01213225146
241.000000,0.008362283337
242.000000,0.01068165341
243.000000,0.0102477057
244.000000,0.01382456171
245.000000,0.01243647184
246.000000,0.007774094906
247.000000,0.009560263206
248.000000,0.01215903683
249.000000,0.007419601752
250.000000,0.009301346725
251.000000,0.01054136847
252.000000,0.006854859824
253.000000,0.007615892924
254.000000,0.006678954107
255.000000,0.01066136061
256.000000,0.008964682508
257.000000,0.01194531249
258.000000,0.01031591078
259.000000,0.01123266504
260.000000,0.00992158904
261.000000,0.01159310046
262.000000,0.009882932651
263.000000,0.008125479946
264.000000,0.01245573789
265.000000,0.01205053753
266.000000,0.0146242298
267.000000,0.009806765709
268.000000,0.008931693284
269.000000,0.00719773722
270.000000,0.002373597692
271.000000,0.007475688676
272.000000,0.01106645725
273.000000,0.008322094845
274.000000,0.004903848309
275.000000,0.01131035713
276.000000,0.008910866348
277.000000,0.009372519098
278.000000,0.009231996494
279.000000,0.009825829233
280.000000,0.01104446704
281.000000,0.006626900815
282.000000,0.009642056844
283.000000,0.00907947353
284.000000,0.01237046365
285.000000,0.008026784416
286.000000,0.01337256941
287.000000,0.01131418283
288.000000,0.01334777565
289.000000,0.008689893133
290.000000,0.01171114571
291.000000,0.01082582969
292.000000,0.007104663838
293.000000,0.009578554275
294.000000,0.009195385629
295.000000,0.008168861713
296.000000,0.008565263841
297.000000,0.007222305827
298.000000,0.009168010999
299.000000,0.01077103352
300.000000,0.008545488678
301.000000,0.006977269911
302.000000,0.01219464493
303.000000,0.009362769389
304.000000,0.01015966492
305.000000,0.009637348532
306.000000,0.009025421267
307.000000,0.01130960186
308.000000,0.009046701159
309.000000,0.01016440055
310.000000,0.007217497862
311.000000,0.0068302888
312.000000,0.009329148587
313.000000,0.01393005094
314.000000,0.01047168191
315.000000,0.01397686902
316.000000,0.01101443362
317.000000,0.01101744222
318.000000,0.008944338817
319.000000,0.01006661723
320.000000,0.01369449356
321.000000,0.01248277467
322.000000,0.008860493994
323.000000,0.009173719446
324.000000,0.01278832141
325.000000,0.009084755765
326.000000,0.01195429951
327.000000,0.008296190171
328.000000,0.01137184791
329.000000,0.01316872297
330.000000,0.01178683918
331.000000,0.01060422712
332.000000,0.01039865546
333.000000,0.009949263636
334.000000,0.01007277817
335.000000,0.01247707482
336.000000,0.01242777323
337.000000,0.0109361256
338.000000,0.007602616363
339.000000,0.009080273133
340.000000,0.0107169436
341.000000,0.01022568891
342.000000,0.007417325448
343.000000,0.01145184276
344.000000,0.01532205636
345.000000,0.007671887721
346.000000,0.01025309717
347.000000,0.01336571191
348.000000,0.009292028741
349.000000,0.009311836755
350.000000,0.01046707122
351.000000,0.01126248976
352.000000,0.009306746216
353.000000,0.01208938287
354.000000,0.006320382112
355.000000,0.01144184742
356.000000,0.01086917942
357.000000,0.009814457805
358.000000,0.01090765532
359.000000,0.01022932657
360.000000,0.01279386481
361.000000,0.00921146665
362.000000,0.01005272072
363.000000,0.007360923617
364.000000,0.007887362111
365.000000,0.009655636059
366.000000,0.007026239122
367.000000,0.008444420095
368.000000,0.007487661025
369.000000,0.009153213319
370.000000,0.01037601467
371.000000,0.01202893947
372.000000,0.006261384363
373.000000,0.009742663957
374.000000,0.01187550552
375.000000,0.01290510784
376.000000,0.01295775298
377.000000,0.007277729293
378.000000,0.009120882068
379.000000,0.01127632335
380.000000,0.01202619011
381.000000,0.01071358358
382.000000,0.01068152968
383.000000,0.01063337324
384.000000,0.008617282147
385.000000,0.01047542073
386.000000,0.01177815835
387.000000,0.009476397567
388.000000,0.01250107154
389.000000,0.004472003437
390.000000,0.00950413003
391.000000,0.01355848413
392.000000,0.01190605073
393.000000,0.01304819855
394.000000,0.0104530225
395.000000,0.007798253061
396.000000,0.00914173872
397.000000,0.01320798484
398.000000,0.006491387578
399.000000,0.008258258078
400.000000,0.006738634402
401.000000,0.009100226014
402.000000,0.009326023884
403.000000,0.01132938786
404.000000,0.008522711239
405.000000,0.01359858083
406.000000,0.01146808622
407.000000,0.009231883974
408.000000,0.008192640521
409.000000,0.007180144228
410.000000,0.01042368098
411.000000,0.01414550132
412.000000,0.009858269866
413.000000,0.008128053139
414.000000,0.01006973096
415.000000,0.009154834038
416.000000,0.008380906043
417.000000,0.006398000625
418.000000,0.01007942269
419.000000,0.0131652716
420.000000,0.01265168971
421.000000,0.01216512876
422.000000,0.01062105233
423.000000,0.0111474798
424.000000,0.01222822299
425.000000,0.01009965837
426.000000,0.0107751585
427.000000,0.009415030009
428.000000,0.01248082066
429.000000,0.008364232165
430.000000,0.01158226216
431.000000,0.01193353391
432.000000,0.01189705633
433.000000,0.01164919992
434.000000,0.009299675661
435.000000,0.009102009884
436.000000,0.009408126253
437.000000,0.009484251597
438.000000,0.007983959655
439.000000,0.009346794522
440.000000,0.00896654118
441.000000,0.008345201553
442.000000,0.01097196303
443.000000,0.00873379604
444.000000,0.01074902039
445.000000,0.01319931607
446.000000,0.01363327114
447.000000,0.01029740998
448.000000,0.01230748878
449.000000,0.0107663083
450.000000,0.01505678984
451.000000,0.01356797043
452.000000,0.01251230319
453.000000,0.009963982943
454.000000,0.00977788723
455.000000,0.0113773857
456.000000,0.01021887653
457.000000,0.009791480766
458.000000,0.01168232917
459.000000,0.00778601394
460.000000,0.006276733506
461.000000,0.008250995837
462.000000,0.007970251389
463.000000,0.01012611854
464.000000,0.008545946901
465.000000,0.009901407697
466.000000,0.00623411055
467.000000,0.01325162095
468.000000,0.01109567039
469.000000,0.008566016146
470.000000,0.01093850775
471.000000,0.01277925995
472.000000,0.01199979578
473.000000,0.01013078651
474.000000,0.01154952723
475.000000,0.01209622922
476.000000,0.007890483027
477.000000,0.007428135007
478.000000,0.009130231959
479.000000,0.01230697658
480.000000,0.01330083624
481.000000,0.0106040006
482.000000,0.01336574953
483.000000,0.01235018451
484.000000,0.01020189767
485.000000,0.008850075081
486.000000,0.009058757416
487.000000,0.0105194931
488.000000,0.01318683241
489.000000,0.0120535213
490.000000,0.007742380681
491.000000,0.007900642539
492.000000,0.01201269914
493.000000,0.0107754862
494.000000,0.008479766333
495.000000,0.01175344837
496.000000,0.01314447024
497.000000,0.01200637413
498.000000,0.0106209195
499.000000,0.01310242212
500.000000,0.009638847082
501.000000,0.009229905739
502.000000,0.008569802937
503.000000,0.01424423941
504.000000,0.01471262562
505.000000,0.01036278039
506.000000,0.01164491693
507.000000,0.01137040764
508.000000,0.01234960578
509.000000,0.01287340724
510.000000,0.01185092424
511.000000,0.01030202039
512.000000,0.009451798633
513.000000,0.00844908066
514.000000,0.005246675347
515.000000,0.01032089655
516.000000,0.00884509423
517.000000,0.01058950068
518.000000,0.0103245416
519.000000,0.008476706991
520.000000,0.009542746836
521.000000,0.01139067798
522.000000,0.01090528723
523.000000,0.008801474018
524.000000,0.009067419953
525.000000,0.01173790133
526.000000,0.01107865382
527.000000,0.01122961452
528.000000,0.01029149414
529.000000,0.01211701333
530.000000,0.01082995573
531.000000,0.01572679961
532.000000,0.00971473425
533.000000,0.009261093881
534.000000,0.01400061576
535.000000,0.01055153076
536.000000,0.0091442981
537.000000,0.01159127796
538.000000,0.006086915713
539.000000,0.01164348412
540.000000,0.01080027615
541.000000,0.01131340545
542.000000,0.009178697639
543.000000,0.01344441069
544.000000,0.01145427572
545.000000,0.01080218026
546.000000,0.01158516756
547.000000,0.00920235659
548.000000,0.01063854864
549.000000,0.007905414156
550.000000,0.008723088433
551.000000,0.01154556722
552.000000,0.01121471703
553.000000,0.01248878745
554.000000,0.009697673509
555.000000,0.01082791319
556.000000,0.009701051161
557.000000,0.01161702432
558.000000,0.01269976714
559.000000,0.01330357078
560.000000,0.01233801727
561.000000,0.009640596655
562.000000,0.01168361996
563.000000,0.009223200612
564.000000,0.007494204298
565.000000,0.01172652991
566.000000,0.01158984842
567.000000,0.01295586244
568.000000,0.01316702128
569.000000,0.009100380619
570.000000,0.009805467267
571.000000,0.01166893209
572.000000,0.01188625193
573.000000,0.01262521038
574.000000,0.009263549552
575.000000,0.01144937951
576.000000,0.01331623971
577.000000,0.01591197565
578.000000,0.009702718747
579.000000,0.01555174568
580.000000,0.0118456415
581.000000,0.00964538463
582.000000,0.01531857222
583.000000,0.01065513159
584.000000,0.01059948449
585.000000,0.01452976697
586.000000,0.01533600713
587.000000,0.01358543338
588.000000,0.01221239977
589.000000,0.01089610445
590.000000,0.01433874709
591.000000,0.00971868281
592.000000,0.01178278414
593.000000,0.01714315614
594.000000,0.01663272924
595.000000,0.01824733966
596.000000,0.01708745536
597.000000,0.01450791351
598.000000,0.01832617178
599.000000,0.01443693109
600.000000,0.02021651449
601.000000,0.0224412409
602.000000,0.01873690798
603.000000,0.02399033878
604.000000,0.02342166354
605.000000,0.02468911107
606.000000,0.02305721229
607.000000,0.02909714584
608.000000,0.03407726829
609.000000,0.03252656297
610.000000,0.03949789504
611.000000,0.04474305155
612.000000,0.05016117816
613.000000,0.06487812084
614.000000,0.07499518852
615.000000,0.0907941153
616.000000,0.1126780804
617.000000,0.1332740815
618.000000,0.1669836863
619.000000,0.1807778581
620.000000,0.1878453905
621.000000,0.182975171
622.000000,0.1612543376
623.000000,0.1328899726
624.000000,0.1089473903
625.000000,0.09242877069
626.000000,0.07560707615
627.000000,0.06369242761
628.000000,0.055240843
629.000000,0.04503633744
630.000000,0.04308764381
631.000000,0.03612389047
632.000000,0.03390021819
633.000000,0.02770033196
634.000000,0.02864058036
635.000000,0.0257104703
636.000000,0.02844329205
637.000000,0.02178536705
638.000000,0.02395398604
639.000000,0.02115070658
640.000000,0.02213364793
641.000000,0.01870897876
642.000000,0.01852979551
643.000000,0.01254723728
644.000000,0.0139077041
645.000000,0.0180891146
646.000000,0.01643776243
647.000000,0.01676881762
648.000000,0.01437319295
649.000000,0.01616803574
650.000000,0.01361948748
651.000000,0.01397510345
652.000000,0.01629711806
653.000000,0.01582098312
654.000000,0.01261236255
655.000000,0.0134169468
656.000000,0.0136332243
657.000000,0.0127364175
658.000000,0.01268715901
659.000000,0.01088441469
660.000000,0.01378761657
661.000000,0.01046386542
662.000000,0.0105305953
663.000000,0.01490212757
664.000000,0.01593048833
665.000000,0.01589221495
666.000000,0.01283885419
667.000000,0.01099662515
668.000000,0.01348538817
669.000000,0.01504034579
670.000000,0.01212449133
671.000000,0.0110343286
672.000000,0.008464293358
673.000000,0.008378549179
674.000000,0.01513136375
675.000000,0.008732460108
676.000000,0.01028957705
677.000000,0.01098943035
678.000000,0.01204065049
679.000000,0.00893448709
680.000000,0.01262473058
681.000000,0.01261181742
682.000000,0.01157540237
683.000000,0.0101672968
684.000000,0.01064386767
685.000000,0.007513199857
686.000000,0.01258794066
687.000000,0.01027284983
688.000000,0.008566670366
689.000000,0.01120416838
690.000000,0.0122507605
691.000000,0.01195781604
692.000000,0.01247401466
693.000000,0.01354549014
694.000000,0.01015462204
695.000000,0.01156664468
696.000000,0.01168709716
697.000000,0.008262771696
698.000000,0.01332925067
699.000000,0.01049229716
700.000000,0.01163047582
701.000000,0.01172698429
702.000000,0.009498284716
703.000000,0.01275523108
704.000000,0.01305775539
705.000000,0.01145418369
706.000000,0.005339411
707.000000,0.01382857171
708.000000,0.01081757622
709.000000,0.009823819948
710.000000,0.009949489333
711.000000,0.008957840079
712.000000,0.0103864341
713.000000,0.01235708664
714.000000,0.008924622242
715.000000,0.01155668845
716.000000,0.009956651274
717.000000,0.01063624631
718.000000,0.01042293
719.000000,0.01178162013
720.000000,0.01319860846
721.000000,0.01116932832
722.000000,0.01299550309
723.000000,0.0141841357
724.000000,0.008343798429
725.000000,0.01281405194
726.000000,0.01066980385
727.000000,0.01091653825
728.000000,0.01324947231
729.000000,0.0108623192
730.000000,0.0100968722
731.000000,0.01389988205
732.000000,0.01350200426
733.000000,0.0122670141
734.000000,0.01710734757
735.000000,0.009539653378
736.000000,0.0082971026
737.000000,0.01114778518
738.000000,0.009344894483
739.000000,0.01238973045
740.000000,0.01051406246
741.000000,0.01053728584
742.000000,0.01179413715
743.000000,0.01014514751
744.000000,0.008041585249
745.000000,0.01047500767
746.000000,0.01338444612
747.000000,0.0125118603
748.000000,0.01396605331
749.000000,0.01553092857
750.000000,0.01399770901
751.000000,0.01220714789
752.000000,0.01090863353
753.000000,0.0134194159
754.000000,0.0157951602
755.000000,0.0155328114
756.000000,0.01467151333
757.000000,0.01132399754
758.000000,0.01421640799
759.000000,0.01460660375
760.000000,0.01579209885
761.000000,0.01098377675
762.000000,0.01230183897
763.000000,0.01416185291
764.000000,0.01434970439
765.000000,0.01312131786
766.000000,0.01559319705
767.000000,0.01429353149
768.000000,0.01740492322
769.000000,0.01457474086
770.000000,0.01633224372
771.000000,0.0121902457
772.000000,0.01726759605
773.000000,0.01608865545
774.000000,0.0194536348
775.000000,0.01840589088
776.000000,0.02201287928
777.000000,0.0194331868
778.000000,0.01870654319
779.000000,0.02330122838
780.000000,0.02544656005
781.000000,0.02452818613
782.000000,0.02547270531
783.000000,0.03200775229
784.000000,0.03552956795
785.000000,0.03843119644
786.000000,0.04145187747
787.000000,0.04650466998
788.000000,0.05611604464
789.000000,0.06210810817
790.000000,0.06771775387
791.000000,0.07759721336
792.000000,0.09176170655
793.000000,0.1019763006
794.000000,0.1065949424
795.000000,0.1090096963
796.000000,0.1097464982
797.000000,0.09989816552
798.000000,0.09219502917
799.000000,0.07755905067
800.000000,0.06758089981
801.000000,0.05712705882
802.000000,0.05282841369
803.000000,0.04573841391
804.000000,0.03796538063
805.000000,0.03732487253
806.000000,0.032422878
807.000000,0.0301066835
808.000000,0.03089983329
809.000000,0.02800326175
810.000000,0.02533277824
811.000000,0.02222813822
812.000000,0.01926714454
813.000000,0.01925559808
814.000000,0.01888677737
815.000000,0.02133235995
816.000000,0.01627530642
817.000000,0.01641331251
818.000000,0.01693046373
819.000000,0.01724241425
820.000000,0.01818874292
821.000000,0.01829189322
822.000000,0.01500051223
823.000000,0.0188278082
824.000000,0.01604484718
825.000000,0.01288281885
826.000000,0.01226926868
827.000000,0.01317233513
828.000000,0.01331163759
829.000000,0.01521179482
830.000000,0.0118477115
831.000000,0.01219141672
832.000000,0.01149754956
833.000000,0.01359942404
834.000000,0.01005246239
835.000000,0.01394220209
836.000000,0.01116729121
837.000000,0.01222047481
838.000000,0.01343022583
839.000000,0.01308347396
840.000000,0.01796663912
841.000000,0.0105334441
842.000000,0.008124272721
843.000000,0.00960916876
844.000000,0.01382073172
845.000000,0.00998322652
846.000000,0.01411635982
847.000000,0.01158957283
848.000000,0.01346384813
849.000000,0.008890879871
850.000000,0.01398161954
851.000000,0.01417948612
852.000000,0.009981022505
853.000000,0.01444354338
854.000000,0.01703735776
855.000000,0.01175499337
856.000000,0.00986469399
857.000000,0.01051902559
858.000000,0.01111628557
859.000000,0.01368743081
860.000000,0.01530548258
861.000000,0.01080762363
862.000000,0.01117304624
863.000000,0.008840755047
864.000000,0.01055315521
865.000000,0.01252598928
866.000000,0.00756691342
867.000000,0.01294062356
868.000000,0.01334367859
869.000000,0.0139583816
870.000000,0.01040283774
871.000000,0.008406901528
872.000000,0.0109754537
873.000000,0.009461299194
874.000000,0.008006948275
875.000000,0.01000385232
876.000000,0.008740284298
877.000000,0.01536451876
878.000000,0.01301182206
879.000000,0.01327744647
880.000000,0.009306322507
881.000000,0.01426382826
882.000000,0.01077831473
883.000000,0.01323087375
884.000000,0.009499457037
885.000000,0.01278699986
886.000000,0.008200637802
887.000000,0.01120621522
888.000000,0.0110746282
889.000000,0.008838145833
890.000000,0.01162912513
891.000000,0.01044889535
892.000000,0.01080493234
893.000000,0.01307759531
894.000000,0.01420272345
895.000000,0.0112328522
896.000000,0.01420520682
897.000000,0.01365576369
898.000000,0.01315830069
899.000000,0.01485615509
900.000000,0.008699323485
901.000000,0.01437587736
902.000000,0.01249136392
903.000000,0.01097711462
904.000000,0.01144231866
905.000000,0.01382963317
906.000000,0.01421788424
907.000000,0.01327591428
908.000000,0.0095547625
909.000000,0.008976193762
910.000000,0.01201081254
911.000000,0.01321926545
912.000000,0.01060276955
913.000000,0.01376880133
914.000000,0.01325851632
915.000000,0.01303909983
916.000000,0.01058743566
917.000000,0.01462448899
918.000000,0.01411294545
919.000000,0.01492209125
920.000000,0.01301325717
921.000000,0.009774772846
922.000000,0.01309805981
923.000000,0.01411091975
924.000000,0.01214836362
925.000000,0.01019189715
926.000000,0.01363353445
927.000000,0.01385014257
928.000000,0.01012094681
929.000000,0.01122477451
930.000000,0.009838907569
931.000000,0.01343360353
932.000000,0.01319804312
933.000000,0.01636991527
934.000000,0.0111440713
935.000000,0.01569146181
936.000000,0.01267353138
937.000000,0.01372379309
938.000000,0.01080271139
939.000000,0.01339854373
940.000000,0.01238149475
941.000000,0.01330891422
942.000000,0.01399496984
943.000000,0.01469932732
944.000000,0.01550255787
945.000000,0.01391212813
946.000000,0.01229511367
947.000000,0.01624745706
948.000000,0.01449958319
949.000000,0.01327204436
950.000000,0.01736277292
951.000000,0.01536414981
952.000000,0.01639978131
953.000000,0.01175658362
954.000000,0.01408059091
955.000000,0.01954074867
956.000000,0.01673740325
957.000000,0.01692665226
958.000000,0.01479297293
959.000000,0.01618910374
960.000000,0.01747692199
961.000000,0.01688598482
962.000000,0.01712766834
963.000000,0.01419451506
964.000000,0.01647306391
965.000000,0.01756131728
966.000000,0.02001658254
967.000000,0.02039076773
968.000000,0.01984233561
969.000000,0.01898039253
970.000000,0.01958874617
971.000000,0.02219181929
972.000000,0.01973664955
973.000000,0.02280255202
974.000000,0.02351612914
975.000000,0.02463141846
976.000000,0.02955795395
977.000000,0.02721674588
978.000000,0.03063119584
979.000000,0.03369000171
980.000000,0.03335728745
981.000000,0.03442040903
982.000000,0.03432302182
983.000000,0.04284072588
984.000000,0.04067155231
985.000000,0.04267410295
986.000000,0.05346912988
987.000000,0.05398141918
988.000000,0.06129278058
989.000000,0.07064670906
990.000000,0.08024783227
991.000000,0.09175620879
992.000000,0.1140695843
993.000000,0.1381130849
994.000000,0.1707305375
995.000000,0.2141962248
996.000000,0.2783884469
997.000000,0.3736660823
998.000000,0.5174148179
999.000000,0.7092687766
1000.000000,0.9147309254
1001.000000,1.016573643
1002.000000,0.9139987241
1003.000000,0.7100874946
1004.000000,0.5151222371
1005.000000,0.3775048107
1006.000000,0.282634087
1007.000000,0.2137276693
1008.000000,0.176334197
1009.000000,0.1439179661
1010.000000,0.1201131406
1011.000000,0.103938066
1012.000000,0.09312752975
1013.000000,0.084112719
1014.000000,0.07885024984
1015.000000,0.07369612321
1016.000000,0.07167585873
1017.000000,0.06947836428
1018.000000,0.06614760504
1019.000000,0.06750500283
1020.000000,0.07420804624
1021.000000,0.07896836378
1022.000000,0.08551857521
1023.000000,0.093495492
1024.000000,0.1096938333
1025.000000,0.1307805331
1026.000000,0.1640127843
1027.000000,0.2040449419
1028.000000,0.2620125082
1029.000000,0.3367802685
1030.000000,0.4099012269
1031.000000,0.4434397778
1032.000000,0.4070131542
1033.000000,0.3379698113
1034.000000,0.2598572335
1035.000000,0.1994319804
1036.000000,0.1541731344
1037.000000,0.1255489693
1038.000000,0.100035442
1039.000000,0.0860179413
1040.000000,0.07074073588
1041.000000,0.06537408152
1042.000000,0.0548813789
1043.000000,0.04863440394
1044.000000,0.04140802743
1045.000000,0.04243725753
1046.000000,0.03727085298
1047.000000,0.03414443792
1048.000000,0.0317697706
1049.000000,0.028814738
1050.000000,0.02710623431
1051.000000,0.0273781322
1052.000000,0.02385357311
1053.000000,0.02405542868
1054.000000,0.02784351807
1055.000000,0.02224856506
1056.000000,0.02116873568
1057.000000,0.02281775122
1058.000000,0.01848071257
1059.000000,0.02262357611
1060.000000,0.01935713724
1061.000000,0.01657328439
1062.000000,0.01817575723
1063.000000,0.01669879528
1064.000000,0.01908927375
1065.000000,0.01647619884
1066.000000,0.01852257157
1067.000000,0.01300712875
1068.000000,0.01569458525
1069.000000,0.01745049658
1070.000000,0.01710718694
1071.000000,0.01602614973
1072.000000,0.01720185178
1073.000000,0.01708338082
1074.000000,0.0153744028
1075.000000,0.01564606096
1076.000000,0.01686787472
1077.000000,0.0152858091
1078.000000,0.009757507329
1079.000000,0.01159487208
1080.000000,0.01331556831
1081.000000,0.01586926802
1082.000000,0.01455124757
1083.000000,0.01562130507
1084.000000,0.01624943216
1085.000000,0.01526289778
1086.000000,0.01224569958
1087.000000,0.01571671187
1088.000000,0.01131508881
1089.000000,0.01138761263
1090.000000,0.01300177297
1091.000000,0.009322844077
1092.000000,0.01709103333
1093.000000,0.01842358759
1094.000000,0.01336161689
1095.000000,0.01290776077
1096.000000,0.009489935809
1097.000000,0.01465979573
1098.000000,0.01220129628
1099.000000,0.01118023087
1100.000000,0.01081170267
1101.000000,0.01331815101
1102.000000,0.01312568781
1103.000000,0.01330446956
1104.000000,0.01235406402
1105.000000,0.01016398689
1106.000000,0.01646241555
1107.000000,0.01526045967
1108.000000,0.0125124397
1109.000000,0.01103662523
1110.000000,0.01176600392
1111.000000,0.01519891073
1112.000000,0.0148981393
1113.000000,0.0145247298
1114.000000,0.01641479154
1115.000000,0.01303525908
1116.000000,0.0170728656
1117.000000,0.01467459449
1118.000000,0.01296827026
1119.000000,0.01561019969
1120.000000,0.01537626727
1121.000000,0.0135105861
1122.000000,0.01863744367
1123.000000,0.01201052672
1124.000000,0.01599980068
1125.000000,0.01653836398
1126.000000,0.01457646938
1127.000000,0.01639123972
1128.000000,0.0192191967
1129.000000,0.01475842908
1130.000000,0.01523392077
1131.000000,0.01717024614
1132.000000,0.01936791639
1133.000000,0.02116538116
1134.000000,0.02075563829
1135.000000,0.01812406738
1136.000000,0.02342708497
1137.000000,0.02362564372
1138.000000,0.02540396821
1139.000000,0.02141151461
1140.000000,0.02291263544
1141.000000,0.02680354423
1142.000000,0.02949216542
1143.000000,0.03308110723
1144.000000,0.03424619672
1145.000000,0.03838850788
1146.000000,0.0464530731
1147.000000,0.0477722772
1148.000000,0.05770288968
1149.000000,0.07028146721
1150.000000,0.08445688844
1151.000000,0.09900726123
1152.000000,0.1193444748
1153.000000,0.1346811667
1154.000000,0.1495805199
1155.000000,0.1553650648
1156.000000,0.1486586434
1157.000000,0.1322664008
1158.000000,0.1168327259
1159.000000,0.09970292027
1160.000000,0.0833522154
1161.000000,0.07416424455
1162.000000,0.06213956819
1163.000000,0.05276201472
1164.000000,0.04996769839
1165.000000,0.04364186854
1166.000000,0.04345530079
1167.000000,0.03487054657
1168.000000,0.03512716536
1169.000000,0.03763619425
1170.000000,0.037875188
1171.000000,0.03794289921
1172.000000,0.04188732168
1173.000000,0.0402649956
1174.000000,0.04256304076
1175.000000,0.04923633092
1176.000000,0.05246247355
1177.000000,0.06136175814
1178.000000,0.07302539307
1179.000000,0.08303602375
1180.000000,0.09874359308
1181.000000,0.1144883232
1182.000000,0.1302693002
1183.000000,0.1360579118
1184.000000,0.1309513935
1185.000000,0.1158192732
1186.000000,0.1010994931
1187.000000,0.08119997675
1188.000000,0.06762933355
1189.000000,0.05613262701
1190.000000,0.05095366396
1191.000000,0.04219557238
1192.000000,0.03648612271
1193.000000,0.03055990631
1194.000000,0.0297585524
1195.000000,0.02920474807
1196.000000,0.02033129995
1197.000000,0.02154669661
1198.000000,0.020515078
1199.000000,0.01951473293
1200.000000,0.0202084221
1201.000000,0.01849323469
1202.000000,0.01876010376
1203.000000,0.01841203212
1204.000000,0.01994153661
1205.000000,0.01627012897
1206.000000,0.01700418547
1207.000000,0.01547884693
1208.000000,0.0158873502
1209.000000,0.01457131719
1210.000000,0.0126885877
1211.000000,0.01548147373
1212.000000,0.01660477366
1213.000000,0.01239330857
1214.000000,0.01398626643
1215.000000,0.01380024466
1216.000000,0.009507590245
1217.000000,0.01736767615
1218.000000,0.01628229753
1219.000000,0.01559116811
1220.000000,0.01510565649
1221.000000,0.01133891941
1222.000000,0.008088059739
1223.000000,0.01269427426
1224.000000,0.01288712028
1225.000000,0.01210038948
1226.000000,0.01168284269
1227.000000,0.01442090637
1228.000000,0.01393632301
1229.000000,0.01229063594
1230.000000,0.01127272816
1231.000000,0.01669571781
1232.000000,0.0137818345
1233.000000,0.01229796225
1234.000000,0.009468452756
1235.000000,0.00893673546
1236.000000,0.006483979411
1237.000000,0.01140014618
1238.000000,0.0124335328
1239.000000,0.01146892679
1240.000000,0.0117765536
1241.000000,0.01222549622
1242.000000,0.01336333336
1243.000000,0.008174609031
1244.000000,0.009186919225
1245.000000,0.01337421695
1246.000000,0.0121445839
1247.000000,0.01255757497
1248.000000,0.009559346963
1249.000000,0.01450034777
1250.000000,0.01173498297
1251.000000,0.01102014051
1252.000000,0.009714824565
1253.000000,0.01182190222
1254.000000,0.01175877016
1255.000000,0.01118447837
1256.000000,0.01460556109
1257.000000,0.01374232695
1258.000000,0.01135893267
1259.000000,0.0102213345
1260.000000,0.01048529787
1261.000000,0.01202275167
1262.000000,0.005834740108
1263.000000,0.01193904795
1264.000000,0.01088476033
1265.000000,0.01553177741
1266.000000,0.01218252563
1267.000000,0.01097209743
1268.000000,0.01140151258
1269.000000,0.0100472801
1270.000000,0.009912096925
1271.000000,0.0111576664
1272.000000,0.0073087953
1273.000000,0.01128349789
1274.000000,0.007941988855
1275.000000,0.009839686781
1276.000000,0.009807707895
1277.000000,0.01263131141
1278.000000,0.01434568146
1279.000000,0.01406571969
1280.000000,0.01028011636
1281.000000,0.01077846099
1282.000000,0.01130480564
1283.000000,0.0115383679
1284.000000,0.01345066665
1285.000000,0.0125660648
1286.000000,0.01121103349
1287.000000,0.01504318638
1288.000000,0.01301157679
1289.000000,0.01487515722
1290.000000,0.01111469035
1291.000000,0.01237432563
1292.000000,0.01189514074
1293.000000,0.01158991822
1294.000000,0.009165148
1295.000000,0.01174385153
1296.000000,0.00834921844
1297.000000,0.01201009374
1298.000000,0.01466880392
1299.000000,0.01351086116
1300.000000,0.01184850321
1301.000000,0.0106811175
1302.000000,0.01277646351
1303.000000,0.009191940378
1304.000000,0.008862942239
1305.000000,0.008674004188
1306.000000,0.01203580639
1307.000000,0.008643727976
1308.000000,0.01243547578
1309.000000,0.01328322394
1310.000000,0.01262550037
1311.000000,0.011060902
1312.000000,0.01211115011
1313.000000,0.008895818439
1314.000000,0.01167623787
1315.000000,0.01460878499
1316.000000,0.0141846477
1317.000000,0.008150076002
1318.000000,0.01115034539
1319.000000,0.01062944077
1320.000000,0.01311050899
1321.000000,0.01184632025
1322.000000,0.01111553187
1323.000000,0.0100476168
1324.000000,0.01162808788
1325.000000,0.01104452655
1326.000000,0.01145778129
1327.000000,0.01104537059
1328.000000,0.008908305351
1329.000000,0.01217442346
1330.000000,0.01226580576
1331.000000,0.0118145254
1332.000000,0.01190495423
1333.000000,0.01381928431
1334.000000,0.01357048076
1335.000000,0.01471361128
1336.000000,0.01282129586
1337.000000,0.01313540488
1338.000000,0.0115797036
1339.000000,0.009423406122
1340.000000,0.009181412938
1341.000000,0.01254376758
1342.000000,0.01178294497
1343.000000,0.01262748094
1344.000000,0.006983082755
1345.000000,0.01112361613
1346.000000,0.01177595868
1347.000000,0.01081669108
1348.000000,0.01103352108
1349.000000,0.008002685945
1350.000000,0.01135256613
1351.000000,0.01408536657
1352.000000,0.009334210173
1353.000000,0.012702282
1354.000000,0.01020095611
1355.000000,0.01201229374
1356.000000,0.01451288935
1357.000000,0.01182034749
1358.000000,0.01247844748
1359.000000,0.01305106499
1360.000000,0.01174381163
1361.000000,0.01433113463
1362.000000,0.007898831291
1363.000000,0.01126725777
1364.000000,0.008149496166
1365.000000,0.00895253983
1366.000000,0.01198335698
1367.000000,0.009642002964
1368.000000,0.01127266311
1369.000000,0.01480817948
1370.000000,0.01324506546
1371.000000,0.01966652896
1372.000000,0.0120551745
1373.000000,0.01244538221
1374.000000,0.007450592468
1375.000000,0.01236692958
1376.000000,0.01155052515
1377.000000,0.01346635807
1378.000000,0.01265027823
1379.000000,0.01134907228
1380.000000,0.008802278735
1381.000000,0.01427711141
1382.000000,0.0114158997
1383.000000,0.009442430702
1384.000000,0.01372415626
1385.000000,0.009027274803
1386.000000,0.01184984429
1387.000000,0.009028645085
1388.000000,0.01264831547
1389.000000,0.009939843383
1390.000000,0.01921372924
1391.000000,0.01574392884
1392.000000,0.01454270377
1393.000000,0.01440527717
1394.000000,0.01513826185
1395.000000,0.01564790197
1396.000000,0.01463003839
1397.000000,0.01203269462
1398.000000,0.01469230116
1399.000000,0.01138521903
1400.000000,0.01395505966
1401.000000,0.01566240935
1402.000000,0.0128558004
1403.000000,0.01611378794
1404.000000,0.0144741898
1405.000000,0.0204352228
1406.000000,0.01514218222
1407.000000,0.01715062504
1408.000000,0.0176668855
1409.000000,0.0169996308
1410.000000,0.01767623352
1411.000000,0.01683763031
1412.000000,0.01800521006
1413.000000,0.01848149387
1414.000000,0.02020756766
1415.000000,0.0215588244
1416.000000,0.01949037393
1417.000000,0.02289501581
1418.000000,0.02064928425
1419.000000,0.01940627553
1420.000000,0.02112787901
1421.000000,0.02143714304
1422.000000,0.02315741548
1423.000000,0.02466516936
1424.000000,0.02599870624
1425.000000,0.02904120438
1426.000000,0.02944451342
1427.000000,0.02850813715
1428.000000,0.03204760944
1429.000000,0.03258822929
1430.000000,0.03628971146
1431.000000,0.03951424625
1432.000000,0.03942248026
1433.000000,0.04418514501
1434.000000,0.04886129685
1435.000000,0.0508606993
1436.000000,0.05259383677
1437.000000,0.06001460085
1438.000000,0.06485856151
1439.000000,0.07620468702
1440.000000,0.08356004926
1441.000000,0.09437771424
1442.000000,0.1097692178
1443.000000,0.1223252303
1444.000000,0.13793878
1445.000000,0.1529040468
1446.000000,0.1756471018
1447.000000,0.1953306033
1448.000000,0.2138741094
1449.000000,0.2239806339
1450.000000,0.2321195873
1451.000000,0.2289808888
1452.000000,0.213571269
1453.000000,0.1938330141
1454.000000,0.1769621325
1455.000000,0.1561144274
1456.000000,0.1397341655
1457.000000,0.1208133815
1458.000000,0.1048534547
1459.000000,0.09110557676
1460.000000,0.08333214275
1461.000000,0.06971430554
1462.000000,0.06463266279
1463.000000,0.06188066182
1464.000000,0.05469600598
1465.000000,0.05027281821
1466.000000,0.04590080058
1467.000000,0.04016878942
1468.000000,0.03918316175
1469.000000,0.03828422543
1470.000000,0.0361319374
1471.000000,0.03102437562
1472.000000,0.03149770111
1473.000000,0.03162720433
1474.000000,0.02890141109
1475.000000,0.03018853545
1476.000000,0.02607741063
1477.000000,0.02178848966
1478.000000,0.02413908758
1479.000000,0.02366792809
1480.000000,0.0239587012
1481.000000,0.02295915862
1482.000000,0.02438052681
1483.000000,0.02200379907
1484.000000,0.02068643473
1485.000000,0.01879464033
1486.000000,0.0189424568
1487.000000,0.02162731517
1488.000000,0.02246195038
1489.000000,0.01904672973
1490.000000,0.01843570533
1491.000000,0.01736674026
1492.000000,0.01798416421
1493.000000,0.01738131423
1494.000000,0.01606273977
1495.000000,0.01864085321
1496.000000,0.01446975754
1497.000000,0.01677790411
1498.000000,0.01665100105
1499.000000,0.01748414919
1500.000000,0.01572353971
1501.000000,0.01401335433
1502.000000,0.01559929907
1503.000000,0.01363984994
1504.000000,0.01488168931
1505.000000,0.01397884777
1506.000000,0.02024917295
1507.000000,0.01102511966
1508.000000,0.01288599878
1509.000000,0.01767425496
1510.000000,0.01476119937
1511.000000,0.01239207806
1512.000000,0.01633836382
1513.000000,0.01925602865
1514.000000,0.01510513817
1515.000000,0.0167615203
1516.000000,0.01233812035
1517.000000,0.01384082743
1518.000000,0.01540460102
1519.000000,0.01536534267
1520.000000,0.01367239801
1521.000000,0.01386925108
1522.000000,0.01382020078
1523.000000,0.01351364146
1524.000000,0.01401846198
1525.000000,0.0140173213
1526.000000,0.01609351458
1527.000000,0.01242213205
1528.000000,0.01629353273
1529.000000,0.01885752688
1530.000000,0.01577200821
1531.000000,0.01459515926
1532.000000,0.01375837075
1533.000000,0.01468224573
1534.000000,0.01341071743
1535.000000,0.01643059406
1536.000000,0.01585350156
1537.000000,0.01770484155
1538.000000,0.01687948019
1539.000000,0.01809915554
1540.000000,0.01968863906
1541.000000,0.01880783425
1542.000000,0.02258319285
1543.000000,0.01960508543
1544.000000,0.01665955119
1545.000000,0.01905255046
1546.000000,0.01963315297
1547.000000,0.01863773939
1548.000000,0.02021729151
1549.000000,0.02023741248
1550.000000,0.02211687108
1551.000000,0.01963217744
1552.000000,0.01844185839
1553.000000,0.01991477522
1554.000000,0.01744767556
1555.000000,0.01653705956
1556.000000,0.02035985098
1557.000000,0.02206901642
1558.000000,0.02247805697
1559.000000,0.0270702202
1560.000000,0.02346059839
1561.000000,0.02425901944
1562.000000,0.03183287765
1563.000000,0.0261383578
1564.000000,0.03225375317
1565.000000,0.03223315948
1566.000000,0.02932364523
1567.000000,0.03868630507
1568.000000,0.03872721252
1569.000000,0.04327034069
1570.000000,0.04666168881
1571.000000,0.05130794018
1572.000000,0.05776493579
1573.000000,0.06680124679
1574.000000,0.07097321002
1575.000000,0.07997153563
1576.000000,0.09455608341
1577.000000,0.1092129863
1578.000000,0.1225216919
1579.000000,0.1518629697
1580.000000,0.1769112555
1581.000000,0.2044282392
1582.000000,0.2240305001
1583.000000,0.2408793034
1584.000000,0.2332292065
1585.000000,0.2147739113
1586.000000,0.1934125107
1587.000000,0.1734538862
1588.000000,0.1572815071
1589.000000,0.1478587785
1590.000000,0.141030509
1591.000000,0.1382450666
1592.000000,0.1428705068
1593.000000,0.1541439014
1594.000000,0.1669462053
1595.000000,0.1920237961
1596.000000,0.2291000285
1597.000000,0.2752147346
1598.000000,0.343513799
1599.000000,0.4229507931
1600.000000,0.5216567623
1601.000000,0.606877409
1602.000000,0.6418597602
1603.000000,0.6074470628
1604.000000,0.5194881181
1605.000000,0.4174633405
1606.000000,0.3294437883
1607.000000,0.2644889291
1608.000000,0.2123370995
1609.000000,0.1662819397
1610.000000,0.1411231943
1611.000000,0.1150495846
1612.000000,0.0988499224
1613.000000,0.08713030818
1614.000000,0.07540188357
1615.000000,0.07020818804
1616.000000,0.0610607574
1617.000000,0.05554327828
1618.000000,0.05091265267
1619.000000,0.05039349194
1620.000000,0.04397778141
1621.000000,0.04214755925
1622.000000,0.03872717654
1623.000000,0.03780575321
1624.000000,0.03346043085
1625.000000,0.0314636077
1626.000000,0.03256989658
1627.000000,0.0289417568
1628.000000,0.02415734285
1629.000000,0.02370002685
1630.000000,0.02433152511
1631.000000,0.02527456999
1632.000000,0.02190180071
1633.000000,0.02567729975
1634.000000,0.02282900294
1635.000000,0.02083039535
1636.000000,0.01833096705
1637.000000,0.02163160623
1638.000000,0.02096056966
1639.000000,0.01694909685
1640.000000,0.02147338178
1641.000000,0.02087807476
1642.000000,0.02101284574
1643.000000,0.0176589784
1644.000000,0.01925758238
1645.000000,0.01299997779
1646.000000,0.01763807761
1647.000000,0.01570446718
1648.000000,0.01608686964
1649.000000,0.01694152852
1650.000000,0.01441271311
1651.000000,0.01523154625
1652.000000,0.01342419568
1653.000000,0.01363002686
1654.000000,0.01278767164
1655.000000,0.01555123129
1656.000000,0.01720832626
1657.000000,0.01261945445
1658.000000,0.01121951359
1659.000000,0.01383093526
1660.000000,0.01492224169
1661.000000,0.01451050035
1662.000000,0.01155018311
1663.000000,0.01376533602
1664.000000,0.01196774583
1665.000000,0.01270838894
1666.000000,0.01318321945
1667.000000,0.01249111608
1668.000000,0.01416788992
1669.000000,0.01216113643
1670.000000,0.01609698902
1671.000000,0.01324434341
1672.000000,0.01069099891
1673.000000,0.01481338268
1674.000000,0.01449817703
1675.000000,0.01325572399
1676.000000,0.01266110915
1677.000000,0.01327765389
1678.000000,0.01424318567
1679.000000,0.01223690556
1680.000000,0.01407352613
1681.000000,0.01124813038
1682.000000,0.01331639281
1683.000000,0.01030324784
1684.000000,0.01291910942
1685.000000,0.01331904411
1686.000000,0.0110711379
1687.000000,0.01281743766
1688.000000,0.008369691426
1689.000000,0.01181918888
1690.000000,0.01145736228
1691.000000,0.0131752392
1692.000000,0.01182159633
1693.000000,0.01388145519
1694.000000,0.01559886482
1695.000000,0.01200107955
1696.000000,0.01351029734
1697.000000,0.01505430864
1698.000000,0.01360323481
1699.000000,0.01385846112
1700.000000,0.01126424707
1701.000000,0.01242920742
1702.000000,0.009658155773
1703.000000,0.01333604448
1704.000000,0.01244704727
1705.000000,0.01243125312
1706.000000,0.007905869269
1707.000000,0.01356967154
1708.000000,0.01454616417
1709.000000,0.01427153033
1710.000000,0.01241659282
1711.000000,0.01412248244
1712.000000,0.01156788342
1713.000000,0.0102008597
1714.000000,0.01136364353
1715.000000,0.01003076374
1716.000000,0.01486535518
1717.000000,0.006576571065
1718.000000,0.01185861489
1719.000000,0.009681091652
1720.000000,0.01025064204
1721.000000,0.01270751257
1722.000000,0.01114886012
1723.000000,0.013410103
1724.000000,0.01096363169
1725.000000,0.01097379848
1726.000000,0.01138910713
1727.000000,0.01361132176
1728.000000,0.009816371229
1729.000000,0.01051821728
1730.000000,0.01002759796
1731.000000,0.01018808866
1732.000000,0.008660151939
1733.000000,0.01044473218
1734.000000,0.01188609564
1735.000000,0.01376734986
1736.000000,0.01190763042
1737.000000,0.009840451255
1738.000000,0.01378597107
1739.000000,0.007588231123
1740.000000,0.01189071878
1741.000000,0.008562147909
1742.000000,0.010653779
1743.000000,0.008279437149
1744.000000,0.007912320544
1745.000000,0.009797704594
1746.000000,0.01432586239
1747.000000,0.01154573211
1748.000000,0.01259704579
1749.000000,0.01018721933
1750.000000,0.01087196939
1751.000000,0.009329739214
1752.000000,0.009674667077
1753.000000,0.01017046491
1754.000000,0.0126498943
1755.000000,0.01142867195
1756.000000,0.009352730052
1757.000000,0.01044331402
1758.000000,0.009078905662
1759.000000,0.01180691212
1760.000000,0.01127382709
1761.000000,0.0112467437
1762.000000,0.01212801379
1763.000000,0.01184714233
1764.000000,0.01359145046
1765.000000,0.009299770866
1766.000000,0.01218675428
1767.000000,0.01040788694
1768.000000,0.01255015781
1769.000000,0.009765623174
1770.000000,0.007532739322
1771.000000,0.009913463355
1772.000000,0.009504677229
1773.000000,0.008618158569
1774.000000,0.009986383298
1775.000000,0.01294731063
1776.000000,0.01005586372
1777.000000,0.01202448203
1778.000000,0.0133633907
1779.000000,0.01268960452
1780.000000,0.01159758814
1781.000000,0.01247543079
1782.000000,0.00984941682
1783.000000,0.008147744544
1784.000000,0.007733931806
1785.000000,0.01246762957
1786.000000,0.01329543576
1787.000000,0.01006814321
1788.000000,0.01069247699
1789.000000,0.006149326929
1790.000000,0.01203409796
1791.000000,0.01041215461
1792.000000,0.007006298884
1793.000000,0.01157218557
1794.000000,0.01177367895
1795.000000,0.01222953349
1796.000000,0.01038504641
1797.000000,0.01109407081
1798.000000,0.008902413532
1799.000000,0.01332437692
1800.000000,0.009942814176
1801.000000,0.01304773504
1802.000000,0.01164404798
1803.000000,0.01015749508
1804.000000,0.01315097491
1805.000000,0.00932903489
1806.000000,0.01132809248
1807.000000,0.0108867027
1808.000000,0.01035786178
1809.000000,0.01097759292
1810.000000,0.0119865629
1811.000000,0.009874801646
1812.000000,0.009639455191
1813.000000,0.0102140632
1814.000000,0.009520572692
1815.000000,0.008666131581
1816.000000,0.01110165949
1817.000000,0.007183593121
1818.000000,0.01034924268
1819.000000,0.009577524697
1820.000000,0.01077523442
1821.000000,0.01135317693
1822.000000,0.01093110951
1823.000000,0.01041469
1824.000000,0.01299265321
1825.000000,0.009409598973
1826.000000,0.008096944309
1827.000000,0.009954427067
1828.000000,0.01177384783
1829.000000,0.01392059122
1830.000000,0.01448231785
1831.000000,0.01116321612
1832.000000,0.01270784657
1833.000000,0.013615238
1834.000000,0.00954377049
1835.000000,0.0133794803
1836.000000,0.01135010361
1837.000000,0.01025930161
1838.000000,0.01155888277
1839.000000,0.01176412773
1840.000000,0.006591861323
1841.000000,0.01063189212
1842.000000,0.0108929084
1843.000000,0.009102439176
1844.000000,0.01080054223
1845.000000,0.009677933184
1846.000000,0.008873468657
1847.000000,0.01018927315
1848.000000,0.00655261551
1849.000000,0.01122688769
1850.000000,0.01143892489
1851.000000,0.01100294218
1852.000000,0.0114624616
1853.000000,0.009541099413
1854.000000,0.009275771225
1855.000000,0.006951521871
1856.000000,0.006990856646
1857.000000,0.008892513439
1858.000000,0.01212486663
1859.000000,0.0102914669
1860.000000,0.0129352675
1861.000000,0.0118276766
1862.000000,0.008353453065
1863.000000,0.009175897175
1864.000000,0.008201363219
1865.000000,0.007494448832
1866.000000,0.01079911225
1867.000000,0.01161229281
1868.000000,0.008556855323
1869.000000,0.012368204
1870.000000,0.01202800703
1871.000000,0.009213724552
1872.000000,0.01098955102
1873.000000,0.008449890687
1874.000000,0.0103614221
1875.000000,0.01135010644
1876.000000,0.00672283262
1877.000000,0.01318545833
1878.000000,0.007022017504
1879.000000,0.01050917606
1880.000000,0.00939083162
1881.000000,0.01205505963
1882.000000,0.008635638558
1883.000000,0.009394494651
1884.000000,0.01644002574
1885.000000,0.01367996827
1886.000000,0.01205709408
1887.000000,0.008981171116
1888.000000,0.01104375599
1889.000000,0.007125931046
1890.000000,0.008807006447
1891.000000,0.0111940643
1892.000000,0.01189156239
1893.000000,0.009666715034
1894.000000,0.01177385473
1895.000000,0.01197637425
1896.000000,0.00840500921
1897.000000,0.0108121424
1898.000000,0.01022697561
1899.000000,0.01312862134
1900.000000,0.007877297428
1901.000000,0.01119773307
1902.000000,0.009999001006
1903.000000,0.01430238865
1904.000000,0.005800291223
1905.000000,0.01364711926
1906.000000,0.00992144973
1907.000000,0.01134696128
1908.000000,0.007346502869
1909.000000,0.007704187517
1910.000000,0.009776856958
1911.000000,0.0104188489
1912.000000,0.00544440477
1913.000000,0.008956375028
1914.000000,0.009348171345
1915.000000,0.009924971915
1916.000000,0.0115733898
1917.000000,0.01085048254
1918.000000,0.009717111023
1919.000000,0.007809403614
1920.000000,0.007040008518
1921.000000,0.01041903277
1922.000000,0.01311293325
1923.000000,0.01024780657
1924.000000,0.01205398023
1925.000000,0.007986894247
1926.000000,0.01205366992
1927.000000,0.009826060128
1928.000000,0.01044714079
1929.000000,0.01154679449
1930.000000,0.0117431972
1931.000000,0.01076117145
1932.000000,0.01100769708
1933.000000,0.01089039796
1934.000000,0.008838947138
1935.000000,0.009634326772
1936.000000,0.01026115178
1937.000000,0.01346396286
1938.000000,0.007898498574
1939.000000,0.01042804774
1940.000000,0.01220337846
1941.000000,0.01158986759
1942.000000,0.008409224799
1943.000000,0.007752364457
1944.000000,0.00916823426
1945.000000,0.01081817271
1946.000000,0.0118270182
1947.000000,0.009810488368
1948.000000,0.01045877525
1949.000000,0.009443416222
1950.000000,0.008581483291
1951.000000,0.01261450114
1952.000000,0.01366709293
1953.000000,0.009925936699
1954.000000,0.008608617148
1955.000000,0.0115023897
1956.000000,0.007325252664
1957.000000,0.007587696678
1958.000000,0.01050317985
1959.000000,0.01379595122
1960.000000,0.009455846517
1961.000000,0.0103303179
1962.000000,0.01325500151
1963.000000,0.007891897707
1964.000000,0.007141549239
1965.000000,0.01447474345
1966.000000,0.01220548103
1967.000000,0.009434054039
1968.000000,0.01123338717
1969.000000,0.01200242658
1970.000000,0.009688414662
1971.000000,0.01518498621
1972.000000,0.006974003647
1973.000000,0.01339207911
1974.000000,0.01098348668
1975.000000,0.01057846847
1976.000000,0.01072829731
1977.000000,0.008950495213
1978.000000,0.009827764382
1979.000000,0.009229351415
1980.000000,0.007360281551
1981.000000,0.01137709137
1982.000000,0.007572548842
1983.000000,0.008287740427
1984.000000,0.0140350119
1985.000000,0.009168598682
1986.000000,0.01322578471
1987.000000,0.01280033015
1988.000000,0.01060852927
1989.000000,0.0132665417
1990.000000,0.009055227024
1991.000000,0.008419246984
1992.000000,0.00924276916
1993.000000,0.009451896143
1994.000000,0.01114262224
1995.000000,0.01404116322
1996.000000,0.008490151186
1997.000000,0.009598780619
1998.000000,0.01009658055
1999.000000,0.01066902329
2000.000000,0.009495927356
