raman_shift_cm-1,intensity
200.000000,0.01277471288
201.000000,0.01075962066
202.000000,0.007747681594
203.000000,0.009699713872
204.000000,0.009395181124
205.000000,0.009618983663
206.000000,0.01126827583
207.000000,0.007516745656
208.000000,0.01200833224
209.000000,0.007819331096
210.000000,0.009698567554
211.000000,0.01184969582
212.000000,0.01140330647
213.000000,0.008694156027
214.000000,0.01361415807
215.000000,0.01080768349
216.000000,0.008168020137
217.000000,0.01016221426
218.000000,0.008415283092
219.000000,0.01094599444
220.000000,0.007394241329
221.000000,0.0110382176
222.000000,0.0065373155
223.000000,0.01227191927
224.000000,0.01062324693
225.000000,0.01279216722
226.000000,0.008658450244
227.000000,0.005890684809
228.000000,0.007340708253
229.000000,0.009594952494
230.000000,0.0140080851
231.000000,0.01122431481
232.000000,0.01270467631
233.000000,0.008325695446
234.000000,0.009018223785
235.000000,0.009415833231
236.000000,0.01242076635
237.000000,0.008952707332
238.000000,0.009500706791
239.000000,0.01332471978
240.000000,0.008337599502
241.000000,0.01001771323
242.000000,0.007394723628
243.000000,0.009612454304
244.000000,0.0117430585
245.000000,0.01246957048
246.000000,0.007301326933
247.000000,0.005034568765
248.000000,0.01116256346
249.000000,0.01342020503
250.000000,0.008684494084
251.000000,0.01061533107
252.000000,0.01014004945
253.000000,0.005773141884
254.000000,0.004746259149
255.000000,0.009953362643
256.000000,0.01105988236
257.000000,0.00705391409
258.000000,0.009434070587
259.000000,0.008502164987
260.000000,0.008161243958
261.000000,0.007507697474
262.000000,0.01242968196
263.000000,0.01011105953
264.000000,0.00962296302
265.000000,0.009111521399
266.000000,0.01084909971
267.000000,0.009062304087
268.000000,0.01039049638
269.000000,0.00852491879
270.000000,0.01075499979
271.000000,0.009438284586
272.000000,0.01117209392
273.000000,0.006896945883
274.000000,0.008427865061
275.000000,0.007535367789
276.000000,0.01313993028
277.000000,0.008763516078
278.000000,0.009848125012
279.000000,0.006520281842
280.000000,0.008051111083
281.000000,0.006524822403
282.000000,0.009706747066
283.000000,0.007979568666
284.000000,0.01297575074
285.000000,0.00813877213
286.000000,0.01190799237
287.000000,0.009613246835
288.000000,0.01092286351
289.000000,0.008052634103
290.000000,0.009790570774
291.000000,0.009572528531
292.000000,0.008311160528
293.000000,0.01099958111
294.000000,0.006900870202
295.000000,0.009544279544
296.000000,0.009484678861
297.000000,0.01006861791
298.000000,0.00758669161
299.000000,0.0112221466
300.000000,0.008093522901
301.000000,0.008692908887
302.000000,0.0079740157
303.000000,0.009124331326
304.000000,0.01065370569
305.000000,0.01570869095
306.000000,0.004605928765
307.000000,0.01173703975
308.000000,0.01168556533
309.000000,0.01286699786
310.000000,0.01044624314
311.000000,0.01087052105
312.000000,0.01353496007
313.000000,0.01017235595
314.000000,0.010339133
315.000000,0.009976436914
316.000000,0.01088236773
317.000000,0.01354371604
318.000000,0.008219813872
319.000000,0.01235117931
320.000000,0.005370065702
321.000000,0.01094113047
322.000000,0.009161341413
323.000000,0.01256434769
324.000000,0.01162286293
325.000000,0.01158021625
326.000000,0.0111480143
327.000000,0.0106695402
328.000000,0.00593790126
329.000000,0.01058689879
330.000000,0.007274087296
331.000000,0.0120926849
332.000000,0.00864419032
333.000000,0.009986592829
334.000000,0.008972161303
335.000000,0.01011263631
336.000000,0.01033505199
337.000000,0.01097710911
338.000000,0.007453760591
339.000000,0.01304683215
340.000000,0.00777698188
341.000000,0.009572756247
342.000000,0.00451119832
343.000000,0.0104947983
344.000000,0.01185023829
345.000000,0.01231392114
346.000000,0.01094035583
347.000000,0.01086804573
348.000000,0.008572053382
349.000000,0.009088330019
350.000000,0.009494597722
351.000000,0.0101933042
352.000000,0.007741970851
353.000000,0.009163055681
354.000000,0.01095558021
355.000000,0.01022624328
356.000000,0.009639137281
357.000000,0.008272423391
358.000000,0.010487552
359.000000,0.01027713735
360.000000,0.01288071219
361.000000,0.009942107335
362.000000,0.0118714036
363.000000,0.007272072501
364.000000,0.01346725981
365.000000,0.007167794109
366.000000,0.00972811263
367.000000,0.009151980808
368.000000,0.008692056174
369.000000,0.009217257666
370.000000,0.008764489251
371.000000,0.01004385749
372.000000,0.01037154226
373.000000,0.01211495795
374.000000,0.012306423
375.000000,0.0133528976
376.000000,0.01079317643
377.000000,0.008240616476
378.000000,0.01449614305
379.000000,0.01097124589
380.000000,0.004795685122
381.000000,0.01139406711
382.000000,0.009586026304
383.000000,0.008450999487
384.000000,0.008661369975
385.000000,0.009984384857
386.000000,0.008243158983
387.000000,0.01034429999
388.000000,0.009533805071
389.000000,0.009517077215
390.000000,0.01078404603
391.000000,0.01054904138
392.000000,0.01309717504
393.000000,0.01085136552
394.000000,0.007998924091
395.000000,0.009959493128
396.000000,0.01332031326
397.000000,0.01334554666
398.000000,0.008343938339
399.000000,0.01129242582
400.000000,0.009017788649
401.000000,0.009414835736
402.000000,0.006876698413
403.000000,0.006691931465
404.000000,0.009353198864
405.000000,0.01043927062
406.000000,0.01093987822
407.000000,0.00821712282
408.000000,0.009471818886
409.000000,0.01018240697
410.000000,0.009621230936
411.000000,0.004364110812
412.000000,0.007829112265
413.000000,0.01013466686
414.000000,0.01108268346
415.000000,0.00808435902
416.000000,0.01197339649
417.000000,0.003998367421
418.000000,0.01244018055
419.000000,0.00848473222
420.000000,0.00990762838
421.000000,0.008021066703
422.000000,0.007509197223
423.000000,0.009253661908
424.000000,0.00999505777
425.000000,0.0076220841
426.000000,0.01148614983
427.000000,0.00902729298
428.000000,0.01006672246
429.000000,0.00844354926
430.000000,0.008559878199
431.000000,0.009806947848
432.000000,0.007137814773
433.000000,0.01123492412
434.000000,0.007300962273
435.000000,0.01068370832
436.000000,0.007583822239
437.000000,0.009423815212
438.000000,0.008448590148
439.000000,0.01230719623
440.000000,0.01329491348
441.000000,0.009014527128
442.000000,0.01078520147
443.000000,0.01035983419
444.000000,0.01137707432
445.000000,0.01200386244
446.000000,0.01356416178
447.000000,0.01009532269
448.000000,0.006309130935
449.000000,0.01132253176
450.000000,0.009168778112
451.000000,0.009643488216
452.000000,0.01243209176
453.000000,0.0130685149
454.000000,0.01017431085
455.000000,0.01250622792
456.000000,0.01089188202
457.000000,0.01163486721
458.000000,0.009764050414
459.000000,0.01272833502
460.000000,0.008823955974
461.000000,0.01015883213
462.000000,0.01189936511
463.000000,0.008096600675
464.000000,0.01079241278
465.000000,0.01095730974
466.000000,0.01169242208
467.000000,0.01352361978
468.000000,0.005825721006
469.000000,0.01199322303
470.000000,0.01077905982
471.000000,0.0124139438
472.000000,0.01145833627
473.000000,0.008758129336
474.000000,0.008964021054
475.000000,0.008078288372
476.000000,0.01255662123
477.000000,0.008831482936
478.000000,0.01071804997
479.000000,0.009602908129
480.000000,0.005955105677
481.000000,0.009395129735
482.000000,0.009695955833
483.000000,0.01296794355
484.000000,0.00961259814
485.000000,0.007792234703
486.000000,0.008952086228
487.000000,0.01172254747
488.000000,0.01127459909
489.000000,0.01118766808
490.000000,0.01146104791
491.000000,0.008485393178
492.000000,0.01196480295
493.000000,0.0108255926
494.000000,0.005940510114
495.000000,0.008914623569
496.000000,0.01277508638
497.000000,0.009057550014
498.000000,0.009413654141
499.000000,0.0102617585
500.000000,0.01050119429
501.000000,0.01015563331
502.000000,0.01135547942
503.000000,0.008716094529
504.000000,0.007291224355
505.000000,0.0102203112
506.000000,0.01013540076
507.000000,0.01225772039
508.000000,0.01450578201
509.000000,0.0113399614
510.000000,0.01212513145
511.000000,0.01380531723
512.000000,0.01203586046
513.000000,0.01179567642
514.000000,0.008577320431
515.000000,0.009642687969
516.000000,0.008901476108
517.000000,0.009720497037
518.000000,0.01254145191
519.000000,0.01182721454
520.000000,0.01051785053
521.000000,0.006125306473
522.000000,0.01165178229
523.000000,0.01158089574
524.000000,0.008152587732
525.000000,0.01065988568
526.000000,0.009920862378
527.000000,0.01179423401
528.000000,0.00634484353
529.000000,0.00791554008
530.000000,0.01314275074
531.000000,0.008407096971
532.000000,0.008895751621
533.000000,0.009613905854
534.000000,0.01101891014
535.000000,0.01318502403
536.000000,0.01040045297
537.000000,0.01243837759
538.000000,0.01147589412
539.000000,0.009489188354
540.000000,0.01391515684
541.000000,0.0127537604
542.000000,0.009955896253
543.000000,0.01033068259
544.000000,0.008636185394
545.000000,0.007213185272
546.000000,0.0104765677
547.000000,0.01296857443
548.000000,0.004936518713
549.000000,0.009562094708
550.000000,0.01504451089
551.000000,0.01418018589
552.000000,0.009121106089
553.000000,0.009658513798
554.000000,0.01387577409
555.000000,0.008984387162
556.000000,0.01104087326
557.000000,0.009488091629
558.000000,0.0121526195
559.000000,0.01169910691
560.000000,0.01497626073
561.000000,0.009289162305
562.000000,0.008081876892
563.000000,0.01070235747
564.000000,0.01202284527
565.000000,0.01085624865
566.000000,0.0166304126
567.000000,0.01054636573
568.000000,0.01116727262
569.000000,0.01354987914
570.000000,0.01526259041
571.000000,0.01218560633
572.000000,0.01325155223
573.000000,0.009377052812
574.000000,0.01001444917
575.000000,0.01271586027
576.000000,0.01376560493
577.000000,0.01342102285
578.000000,0.01345803617
579.000000,0.01415598987
580.000000,0.01252868143
581.000000,0.01205029342
582.000000,0.01233233102
583.000000,0.01035255246
584.000000,0.01176171576
585.000000,0.01171629011
586.000000,0.01475797197
587.000000,0.01873824442
588.000000,0.0155003884
589.000000,0.01828875596
590.000000,0.01271658146
591.000000,0.0139406839
592.000000,0.01475812568
593.000000,0.01784688975
594.000000,0.01996083611
595.000000,0.01819601279
596.000000,0.01770971063
597.000000,0.0177336989
598.000000,0.01674914333
599.000000,0.01962311153
600.000000,0.020297588
601.000000,0.02034409122
602.000000,0.01956809113
603.000000,0.02277825419
604.000000,0.02367345726
605.000000,0.02394745678
606.000000,0.02996890574
607.000000,0.02979083257
608.000000,0.03415030368
609.000000,0.03420475473
610.000000,0.04014724712
611.000000,0.04523144369
612.000000,0.05179527998
613.000000,0.06358650982
614.000000,0.07503806328
615.000000,0.08881976239
616.000000,0.1099348879
617.000000,0.1354361229
618.000000,0.1609552388
619.000000,0.1860167596
620.000000,0.1860512807
621.000000,0.1840513265
622.000000,0.1625554008
623.000000,0.1363132544
624.000000,0.1098497819
625.000000,0.08983550862
626.000000,0.07159395306
627.000000,0.06434964721
628.000000,0.05286117092
629.000000,0.04561888241
630.000000,0.04439434202
631.000000,0.03463100386
632.000000,0.03286249488
633.000000,0.0313445174
634.000000,0.02742642799
635.000000,0.02649832064
636.000000,0.02452100407
637.000000,0.02315439666
638.000000,0.01896467875
639.000000,0.01787665549
640.000000,0.02172917905
641.000000,0.01978778808
642.000000,0.01771457895
643.000000,0.01610542525
644.000000,0.0198670252
645.000000,0.01580144465
646.000000,0.01415631839
647.000000,0.01780729109
648.000000,0.01329220416
649.000000,0.01435413989
650.000000,0.01506085082
651.000000,0.01230342618
652.000000,0.01489232078
653.000000,0.01474148931
654.000000,0.01502468765
655.000000,0.01342772977
656.000000,0.01682024396
657.000000,0.01346696724
658.000000,0.0125024881
659.000000,0.01399876355
660.000000,0.01220321848
661.000000,0.008167592795
662.000000,0.01538798407
663.000000,0.009338174207
664.000000,0.008872678046
665.000000,0.0133952403
666.000000,0.01127916996
667.000000,0.01474634761
668.000000,0.01453921562
669.000000,0.01462762642
670.000000,0.01192702207
671.000000,0.0129809792
672.000000,0.009771660865
673.000000,0.01367627047
674.000000,0.01200007355
675.000000,0.0118553483
676.000000,0.01234534013
677.000000,0.01216907025
678.000000,0.01282527416
679.000000,0.01358962581
680.000000,0.01176578611
681.000000,0.01098093337
682.000000,0.009217278699
683.000000,0.015101975
684.000000,0.01249731488
685.000000,0.011065917
686.000000,0.008525911062
687.000000,0.01275977287
688.000000,0.009055639976
689.000000,0.01212015483
690.000000,0.01078503221
691.000000,0.01373259791
692.000000,0.01064270191
693.000000,0.009256660965
694.000000,0.007300468898
695.000000,0.01031907887
696.000000,0.01464840587
697.000000,0.01194512359
698.000000,0.01056332162
699.000000,0.01365847344
700.000000,0.01008700596
701.000000,0.01330020897
702.000000,0.008750256034
703.000000,0.008958063655
704.000000,0.01302173927
705.000000,0.008603034017
706.000000,0.01343761918
707.000000,0.01125140099
708.000000,0.01502216195
709.000000,0.01015204514
710.000000,0.01075768006
711.000000,0.01442622987
712.000000,0.01002979678
713.000000,0.01170878621
714.000000,0.009481725542
715.000000,0.01322631007
716.000000,0.01135115136
717.000000,0.009237873561
718.000000,0.01146093527
719.000000,0.009405800619
720.000000,0.01281737821
721.000000,0.009123992267
722.000000,0.0161391497
723.000000,0.01593361194
724.000000,0.007804180039
725.000000,0.01237995601
726.000000,0.009800284592
727.000000,0.009975070411
728.000000,0.009032826524
729.000000,0.01452728074
730.000000,0.007814213468
731.000000,0.01486941803
732.000000,0.008314519192
733.000000,0.01335175105
734.000000,0.01134230235
735.000000,0.01060076686
736.000000,0.009849871773
737.000000,0.01103419994
738.000000,0.01240886444
739.000000,0.01493337687
740.000000,0.008215363522
741.000000,0.01253793987
742.000000,0.01158370545
743.000000,0.01046328063
744.000000,0.01173697098
745.000000,0.01202130277
746.000000,0.01039277602
747.000000,0.01117088449
748.000000,0.01285278386
749.000000,0.01141703314
750.000000,0.0131931162
751.000000,0.01071087519
752.000000,0.01307443488
753.000000,0.01358797873
754.000000,0.01361520694
755.000000,0.0134157321
756.000000,0.01305465971
757.000000,0.01270804371
758.000000,0.01194263138
759.000000,0.01213394731
760.000000,0.01376297925
761.000000,0.01077448977
762.000000,0.01706049734
763.000000,0.01136518283
764.000000,0.01401311975
765.000000,0.01700729547
766.000000,0.01820103172
767.000000,0.01644461337
768.000000,0.01561904977
769.000000,0.01305915886
770.000000,0.01700530372
771.000000,0.0160610413
772.000000,0.01439967523
773.000000,0.01707881505
774.000000,0.02037358314
775.000000,0.02029748215
776.000000,0.02074633249
777.000000,0.02258441743
778.000000,0.02302291567
779.000000,0.02390626526
780.000000,0.02422004137
781.000000,0.02670415954
782.000000,0.02763117082
783.000000,0.02967453358
784.000000,0.03219550278
785.000000,0.04055203944
786.000000,0.04282032849
787.000000,0.048499343
788.000000,0.05325960003
789.000000,0.06136522858
790.000000,0.06856418846
791.000000,0.07897466536
792.000000,0.09266046428
793.000000,0.1045296348
794.000000,0.1044345831
795.000000,0.1092906679
796.000000,0.106458207
797.000000,0.09827735626
798.000000,0.08944498014
799.000000,0.07882479
800.000000,0.06742999027
801.000000,0.06115544172
802.000000,0.04962364067
803.000000,0.04924090181
804.000000,0.04278478495
805.000000,0.03624635413
806.000000,0.03144181304
807.000000,0.0286387737
808.000000,0.02823303512
809.000000,0.02929776459
810.000000,0.02668712482
811.000000,0.02478110946
812.000000,0.01958512689
813.000000,0.02050097593
814.000000,0.02110155373
815.000000,0.01968356212
816.000000,0.01890347712
817.000000,0.01730256054
818.000000,0.01637831725
819.000000,0.01651012986
820.000000,0.01658488234
821.000000,0.01572648159
822.000000,0.01766891912
823.000000,0.01383490907
824.000000,0.01902183185
825.000000,0.01571209382
826.000000,0.01416332503
827.000000,0.01604407848
828.000000,0.01509574125
829.000000,0.01064312082
830.000000,0.01308295394
831.000000,0.01597388278
832.000000,0.01385315199
833.000000,0.01624750972
834.000000,0.01204187597
835.000000,0.01311681041
836.000000,0.01210044403
837.000000,0.01294357848
838.000000,0.01150276175
839.000000,0.01137253228
840.000000,0.01489184289
841.000000,0.01042230493
842.000000,0.01189450163
843.000000,0.01432210808
844.000000,0.01639248513
845.000000,0.0155474326
846.000000,0.01396010446
847.000000,0.01180274632
848.000000,0.01231490383
849.000000,0.01396596907
850.000000,0.0121156524
851.000000,0.00874054073
852.000000,0.0122459212
853.000000,0.01144951758
854.000000,0.006608469213
855.000000,0.01168016989
856.000000,0.01084298327
857.000000,0.01261014017
858.000000,0.01206521778
859.000000,0.01441141655
860.000000,0.01426175435
861.000000,0.01090912349
862.000000,0.009124859658
863.000000,0.01174091254
864.000000,0.0146271018
865.000000,0.01173174885
866.000000,0.01197088708
867.000000,0.01267540046
868.000000,0.01142208756
869.000000,0.01131391014
870.000000,0.01141272682
871.000000,0.01150354269
872.000000,0.009273034617
873.000000,0.01497525049
874.000000,0.009673120771
875.000000,0.01363956027
876.000000,0.01001458169
877.000000,0.01366756351
878.000000,0.01198914057
879.000000,0.0126819252
880.000000,0.01550433017
881.000000,0.01268252361
882.000000,0.01019723285
883.000000,0.01040813473
884.000000,0.008411294371
885.000000,0.008957588733
886.000000,0.009799113879
887.000000,0.01321352289
888.000000,0.0108085459
889.000000,0.01286484727
890.000000,0.01011310654
891.000000,0.009626419535
892.000000,0.01072350603
893.000000,0.01009844484
894.000000,0.01156314698
895.000000,0.01585302348
896.000000,0.01197402117
897.000000,0.01355178327
898.000000,0.01204580018
899.000000,0.009650541112
900.000000,0.009449186877
901.000000,0.01344320299
902.000000,0.01135881612
903.000000,0.01277766781
904.000000,0.01032038644
905.000000,0.008999714256
906.000000,0.01262957667
907.000000,0.01176289195
908.000000,0.009015227874
909.000000,0.01287878872
910.000000,0.0146408397
911.000000,0.01173280739
912.000000,0.01233545556
913.000000,0.0110705655
914.000000,0.0112964787
915.000000,0.01289559021
916.000000,0.01441908118
917.000000,0.01178447571
918.000000,0.01139418946
919.000000,0.01047333643
920.000000,0.01254693697
921.000000,0.0134189723
922.000000,0.01182145554
923.000000,0.009798836891
924.000000,0.01435341084
925.000000,0.01380802899
926.000000,0.01109851208
927.000000,0.01544060323
928.000000,0.01258822708
929.000000,0.01284464237
930.000000,0.01122212366
931.000000,0.01444209889
932.000000,0.01477109856
933.000000,0.01052741102
934.000000,0.01286927597
935.000000,0.008914278389
936.000000,0.01030707524
937.000000,0.01174525831
938.000000,0.01476358876
939.000000,0.01359689877
940.000000,0.01421981911
941.000000,0.01253482142
942.000000,0.01469701609
943.000000,0.01121752127
944.000000,0.01509757842
945.000000,0.01179690471
946.000000,0.01474386475
947.000000,0.01708245949
948.000000,0.01617327084
949.000000,0.01640601632
950.000000,0.01601720766
951.000000,0.01004980024
952.000000,0.01358981583
953.000000,0.01672787125
954.000000,0.01508639072
955.000000,0.01411584184
956.000000,0.0167959792
957.000000,0.01827617268
958.000000,0.01491161381
959.000000,0.01771774356
960.000000,0.01735924013
961.000000,0.01842714992
962.000000,0.02078889094
963.000000,0.01759178697
964.000000,0.02029118127
965.000000,0.02211929141
966.000000,0.01632576239
967.000000,0.01951776928
968.000000,0.01904356204
969.000000,0.02183249573
970.000000,0.0199129382
971.000000,0.02135115188
972.000000,0.02413699572
973.000000,0.02326171454
974.000000,0.02205525421
975.000000,0.0239890584
976.000000,0.024833714
977.000000,0.02531130754
978.000000,0.03078295177
979.000000,0.03367277396
980.000000,0.03054443377
981.000000,0.03886307443
982.000000,0.03797602792
983.000000,0.03639386175
984.000000,0.03956037489
985.000000,0.04447915965
986.000000,0.05366918638
987.000000,0.05399214129
988.000000,0.06159684592
989.000000,0.07470440269
990.000000,0.08175599379
991.000000,0.0966712558
992.000000,0.1102025238
993.000000,0.1373707828
994.000000,0.1673253005
995.000000,0.2127220918
996.000000,0.2764876259
997.000000,0.3754457891
998.000000,0.5088793589
999.000000,0.7078642044
1000.000000,0.9179932393
1001.000000,1.017788311
1002.000000,0.9129065009
1003.000000,0.7107698465
1004.000000,0.5184747733
1005.000000,0.3797042823
1006.000000,0.2820298184
1007.000000,0.2218051669
1008.000000,0.1761300028
1009.000000,0.141791006
1010.000000,0.1202266135
1011.000000,0.1048894834
1012.000000,0.09488313805
1013.000000,0.08597868801
1014.000000,0.0795294405
1015.000000,0.07191630052
1016.000000,0.07020153737
1017.000000,0.06697674593
1018.000000,0.06886610747
1019.000000,0.06819335865
1020.000000,0.07291493483
1021.000000,0.08029169507
1022.000000,0.08443176616
1023.000000,0.09816610442
1024.000000,0.1138977595
1025.000000,0.1307282323
1026.000000,0.1666465046
1027.000000,0.2079534058
1028.000000,0.2634238798
1029.000000,0.3382367746
1030.000000,0.4080592895
1031.000000,0.441200627
1032.000000,0.4090603016
1033.000000,0.3349129063
1034.000000,0.2607528607
1035.000000,0.1994199248
1036.000000,0.1526428215
1037.000000,0.1211342529
1038.000000,0.1024191636
1039.000000,0.08055462351
1040.000000,0.07089942907
1041.000000,0.06447945542
1042.000000,0.05613391843
1043.000000,0.05128562566
1044.000000,0.04104349968
1045.000000,0.04128539588
1046.000000,0.03802182531
1047.000000,0.03388395023
1048.000000,0.03246564431
1049.000000,0.02990479051
1050.000000,0.03151263698
1051.000000,0.0255332636
1052.000000,0.02296464514
1053.000000,0.02635306136
1054.000000,0.02065920578
1055.000000,0.0208125169
1056.000000,0.02241598956
1057.000000,0.02009422635
1058.000000,0.01846467437
1059.000000,0.02171688916
1060.000000,0.01563548204
1061.000000,0.01951864315
1062.000000,0.01707574684
1063.000000,0.01729484995
1064.000000,0.01907651147
1065.000000,0.0183641918
1066.000000,0.0173703319
1067.000000,0.02088027484
1068.000000,0.0153478076
1069.000000,0.01977235565
1070.000000,0.01654491265
1071.000000,0.01608261398
1072.000000,0.01631487471
1073.000000,0.01780502968
1074.000000,0.01206647771
1075.000000,0.01947119743
1076.000000,0.01960563638
1077.000000,0.01252085524
1078.000000,0.01235576275
1079.000000,0.01378315717
1080.000000,0.01369150222
1081.000000,0.01454540511
1082.000000,0.01437063172
1083.000000,0.01415418665
1084.000000,0.01848621832
1085.000000,0.01289634567
1086.000000,0.01230295172
1087.000000,0.01629298541
1088.000000,0.01689973543
1089.000000,0.01278721347
1090.000000,0.01477826623
1091.000000,0.01369219327
1092.000000,0.01070317327
1093.000000,0.01299707224
1094.000000,0.01474577213
1095.000000,0.01109471287
1096.000000,0.01160018277
1097.000000,0.01351017697
1098.000000,0.01835966421
1099.000000,0.01659469824
1100.000000,0.01394042418
1101.000000,0.01422721408
1102.000000,0.0163223752
1103.000000,0.01293309628
1104.000000,0.01482314865
1105.000000,0.01235774291
1106.000000,0.01455308989
1107.000000,0.01601485847
1108.000000,0.0119292832
1109.000000,0.01558985507
1110.000000,0.0158654064
1111.000000,0.01341213171
1112.000000,0.01039912775
1113.000000,0.0141064614
1114.000000,0.01988316801
1115.000000,0.01379468529
1116.000000,0.01255237195
1117.000000,0.01587536229
1118.000000,0.0135213988
1119.000000,0.01283248317
1120.000000,0.01569262755
1121.000000,0.01785711833
1122.000000,0.01597995089
1123.000000,0.0153488086
1124.000000,0.01633593471
1125.000000,0.01370983476
1126.000000,0.01376740023
1127.000000,0.02061695353
1128.000000,0.0163271926
1129.000000,0.01690813132
1130.000000,0.01718030812
1131.000000,0.01612455553
1132.000000,0.02002670105
1133.000000,0.013835514
1134.000000,0.0204587619
1135.000000,0.01930314454
1136.000000,0.02198350425
1137.000000,0.02416188384
1138.000000,0.02387832272
1139.000000,0.0223131332
1140.000000,0.02764402934
1141.000000,0.02857405322
1142.000000,0.03416276061
1143.000000,0.0316680283
1144.000000,0.04057086526
1145.000000,0.03949217629
1146.000000,0.04408080465
1147.000000,0.04673934533
1148.000000,0.05945517102
1149.000000,0.07189718184
1150.000000,0.08237443891
1151.000000,0.09822336018
1152.000000,0.1182735551
1153.000000,0.1363486736
1154.000000,0.1470519912
1155.000000,0.1558430594
1156.000000,0.1508552346
1157.000000,0.1404751948
1158.000000,0.1161304502
1159.000000,0.09687394421
1160.000000,0.08568895979
1161.000000,0.07097395069
1162.000000,0.06143753093
1163.000000,0.0561201507
1164.000000,0.05077929042
1165.000000,0.04559448293
1166.000000,0.04366283304
1167.000000,0.04138258778
1168.000000,0.03814281289
1169.000000,0.04026649255
1170.000000,0.04093781095
1171.000000,0.03838966163
1172.000000,0.04194072396
1173.000000,0.04198713265
1174.000000,0.04353814385
1175.000000,0.04744359633
1176.000000,0.05767285013
1177.000000,0.05911160437
1178.000000,0.06855769775
1179.000000,0.08608980236
1180.000000,0.09943354111
1181.000000,0.112925273
1182.000000,0.1274068728
1183.000000,0.1345297428
1184.000000,0.1265919417
1185.000000,0.1143173844
1186.000000,0.09674588616
1187.000000,0.08157380964
1188.000000,0.06486600224
1189.000000,0.05653568393
1190.000000,0.0491238353
1191.000000,0.03923141967
1192.000000,0.03424634363
1193.000000,0.03576691447
1194.000000,0.02947384148
1195.000000,0.02502346221
1196.000000,0.02758757072
1197.000000,0.02333068487
1198.000000,0.01903550701
1199.000000,0.02024168857
1200.000000,0.02064876761
1201.000000,0.02183241997
1202.000000,0.01609458696
1203.000000,0.01851366606
1204.000000,0.01956429193
1205.000000,0.01128716283
1206.000000,0.0161170835
1207.000000,0.01729707652
1208.000000,0.01572296796
1209.000000,0.01488959117
1210.000000,0.01262172951
1211.000000,0.01577405197
1212.000000,0.01419471527
1213.000000,0.01228232006
1214.000000,0.01509533382
1215.000000,0.01499422324
1216.000000,0.0130731424
1217.000000,0.01474887542
1218.000000,0.01358769854
1219.000000,0.01315660713
1220.000000,0.01861442782
1221.000000,0.01331714145
1222.000000,0.01207444308
1223.000000,0.01401363415
1224.000000,0.01480019713
1225.000000,0.01296870119
1226.000000,0.009746498359
1227.000000,0.01306560797
1228.000000,0.01172977385
1229.000000,0.0115008584
1230.000000,0.01482743992
1231.000000,0.01459911687
1232.000000,0.01355964188
1233.000000,0.0154553466
1234.000000,0.01420422611
1235.000000,0.01462989952
1236.000000,0.01191933715
1237.000000,0.01269033856
1238.000000,0.0121381013
1239.000000,0.01582862155
1240.000000,0.01114302857
1241.000000,0.01370982536
1242.000000,0.009793270613
1243.000000,0.01393523393
1244.000000,0.01111688774
1245.000000,0.01025147198
1246.000000,0.01346183158
1247.000000,0.01294553426
1248.000000,0.0116636822
1249.000000,0.01100366915
1250.000000,0.01149322711
1251.000000,0.01415787428
1252.000000,0.01105733172
1253.000000,0.009580694277
1254.000000,0.01346702407
1255.000000,0.008677453308
1256.000000,0.01164927811
1257.000000,0.01370857435
1258.000000,0.01175172336
1259.000000,0.01414139449
1260.000000,0.01630071549
1261.000000,0.009695694509
1262.000000,0.009572858749
1263.000000,0.01027413849
1264.000000,0.0103996579
1265.000000,0.008607252701
1266.000000,0.01410566278
1267.000000,0.01347870207
1268.000000,0.01426690144
1269.000000,0.01166634645
1270.000000,0.01100769797
1271.000000,0.009754144413
1272.000000,0.01354576449
1273.000000,0.01283849399
1274.000000,0.01234209827
1275.000000,0.01153147722
1276.000000,0.009533208824
1277.000000,0.0139295775
1278.000000,0.01396390816
1279.000000,0.01086978307
1280.000000,0.0114209616
1281.000000,0.01163208429
1282.000000,0.01156576812
1283.000000,0.0145187185
1284.000000,0.01221834259
1285.000000,0.01126627163
1286.000000,0.01258300804
1287.000000,0.01107797856
1288.000000,0.009795162284
1289.000000,0.01070180124
1290.000000,0.0098690677
1291.000000,0.01044045765
1292.000000,0.01264421666
1293.000000,0.01238260459
1294.000000,0.01435711989
1295.000000,0.01353288122
1296.000000,0.01216751138
1297.000000,0.01196524743
1298.000000,0.01201481505
1299.000000,0.01137548697
1300.000000,0.01026472342
1301.000000,0.01261451245
1302.000000,0.01511271017
1303.000000,0.01339687567
1304.000000,0.009525726159
1305.000000,0.007994448519
1306.000000,0.0133119393
1307.000000,0.01170446587
1308.000000,0.007154521222
1309.000000,0.007266560138
1310.000000,0.01022410666
1311.000000,0.009294307839
1312.000000,0.01170782812
1313.000000,0.01334300581
1314.000000,0.008884926022
1315.000000,0.01123049618
1316.000000,0.01400628127
1317.000000,0.01233852119
1318.000000,0.01063691234
1319.000000,0.008768600249
1320.000000,0.01389582005
1321.000000,0.01009823475
1322.000000,0.013185574
1323.000000,0.014896644
1324.000000,0.00989412395
1325.000000,0.01497642504
1326.000000,0.01195194556
1327.000000,0.01005107441
1328.000000,0.01699203332
1329.000000,0.01153682628
1330.000000,0.01379004768
1331.000000,0.00829342744
1332.000000,0.01208415997
1333.000000,0.01047049527
1334.000000,0.009313030449
1335.000000,0.008918523709
1336.000000,0.01226631778
1337.000000,0.009874087041
1338.000000,0.01295028819
1339.000000,0.01233869075
1340.000000,0.009783125635
1341.000000,0.008981454184
1342.000000,0.01232153504
1343.000000,0.009820385834
1344.000000,0.01248315307
1345.000000,0.009780364032
1346.000000,0.01408612582
1347.000000,0.01143307279
1348.000000,0.008873108468
1349.000000,0.01127487822
1350.000000,0.01055962683
1351.000000,0.01312294179
1352.000000,0.01252305414
1353.000000,0.01108954616
1354.000000,0.01318422245
1355.000000,0.01353007394
1356.000000,0.0086355769
1357.000000,0.009960498461
1358.000000,0.01526624436
1359.000000,0.01414115762
1360.000000,0.01043933873
1361.000000,0.01149293236
1362.000000,0.01370216674
1363.000000,0.008064808551
1364.000000,0.01143529559
1365.000000,0.008881727142
1366.000000,0.01135764705
1367.000000,0.01418419285
1368.000000,0.01824629538
1369.000000,0.01337209359
1370.000000,0.01543195047
1371.000000,0.01082588458
1372.000000,0.01255828925
1373.000000,0.01370623955
1374.000000,0.008079458527
1375.000000,0.01119920871
1376.000000,0.01440051838
1377.000000,0.01325354631
1378.000000,0.010847876
1379.000000,0.01388741762
1380.000000,0.01151613994
1381.000000,0.01360855715
1382.000000,0.01025849973
1383.000000,0.01202983904
1384.000000,0.01387262791
1385.000000,0.01549284789
1386.000000,0.01711278016
1387.000000,0.01059739095
1388.000000,0.01601663423
1389.000000,0.01515262046
1390.000000,0.01660490719
1391.000000,0.01357318612
1392.000000,0.01274569911
1393.000000,0.01856216489
1394.000000,0.01457704904
1395.000000,0.01579229207
1396.000000,0.01648655576
1397.000000,0.01323767431
1398.000000,0.01066453936
1399.000000,0.01260513864
1400.000000,0.01112036184
1401.000000,0.0158055917
1402.000000,0.01704798388
1403.000000,0.01881456055
1404.000000,0.01864268725
1405.000000,0.01778195003
1406.000000,0.01470391046
1407.000000,0.01372624003
1408.000000,0.01379773542
1409.000000,0.01900385044
1410.000000,0.01727289035
1411.000000,0.01981329763
1412.000000,0.01971306064
1413.000000,0.01551580279
1414.000000,0.02030822928
1415.000000,0.0164978849
1416.000000,0.02064518408
1417.000000,0.02614158927
1418.000000,0.01799229434
1419.000000,0.02231704344
1420.000000,0.02578889473
1421.000000,0.01962888489
1422.000000,0.02181143618
1423.000000,0.02274594172
1424.000000,0.02589572254
1425.000000,0.0280981602
1426.000000,0.02727308673
1427.000000,0.03000362444
1428.000000,0.02843682418
1429.000000,0.03068990726
1430.000000,0.03121088296
1431.000000,0.03816661974
1432.000000,0.04291840489
1433.000000,0.04194504994
1434.000000,0.04544420139
1435.000000,0.05109427214
1436.000000,0.05599434353
1437.000000,0.06132327319
1438.000000,0.0682469436
1439.000000,0.07087610785
1440.000000,0.08616854742
1441.000000,0.09387249688
1442.000000,0.1060758201
1443.000000,0.1209623921
1444.000000,0.140648657
1445.000000,0.1551843653
1446.000000,0.1781672947
1447.000000,0.1959495954
1448.000000,0.2122196293
1449.000000,0.2268875239
1450.000000,0.2326921583
1451.000000,0.2294034063
1452.000000,0.2148395649
1453.000000,0.1963720097
1454.000000,0.1777626106
1455.000000,0.1563439931
1456.000000,0.1367765497
1457.000000,0.122262008
1458.000000,0.1073316755
1459.000000,0.09445150398
1460.000000,0.08648680949
1461.000000,0.07440104192
1462.000000,0.06642234614
1463.000000,0.06008129431
1464.000000,0.05271691989
1465.000000,0.05057290662
1466.000000,0.04242449564
1467.000000,0.04362703197
1468.000000,0.04089232459
1469.000000,0.03553691285
1470.000000,0.03215149447
1471.000000,0.03233343605
1472.000000,0.03603661933
1473.000000,0.03006432637
1474.000000,0.02892893479
1475.000000,0.02787728766
1476.000000,0.02344014017
1477.000000,0.02486662149
1478.000000,0.02492354978
1479.000000,0.02228899708
1480.000000,0.02483130326
1481.000000,0.02094174425
1482.000000,0.02103037761
1483.000000,0.02280621139
1484.000000,0.01912793695
1485.000000,0.01917436377
1486.000000,0.0187610739
1487.000000,0.01912750743
1488.000000,0.01942675885
1489.000000,0.01603410476
1490.000000,0.01951055271
1491.000000,0.01735680585
1492.000000,0.02151335605
1493.000000,0.0208868982
1494.000000,0.01511475145
1495.000000,0.01544993466
1496.000000,0.01491276501
1497.000000,0.01682101806
1498.000000,0.01664658808
1499.000000,0.01443526705
1500.000000,0.01535144492
1501.000000,0.01549430384
1502.000000,0.01668323227
1503.000000,0.01316013328
1504.000000,0.01533524483
1505.000000,0.01389556756
1506.000000,0.01745573724
1507.000000,0.01730849771
1508.000000,0.01450215062
1509.000000,0.01574947913
1510.000000,0.01375141012
1511.000000,0.0155251015
1512.000000,0.0178904112
1513.000000,0.01674156881
1514.000000,0.01728073505
1515.000000,0.01502026713
1516.000000,0.01120913691
1517.000000,0.01410750471
1518.000000,0.01424951752
1519.000000,0.0164716173
1520.000000,0.01192670035
1521.000000,0.01169530484
1522.000000,0.01340271305
1523.000000,0.01450503811
1524.000000,0.01202374707
1525.000000,0.01334589237
1526.000000,0.01614104238
1527.000000,0.01749230964
1528.000000,0.01474522143
1529.000000,0.01642095049
1530.000000,0.01969375321
1531.000000,0.0137096933
1532.000000,0.01826116099
1533.000000,0.01686132306
1534.000000,0.01305340156
1535.000000,0.01623077413
1536.000000,0.01761170936
1537.000000,0.01520013021
1538.000000,0.01639249689
1539.000000,0.02028854596
1540.000000,0.01741654581
1541.000000,0.01507471565
1542.000000,0.01910847314
1543.000000,0.0189244501
1544.000000,0.02148584763
1545.000000,0.01597857154
1546.000000,0.01722045774
1547.000000,0.01984175791
1548.000000,0.02175446819
1549.000000,0.01400554992
1550.000000,0.01981159189
1551.000000,0.01773588964
1552.000000,0.01674784596
1553.000000,0.01995436789
1554.000000,0.01903922394
1555.000000,0.02174549172
1556.000000,0.02197843184
1557.000000,0.02481120552
1558.000000,0.02516650903
1559.000000,0.02466593035
1560.000000,0.02639540784
1561.000000,0.02833867085
1562.000000,0.02778198104
1563.000000,0.03292062469
1564.000000,0.02986031075
1565.000000,0.03022773963
1566.000000,0.03514255471
1567.000000,0.03739842224
1568.000000,0.04098373383
1569.000000,0.04148166653
1570.000000,0.04931134579
1571.000000,0.05175706149
1572.000000,0.0569179488
1573.000000,0.06324600048
1574.000000,0.06908240841
1575.000000,0.0812125656
1576.000000,0.09057767106
1577.000000,0.108009147
1578.000000,0.1280297054
1579.000000,0.1515707804
1580.000000,0.1766699542
1581.000000,0.2073060425
1582.000000,0.2259096713
1583.000000,0.237661506
1584.000000,0.2323943718
1585.000000,0.2185422008
1586.000000,0.1940610024
1587.000000,0.1734201603
1588.000000,0.1599538845
1589.000000,0.1458250613
1590.000000,0.1429765051
1591.000000,0.1390550115
1592.000000,0.1411246048
1593.000000,0.1539202564
1594.000000,0.1694557555
1595.000000,0.1927070148
1596.000000,0.2274396434
1597.000000,0.2711099504
1598.000000,0.343153169
1599.000000,0.4261241024
1600.000000,0.5239921417
1601.000000,0.6072985494
1602.000000,0.6449369836
1603.000000,0.6100536838
1604.000000,0.5141256044
1605.000000,0.4203313508
1606.000000,0.3265443401
1607.000000,0.2607630137
1608.000000,0.2076285638
1609.000000,0.1671578216
1610.000000,0.1433368996
1611.000000,0.1185347706
1612.000000,0.1006166106
1613.000000,0.08579055706
1614.000000,0.07788818635
1615.000000,0.06973599846
1616.000000,0.06267269907
1617.000000,0.05397548252
1618.000000,0.04959748252
1619.000000,0.0466377001
1620.000000,0.04206666735
1621.000000,0.04096471054
1622.000000,0.03792883553
1623.000000,0.03351423455
1624.000000,0.02974356807
1625.000000,0.03210065649
1626.000000,0.02770602239
1627.000000,0.02840862863
1628.000000,0.02640928101
1629.000000,0.02343683856
1630.000000,0.02684433975
1631.000000,0.02282832441
1632.000000,0.02482862424
1633.000000,0.02471747992
1634.000000,0.02162155868
1635.000000,0.02237309992
1636.000000,0.02045722227
1637.000000,0.01792759809
1638.000000,0.01873235537
1639.000000,0.02038641274
1640.000000,0.02158962014
1641.000000,0.01707990751
1642.000000,0.01429764697
1643.000000,0.0142069489
1644.000000,0.01858386055
1645.000000,0.0182965107
1646.000000,0.01636363129
1647.000000,0.01513777043
1648.000000,0.01658268773
1649.000000,0.01809378646
1650.000000,0.01611439281
1651.000000,0.01649726957
1652.000000,0.01352347199
1653.000000,0.01412241435
1654.000000,0.01570104297
1655.000000,0.0133794192
1656.000000,0.01660973379
1657.000000,0.01469092055
1658.000000,0.0179118903
1659.000000,0.01164384379
1660.000000,0.01100246205
1661.000000,0.01326260605
1662.000000,0.01433710435
1663.000000,0.01501907409
1664.000000,0.01436749458
1665.000000,0.01470345288
1666.000000,0.01495767573
1667.000000,0.01122794731
1668.000000,0.01515094427
1669.000000,0.01473934504
1670.000000,0.01373512868
1671.000000,0.01238300735
1672.000000,0.01256322721
1673.000000,0.01268048899
1674.000000,0.01374017365
1675.000000,0.01111192293
1676.000000,0.0128506084
1677.000000,0.01200376891
1678.000000,0.01381262762
1679.000000,0.01304039032
1680.000000,0.01387257872
1681.000000,0.01183175157
1682.000000,0.01155984173
1683.000000,0.01475256823
1684.000000,0.009349037295
1685.000000,0.01442995472
1686.000000,0.01436945441
1687.000000,0.009297672915
1688.000000,0.01363482879
1689.000000,0.01166345913
1690.000000,0.01424586526
1691.000000,0.01082704053
1692.000000,0.008598409995
1693.000000,0.01059033536
1694.000000,0.01343595595
1695.000000,0.01201721905
1696.000000,0.009901396268
1697.000000,0.01030193736
1698.000000,0.01149897603
1699.000000,0.01136824729
1700.000000,0.01112342061
1701.000000,0.01183160437
1702.000000,0.01163592496
1703.000000,0.01238584396
1704.000000,0.01298074366
1705.000000,0.01407621813
1706.000000,0.009100754159
1707.000000,0.01171092274
1708.000000,0.0103704632
1709.000000,0.01029041401
1710.000000,0.0126774923
1711.000000,0.009116365243
1712.000000,0.01063668214
1713.000000,0.01077012881
1714.000000,0.01357380257
1715.000000,0.01063763434
1716.000000,0.01114442183
1717.000000,0.01014632649
1718.000000,0.01013734602
1719.000000,0.009959063839
1720.000000,0.01112216215
1721.000000,0.007548117723
1722.000000,0.009616860751
1723.000000,0.01122972374
1724.000000,0.01104905348
1725.000000,0.01119662999
1726.000000,0.01033871793
1727.000000,0.009148894526
1728.000000,0.01297108165
1729.000000,0.01137397881
1730.000000,0.009488909436
1731.000000,0.01282968178
1732.000000,0.01231216006
1733.000000,0.01474636277
1734.000000,0.0112706938
1735.000000,0.01134295467
1736.000000,0.01199259661
1737.000000,0.01291340054
1738.000000,0.01110603778
1739.000000,0.009419258613
1740.000000,0.01042042206
1741.000000,0.01477408898
1742.000000,0.01072006188
1743.000000,0.01564530913
1744.000000,0.007209122536
1745.000000,0.0104332999
1746.000000,0.01141375785
1747.000000,0.008290043523
1748.000000,0.01050129782
1749.000000,0.01095493452
1750.000000,0.01179473816
1751.000000,0.01070243896
1752.000000,0.01363732305
1753.000000,0.009559512792
1754.000000,0.008753359065
1755.000000,0.01213744892
1756.000000,0.01250590923
1757.000000,0.01129865079
1758.000000,0.009421728401
1759.000000,0.007276858753
1760.000000,0.01147133003
1761.000000,0.0114355307
1762.000000,0.01371569937
1763.000000,0.007570565044
1764.000000,0.01050049189
1765.000000,0.01592185331
1766.000000,0.01184848176
1767.000000,0.008627449304
1768.000000,0.01313542856
1769.000000,0.008495440238
1770.000000,0.01097748194
1771.000000,0.01209620065
1772.000000,0.008792316528
1773.000000,0.007427435268
1774.000000,0.008695042439
1775.000000,0.01296090835
1776.000000,0.01134902613
1777.000000,0.01097181724
1778.000000,0.008020975803
1779.000000,0.01257016288
1780.000000,0.01067169796
1781.000000,0.009301934146
1782.000000,0.00948495078
1783.000000,0.006655094324
1784.000000,0.0103758121
1785.000000,0.009369456247
1786.000000,0.009607967552
1787.000000,0.01220456267
1788.000000,0.01346301317
1789.000000,0.007658987959
1790.000000,0.01149457232
1791.000000,0.008929523988
1792.000000,0.009995443462
1793.000000,0.009924559828
1794.000000,0.009996263647
1795.000000,0.01104316274
1796.000000,0.01070559224
1797.000000,0.01128271638
1798.000000,0.006857501329
1799.000000,0.006837132745
1800.000000,0.00883336031
1801.000000,0.01112745119
1802.000000,0.01123535132
1803.000000,0.01151920902
1804.000000,0.006381835474
1805.000000,0.009711901643
1806.000000,0.01268315332
1807.000000,0.01038809153
1808.000000,0.01146349994
1809.000000,0.01138452876
1810.000000,0.009873575944
1811.000000,0.008058186475
1812.000000,0.01146713622
1813.000000,0.008890876466
1814.000000,0.01158592201
1815.000000,0.01155418454
1816.000000,0.008920038161
1817.000000,0.01185010299
1818.000000,0.01122396608
1819.000000,0.01003385621
1820.000000,0.009527763499
1821.000000,0.009043372794
1822.000000,0.0120710574
1823.000000,0.01117384106
1824.000000,0.008982434114
1825.000000,0.01135212388
1826.000000,0.008087477856
1827.000000,0.008437285908
1828.000000,0.009079024059
1829.000000,0.01124253197
1830.000000,0.007079606968
1831.000000,0.005888363753
1832.000000,0.006338647065
1833.000000,0.01217795235
1834.000000,0.0127273439
1835.000000,0.01013552186
1836.000000,0.01043942646
1837.000000,0.01162406577
1838.000000,0.005932073653
1839.000000,0.008189585691
1840.000000,0.008803575974
1841.000000,0.01052732807
1842.000000,0.007032511954
1843.000000,0.01382562212
1844.000000,0.008057472613
1845.000000,0.008326374695
1846.000000,0.007543156498
1847.000000,0.01084536481
1848.000000,0.009969175427
1849.000000,0.01281384595
1850.000000,0.008144412143
1851.000000,0.01115096758
1852.000000,0.01285299241
1853.000000,0.01268458688
1854.000000,0.01075372384
1855.000000,0.008318179779
1856.000000,0.009157451882
1857.000000,0.009363461132
1858.000000,0.007692338041
1859.000000,0.01171112598
1860.000000,0.01521740054
1861.000000,0.009274251201
1862.000000,0.009697281477
1863.000000,0.009465566087
1864.000000,0.01083781204
1865.000000,0.01150330233
1866.000000,0.01209413582
1867.000000,0.01050352774
1868.000000,0.01068561308
1869.000000,0.01161315285
1870.000000,0.01379044402
1871.000000,0.01185875487
1872.000000,0.0126194467
1873.000000,0.007094084967
1874.000000,0.01084793849
1875.000000,0.009580648028
1876.000000,0.01023979226
1877.000000,0.01163148677
1878.000000,0.01181623397
1879.000000,0.008362999119
1880.000000,0.01136324492
1881.000000,0.009316103936
1882.000000,0.01212681691
1883.000000,0.01046115758
1884.000000,0.01281539176
1885.000000,0.01139067359
1886.000000,0.009980972735
1887.000000,0.01052035938
1888.000000,0.00857124815
1889.000000,0.007009794451
1890.000000,0.01013320987
1891.000000,0.01138534696
1892.000000,0.01010427119
1893.000000,0.0121068663
1894.000000,0.009814823694
1895.000000,0.01297285238
1896.000000,0.01144274509
1897.000000,0.01062243264
1898.000000,0.01129825997
1899.000000,0.00866714616
1900.000000,0.009367809008
1901.000000,0.01282533429
1902.000000,0.008039308415
1903.000000,0.01040820149
1904.000000,0.0121999303
1905.000000,0.009733296336
1906.000000,0.01186636478
1907.000000,0.01107152497
1908.000000,0.0117337196
1909.000000,0.01392944287
1910.000000,0.009742132008
1911.000000,0.01229503205
1912.000000,0.01406059472
1913.000000,0.01348398542
1914.000000,0.01373058105
1915.000000,0.009869461188
1916.000000,0.01111389648
1917.000000,0.008663751207
1918.000000,0.01207572091
1919.000000,0.008554699874
1920.000000,0.01009475586
1921.000000,0.01307205921
1922.000000,0.01064846468
1923.000000,0.008450239927
1924.000000,0.007767611962
1925.000000,0.008094671027
1926.000000,0.01080796586
1927.000000,0.01005612741
1928.000000,0.009815442109
1929.000000,0.01100029528
1930.000000,0.01093301564
1931.000000,0.007401141372
1932.000000,0.01215191411
1933.000000,0.009324677279
1934.000000,0.01387022899
1935.000000,0.0115795443
1936.000000,0.008894462767
1937.000000,0.01082798137
1938.000000,0.01261447448
1939.000000,0.009500754898
1940.000000,0.01158558868
1941.000000,0.009530456333
1942.000000,0.01032012161
1943.000000,0.01039429683
1944.000000,0.009160126271
1945.000000,0.01050058314
1946.000000,0.0123467362
1947.000000,0.009762869613
1948.000000,0.009995668303
1949.000000,0.007021360783
1950.000000,0.01136206656
1951.000000,0.008953312965
1952.000000,0.006815183225
1953.000000,0.006816555405
1954.000000,0.008348928781
1955.000000,0.007319101067
1956.000000,0.01301289921
1957.000000,0.01274913806
1958.000000,0.01010621052
1959.000000,0.01175924003
1960.000000,0.01076571766
1961.000000,0.00879026102
1962.000000,0.01176087776
1963.000000,0.01080985687
1964.000000,0.008686358341
1965.000000,0.01177108056
1966.000000,0.01120570867
1967.000000,0.009874041082
1968.000000,0.01434862852
1969.000000,0.01025157509
1970.000000,0.009391826201
1971.000000,0.007323686723
1972.000000,0.007955250506
1973.000000,0.0089656656
1974.000000,0.01044630452
1975.000000,0.01308018323
1976.000000,0.01116629454
1977.000000,0.009133678787
1978.000000,0.008759850064
1979.000000,0.009783643759
1980.000000,0.01106282502
1981.000000,0.01081086967
1982.000000,0.0140584031
1983.000000,0.01063865608
1984.000000,0.00821858956
1985.000000,0.009179718628
1986.000000,0.01107621497
1987.000000,0.01004661137
1988.000000,0.00849273758
1989.000000,0.01303682864
1990.000000,0.007501033438
1991.000000,0.009580008361
1992.000000,0.01043778586
1993.000000,0.01174755242
1994.000000,0.01128257308
1995.000000,0.01058082806
1996.000000,0.01230869798
1997.000000,0.01223232321
1998.000000,0.005758123727
1999.000000,0.009022737707
2000.000000,0.01196002463
