# kind,background_subtracted
# version_label,v1_poly5
# poly_order,5
# iterations_run,7
pixel_index,raman_shift_cm-1,intensity,background_intensity
0,-224.905,0.9751630941772476,95.02483690582275
1,-221.837,0.0,95.02759744230691
2,-218.771,0.9696398891239397,95.03036011087606
3,-215.706,1.9668752343782359,95.03312476562176
4,-212.642,0.0,95.03589126151334
5,-209.579,0.9613405456040738,95.03865945439593
6,-206.517,2.958570799011568,95.04142920098843
7,-203.456,0.0,95.04420035888161
8,-200.397,1.953027213463912,95.04697278653609
9,-197.339,0.9502536567196671,95.04974634328033
10,-194.282,1.947479110691276,95.05252088930872
11,-191.227,0.0,95.05529628567952
12,-188.172,0.9419276056870274,95.05807239431297
13,-185.119,2.939150922010768,95.06084907798923
14,-182.067,0.9363737996535377,95.06362620034646
15,-179.016,0.9335963741211941,95.0664036258788
16,-175.966,0.0,95.06918121993444
17,-172.918,0.0,95.07195884871354
18,-169.871,0.9252636207336167,95.07473637926638
19,-166.825,0.922486320508682,95.07751367949132
20,-163.780,0.0,95.08029061813279
21,-160.736,1.9169329352206432,95.08306706477936
22,-157.693,0.9141571101382624,95.08584288986174
23,-154.652,0.9113820353492059,95.0886179646508
24,-151.612,0.0,95.0913921612556
25,-148.573,0.9058346473785974,95.0941653526214
26,-145.535,0.0,95.0969374125277
27,-142.499,1.9002917844137812,95.09970821558622
28,-139.464,1.8975223627610234,95.10247763723898
29,-136.429,0.8947544462437236,95.10524555375628
30,-133.397,2.8919881577652973,95.1080118422347
31,-130.365,0.8892236194048024,95.1107763805952
32,-127.334,0.8864609524189433,95.11353904758106
33,-124.305,2.883700277244074,95.11629972275593
34,-121.277,0.8809417134981317,95.11905828650187
35,-118.250,0.8781853799826536,95.12181462001735
36,-115.224,0.0,95.12456860531526
37,-112.199,2.872679874779024,95.12732012522098
38,-109.176,0.8699309366296717,95.13006906337033
39,-106.153,1.8671846957923606,95.13281530420764
40,-103.132,0.0,95.13555873298377
41,-100.112,1.86170076424591,95.13829923575409
42,-97.094,2.858963300623415,95.14103669937658
43,-94.076,2.85622898849023,95.14377101150977
44,-91.060,0.0,95.14650206061079
45,-88.045,1.8507702640666253,95.14922973593337
46,-85.031,1.8480460724740482,95.15195392752595
47,-82.018,1.8453254737704157,95.15467452622958
48,-79.006,1.8426085763239968,95.157391423676
49,-75.996,1.8398954877143012,95.1601045122857
50,-72.987,1.8371863147341685,95.16281368526583
51,-69.979,0.8344811633916578,95.16551883660834
52,-66.972,0.8317801389120518,95.16821986108795
53,-63.966,0.829083345739889,95.17091665426011
54,-60.961,2.826390887540839,95.17360911245916
55,-57.958,0.0,95.17629713279622
56,-54.956,0.0,95.17898061315728
57,-51.955,1.8183405477987975,95.1816594522012
58,-48.955,0.0,95.18433354935775
59,-45.956,0.8129971951744324,95.18700280482557
60,-42.959,1.8103328804297263,95.18966711957027
61,-39.962,1.8076736046775466,95.19232639532245
62,-36.967,2.8050194654243796,95.19498053457562
63,-33.973,1.802370559415678,95.19762944058432
64,-30.980,1.7997269826378783,95.20027301736212
65,-27.989,2.7970888303203907,95.20291116967961
66,-24.998,6.7944561969375314,95.20554380306247
67,-22.009,1.7918291762105838,95.20817082378942
68,-19.021,0.789207861109702,95.2107921388903
69,-16.034,1.7865923438559008,95.2134076561441
70,-13.048,0.7839827159230737,95.21601728407693
71,-10.063,1.7813790680399393,95.21862093196006
72,-7.080,2.7787814901920314,95.22121850980797
73,-4.098,2.776190071623674,95.22380992837633
74,-1.116,0.7736049008399704,95.22639509916003
75,1.864,0.7710260656087797,95.22897393439122
76,4.842,0.0,95.23154634703734
77,7.820,0.765887749200914,95.23411225079909
78,10.797,2.7633284398915094,95.23667156010849
79,13.772,2.7607758098731097,95.23922419012689
80,16.746,1.7582299432569783,95.24177005674302
81,19.719,0.7556909234290572,95.24430907657094
82,22.691,0.7531588330518417,95.24684116694816
83,25.662,0.7506337540664703,95.24936624593353
84,28.631,0.0,95.25188423230541
85,31.599,0.7456049544404095,95.25439504555959
86,34.567,1.743101394092676,95.25689860590732
87,37.533,1.7406051657266062,95.2593948342734
88,40.498,0.738116347705926,95.26188365229407
89,43.461,0.7356350176847997,95.2643649823152
90,46.424,0.7331612526098326,95.26683874739017
91,49.385,0.0,95.26930487127792
92,52.346,0.7282367215589147,95.27176327844109
93,55.305,1.7257861059561748,95.27421389404383
94,58.263,0.7233433560499947,95.27665664395
95,61.219,2.720908545278874,95.27909145472113
96,64.175,0.0,95.28151825361441
97,67.130,0.0,95.28393696858075
98,70.083,0.7136524717372055,95.2863475282628
99,73.035,0.7112501380070739,95.28874986199293
100,75.986,2.708856100208706,95.2911438997913
101,78.936,1.706470427636134,95.29352957236387
102,81.885,2.7040931888995914,95.29590681110041
103,84.832,1.7017244519275039,95.2982755480725
104,87.779,1.699364283968393,95.3006357160316
105,90.724,0.0,95.30298724840705
106,93.668,0.6946699206959437,95.30533007930406
107,96.611,0.0,95.30766414350175
108,99.553,1.6900106235487726,95.30998937645123
109,102.494,0.6876942857264794,95.31230571427352
110,105.433,0.685386906242357,95.31461309375764
111,108.372,1.683088547641404,95.3169114523586
112,111.309,1.680799271804574,95.31920072819543
113,114.245,0.0,95.32148086004922
114,117.180,1.676248212638896,95.3237517873611
115,120.114,1.6739865497696798,95.32601345023032
116,123.047,0.6717342105878146,95.32826578941219
117,125.978,1.6694912536838302,95.33050874631617
118,128.909,0.6672577369961346,95.33274226300387
119,131.838,0.6650337178129604,95.33496628218704
120,134.766,0.662819252774355,95.33718074722564
121,137.693,1.6606143978741414,95.33938560212586
122,140.619,2.6584192084619076,95.34158079153809
123,143.544,2.656233739245039,95.34376626075496
124,146.467,0.6540580442905934,95.3459419557094
125,149.390,0.6518921770273778,95.34810782297262
126,152.311,2.6497361902478502,95.35026380975215
127,155.231,0.6475901361101535,95.35240986388985
128,158.150,1.6454540661400756,95.35454593385992
129,161.068,0.6433280312330254,95.35667196876697
130,163.985,1.6412120816560218,95.35878791834398
131,166.901,0.0,95.36089373295034
132,169.815,0.6370106364300909,95.36298936356991
133,172.729,2.634925238191002,95.365074761809
134,175.641,0.6328501201056298,95.36714987989437
135,178.552,2.630785329328674,95.36921467067133
136,181.462,0.6287309123983391,95.37126908760166
137,184.371,1.6266869152382668,95.37331308476173
138,187.279,2.62465338315954,95.37534661684046
139,190.185,0.0,95.37736963913731
140,193.091,0.0,95.37938210756043
141,195.995,0.6186160213754732,95.38138397862453
142,198.898,1.6166247905510147,95.38337520944899
143,201.800,0.614644242244168,95.38535575775583
144,204.701,1.6126744181321726,95.38732558186783
145,207.601,1.610715359293593,95.3892846407064
146,210.500,0.6087671062102515,95.39123289378975
147,213.397,0.6068296987692321,95.39317030123077
148,216.294,1.604903176264827,95.39509682373517
149,219.189,0.6029875774005404,95.39701242259946
150,222.083,0.6010829402910787,95.39891705970892
151,224.976,0.599189302464282,95.40081069753572
152,227.868,0.0,95.40269329913684
153,230.759,0.595435171847825,95.40456482815217
154,233.649,1.5935747511975222,95.40642524880248
155,236.537,0.5917254741125646,95.40827452588744
156,239.425,0.5898873752162928,95.41011262478371
157,242.311,0.588060488557133,95.41193951144287
158,245.196,0.5862448476105158,95.41375515238948
159,248.081,0.0,95.41555951471913
160,250.964,1.582647433903574,95.41735256609643
161,253.845,2.5808657252470084,95.41913427475299
162,256.726,0.5790953905144676,95.42090460948553
163,259.606,1.577336460346146,95.42266353965385
164,262.484,0.5755889648211507,95.42441103517885
165,265.362,1.573852933459463,95.42614706654054
166,268.238,1.572128395223885,95.42787160477612
167,271.113,0.5704153785221138,95.42958462147789
168,273.987,0.5687139112085902,95.43128608879141
169,276.860,1.5670240205865724,95.43297597941343
170,279.732,0.5653457334100835,95.43465426658992
171,282.603,0.5636790758859007,95.4363209241141
172,285.472,1.5620240736755306,95.43797592632447
173,288.341,1.5603807518971564,95.43961924810284
174,291.208,0.5587491351276981,95.4412508648723
175,294.075,0.5571292474046885,95.44287075259531
176,296.940,1.5555211122283197,95.44447888777168
177,299.804,0.0,95.44607524743658
178,302.667,0.5523401908414058,95.4476598091586
179,305.529,0.0,95.44923255103771
180,308.389,0.549206548296624,95.45079345170338
181,311.249,0.5476575096874967,95.4523424903125
182,314.108,0.5461203534525509,95.45387964654745
183,316.965,1.544595099385873,95.45540490061413
184,319.821,0.5430817667600678,95.45691823323993
185,322.676,0.5415803743281771,95.45841962567182
186,325.531,1.5400909403256833,95.45990905967432
187,328.384,0.0,95.46138651752753
188,331.235,2.537148017974843,95.46285198202516
189,334.086,1.535694563527457,95.46430543647254
190,336.936,2.5342531353153106,95.46574686468469
191,339.785,2.5328237490157335,95.46717625098427
192,342.632,0.0,95.4685935801996
193,345.478,1.5300011623372285,95.46999883766277
194,348.324,0.5286079907924375,95.47139200920756
195,351.168,0.5272269188324685,95.47277308116753
196,354.011,1.525857959625995,95.474142040374
197,356.853,0.0,95.4754988741541
198,359.694,1.5231564296712463,95.47684357032875
199,362.534,0.5218238827892776,95.47817611721072
200,365.372,1.5205034963973532,95.47949650360265
201,368.210,1.5191952812049578,95.48080471879504
202,371.046,0.5178992474357074,95.48210075256429
203,373.882,1.5166154048292526,95.48338459517075
204,376.716,0.5153437626433401,95.48465623735666
205,379.549,1.5140843296557165,95.48591567034428
206,382.381,1.5128371141661887,95.48716288583381
207,385.212,0.5116021239985429,95.48839787600146
208,388.042,1.5103793665025194,95.48962063349748
209,390.871,2.5091688485558308,95.49083115144417
210,393.699,0.5079705765661373,95.49202942343386
211,396.526,0.5067845564729936,95.493215443527
212,399.351,1.5056107937498382,95.49438920625016
213,402.176,2.5044492934059974,95.495550706594
214,404.999,0.5033000599886464,95.49669994001135
215,407.821,0.5021630975847984,95.4978369024152
216,410.643,0.5010384098232237,95.49896159017678
217,413.463,1.4999259998765524,95.50007400012345
218,416.282,4.4988258704631505,95.50117412953685
219,419.100,2.497738023849095,95.5022619761509
220,421.917,0.4966624618502493,95.50333753814975
221,424.732,2.4955991858341378,95.50440081416586
222,427.547,0.49454819672197914,95.50545180327802
223,430.361,2.4935094949906613,95.50649050500934
224,433.173,1.4924830806747025,95.5075169193253
225,435.985,0.4914689533682548,95.50853104663175
226,438.795,1.4904671122270514,95.50953288777295
227,441.604,0.4894775559704385,95.51052244402956
228,444.412,0.4885002828832654,95.51149971711673
229,447.219,0.0,95.51246470918201
230,450.025,1.4865825771965007,95.5134174228035
231,452.830,0.0,95.51435786098774
232,455.634,0.4847139728321679,95.51528602716783
233,458.437,0.48379807479855685,95.51620192520144
234,461.239,0.48289444063125586,95.51710555936874
235,464.039,1.482003065629442,95.51799693437056
236,466.839,1.481123944673712,95.51887605532629
237,469.637,1.480257072228028,95.51974292777197
238,472.435,0.4794024423417085,95.52059755765829
239,475.231,1.4785600486513886,95.52143995134861
240,478.026,0.4777298843830238,95.52227011561698
241,480.820,0.47691194235383705,95.52308805764616
242,483.613,0.4761062149743367,95.52389378502566
243,486.405,0.47531269425027745,95.52468730574972
244,489.196,0.0,95.52546862821539
245,491.986,3.473762238779514,95.52623776122049
246,494.775,0.4730052860383438,95.52699471396166
247,497.563,1.4722605039676182,95.52773949603238
248,500.349,3.4715278825789966,95.528472117421
249,503.135,2.4708074114912506,95.52919258850875
250,505.919,6.470099079932254,95.52990092006775
251,508.703,8.469402876740972,95.53059712325903
252,511.485,4.468718790369394,95.5312812096306
253,514.266,2.46804680888458,95.53195319111542
254,517.047,1.4673869199705933,95.5326130800294
255,519.826,0.0,95.53326088906952
256,522.604,0.0,95.53389663131173
257,525.381,1.4654796797909597,95.53452032020904
258,528.157,0.4648680304104573,95.53513196958954
259,530.932,0.46426840634556754,95.53573159365443
260,533.705,0.0,95.53631920697596
261,536.478,1.4631051755044382,95.53689482449556
262,539.250,2.4625415384781917,95.53745846152181
263,542.020,1.4619898662715656,95.53801013372843
264,544.790,0.46145014284763874,95.53854985715236
265,547.558,0.46092235180825014,95.53907764819175
266,550.326,1.4604064763960167,95.53959352360398
267,553.092,0.0,95.5400975005037
268,555.857,0.45941040363919683,95.5405895963608
269,558.622,4.4589301710014695,95.54106982899853
270,561.385,1.458461783408623,95.54153821659138
271,564.147,0.0,95.54199477766325
272,566.908,0.0,95.54243953108536
273,569.668,0.0,95.54287249607434
274,572.427,1.4567063078098244,95.54329369219018
275,575.185,0.4562968606656739,95.54370313933433
276,577.941,0.45589914225233485,95.54410085774767
277,580.697,0.0,95.54448686800855
278,583.452,1.4551388089692097,95.54486119103079
279,586.205,1.4547761519382476,95.54522384806175
280,588.958,1.4544251393197243,95.54557486068028
281,591.710,1.4540857492052055,95.5459142507948
282,594.460,1.453757959358711,95.54624204064129
283,597.209,0.45344174721867603,95.54655825278132
284,599.958,0.0,95.54686291010009
285,602.705,1.4528439641956084,95.54715603580439
286,605.451,1.452562346579299,95.5474376534207
287,608.196,0.0,95.54770778679317
288,610.941,1.452033539918375,95.54796646008162
289,613.684,0.45178630224039296,95.5482136977596
290,616.426,0.4515504753875774,95.54844952461242
291,619.167,0.0,95.54867396573512
292,621.907,0.0,95.54888704653048
293,624.645,3.450911207292833,95.54908879270717
294,627.383,2.4507207697223947,95.5492792302776
295,630.120,0.45054161444393515,95.54945838555606
296,632.856,1.450373714843309,95.54962628515669
297,635.590,1.4502170440084825,95.54978295599152
298,638.324,1.4500715747315382,95.54992842526846
299,641.057,1.4499372795106353,95.55006272048936
300,643.788,1.4498141305519567,95.55018586944804
301,646.519,1.4497020997717698,95.55029790022823
302,649.248,0.449601158798302,95.5503988412017
303,651.976,2.449511278973816,95.55048872102618
304,654.704,0.4494324313565272,95.55056756864347
305,657.430,1.449364586722595,95.5506354132774
306,660.155,0.0,95.55069228443188
307,662.880,0.44926178811114426,95.55073821188886
308,665.603,0.449226774293507,95.5507732257065
309,668.325,0.44920264378302477,95.55079735621698
310,671.046,2.449189365975272,95.55081063402473
311,673.766,0.0,95.5508130900043
312,676.485,0.44919524470154215,95.55080475529846
313,679.203,0.0,95.55078566131616
314,681.920,1.449244160269373,95.55075583973063
315,684.636,1.4492846775226695,95.55071532247733
316,687.351,2.4493358582479914,95.55066414175201
317,690.065,1.4493976699912707,95.55060233000873
318,692.777,0.44947008004214695,95.55052991995785
319,695.489,2.4495530554359277,95.55044694456407
320,698.200,3.449646562955536,95.55035343704446
321,700.909,0.4497505691334993,95.5502494308665
322,703.618,0.44986504025398233,95.55013495974602
323,706.326,1.4499899423546907,95.55001005764531
324,709.032,0.4501252412288892,95.54987475877111
325,711.738,0.4502709024274054,95.5497290975726
326,714.442,0.45042689126053403,95.54957310873947
327,717.146,0.4505931728001116,95.54940682719989
328,719.848,0.45076971188139225,95.54923028811861
329,722.549,0.45095647310512277,95.54904352689488
330,725.250,0.45115342083946075,95.54884657916054
331,727.949,0.4513605192219643,95.54863948077804
332,730.647,0.4515777321616099,95.54842226783839
333,733.345,0.4518050233406967,95.5481949766593
334,736.041,0.45204235621692135,95.54795764378308
335,738.736,3.4522896940252537,95.54771030597475
336,741.430,0.45254699977999735,95.54745300022
337,744.123,0.4528142362767227,95.54718576372328
338,746.816,0.45309136609429856,95.5469086339057
339,749.507,2.4533783515967826,95.54662164840322
340,752.197,0.45367515493549604,95.5463248450645
341,754.886,2.453981738050942,95.54601826194906
342,757.574,0.4542980626747948,95.5457019373252
343,760.261,1.4546240903319045,95.5453759096681
344,762.947,0.0,95.54504021765776
345,765.632,0.45530509982290823,95.54469490017709
346,768.315,2.4556600036900846,95.54433999630992
347,770.998,0.0,95.54397554533897
348,773.680,2.456398413256082,95.54360158674392
349,776.361,0.45678183980058407,95.54321816019942
350,779.041,1.4571746944268824,95.54282530557312
351,781.720,2.4575769370763396,95.54242306292366
352,784.397,0.4579885275012856,95.54201147249871
353,787.074,1.4584094252669928,95.54159057473301
354,789.750,2.4588395897536515,95.54116041024635
355,792.425,0.45927898015837343,95.54072101984163
356,795.098,0.45972755549715316,95.54027244450285
357,797.771,0.4601852746068573,95.53981472539314
358,800.442,0.46065209614718583,95.53934790385281
359,803.113,0.4611279786026756,95.53887202139732
360,805.783,0.4616128802846333,95.53838711971537
361,808.451,0.0,95.53789324066679
362,811.119,1.4626095737192628,95.53739042628074
363,813.785,0.4631212812464014,95.5368787187536
364,816.451,0.46364183955297733,95.53635816044702
365,819.115,1.4641712061140026,95.535828793886
366,821.779,1.4647093382432246,95.53529066175678
367,824.441,0.4652561930949872,95.53474380690501
368,827.103,0.0,95.5341882723337
369,829.763,0.4663758987988018,95.5336241012012
370,832.423,2.4669486631806876,95.53305133681931
371,835.081,0.4675299773487467,95.53247002265125
372,837.739,0.0,95.53188020230965
373,840.395,1.4687180804453277,95.53128191955467
374,843.051,0.4693247817080959,95.5306752182919
375,845.705,2.469939857429523,95.53006014257048
376,848.358,0.4705632634189527,95.52943673658105
377,851.011,0.0,95.52880504465382
378,853.662,1.471834888743416,95.52816511125658
379,856.312,0.4724830190072993,95.5275169809927
380,858.962,0.4731393014008347,95.52686069859917
381,861.610,1.4738036910553944,95.5261963089446
382,864.257,1.474476142972705,95.5255238570273
383,866.904,0.47515661202682224,95.52484338797318
384,869.549,0.47584505296607915,95.52415494703392
385,872.193,1.4765414204151028,95.5234585795849
386,874.837,2.4772456688767903,95.52275433112321
387,877.479,0.47795775273425534,95.52204224726574
388,880.120,1.4786776262528605,95.52132237374714
389,882.760,3.47940524358215,95.52059475641785
390,885.400,0.4801405587578387,95.51985944124216
391,888.038,2.480883525703817,95.51911647429618
392,890.675,0.4816340982340819,95.51836590176592
393,893.312,2.4823922300547565,95.51760776994524
394,895.947,2.4831578747660927,95.51684212523391
395,898.581,2.4839309858643475,95.51606901413565
396,901.214,0.4847115167439,95.5152884832561
397,903.847,0.48549942069911367,95.51450057930089
398,906.478,3.486294650926368,95.51370534907363
399,909.108,1.4870971605260337,95.51290283947397
400,911.737,0.4879069025044913,95.51209309749551
401,914.366,0.48872382977599216,95.51127617022401
402,916.993,1.489547895164776,95.51045210483522
403,919.619,2.4903790514069613,95.50962094859304
404,922.245,1.4912172511525625,95.50878274884744
405,924.869,0.49206244696743795,95.50793755303256
406,927.492,0.4929145913353352,95.50708540866466
407,930.114,1.4937736366597534,95.50622636334025
408,932.736,0.4946395352660602,95.50536046473394
409,935.356,2.495512239403368,95.50448776059663
410,937.975,1.4963917012465657,95.50360829875343
411,940.594,1.4972778728982519,95.50272212710175
412,943.211,0.49817070639078054,95.50182929360922
413,945.827,1.49907015368818,95.50092984631182
414,948.442,3.499976166688157,95.50002383331184
415,951.057,0.0,95.49911130277592
416,953.670,0.5018076970669512,95.49819230293305
417,956.283,1.5027331179273915,95.49726688207261
418,958.894,0.5036649114575908,95.49633508854241
419,961.504,2.5046030292533317,95.49539697074667
420,964.114,0.5055474228559547,95.49445257714405
421,966.722,1.5064980437543056,95.4935019562457
422,969.329,2.5074548433867534,95.49254515661325
423,971.936,0.508417773143151,95.49158222685685
424,974.541,1.5093867843668534,95.49061321563315
425,977.146,2.5103618283565936,95.4896381716434
426,979.749,2.5113428563685716,95.48865714363143
427,982.352,2.512329819618415,95.48767018038158
428,984.953,1.5133226692830846,95.48667733071692
429,987.553,1.514321356502947,95.48567864349705
430,990.153,1.5153258323836667,95.48467416761633
431,992.751,0.0,95.4836639520017
432,995.349,0.0,95.4826480456109
433,997.946,1.518373502569716,95.48162649743028
434,1000.541,0.51940064352695,95.48059935647305
435,1003.136,1.5204333282229356,95.47956667177706
436,1005.729,1.5214715075969423,95.47852849240306
437,1008.322,2.5225151325675057,95.4774848674325
438,1010.914,0.5235641540342755,95.47643584596572
439,1013.504,0.5246185228800897,95.47538147711991
440,1016.094,0.5256781899729219,95.47432181002708
441,1018.682,0.5267431061678423,95.47325689383216
442,1021.270,0.0,95.47218677769098
443,1023.857,0.5288884892317043,95.4711115107683
444,1026.443,0.5299688577641888,95.47003114223581
445,1029.027,0.5310542787297834,95.46894572127022
446,1031.611,1.5321447029488269,95.46785529705117
447,1034.194,0.5332400812406206,95.46675991875938
448,1036.776,2.5343403644254465,95.46565963557455
449,1039.357,0.5354455033265566,95.46455449667344
450,1041.937,0.5365554487720914,95.46344455122791
451,1044.515,2.537670151597098,95.4623298484029
452,1047.093,1.538789562645519,95.46121043735448
453,1049.670,0.5399136327721692,95.46008636722783
454,1052.246,1.541042312844695,95.4589576871553
455,1054.821,0.542175553745551,95.45782444625445
456,1057.395,0.5433133063739888,95.45668669362601
457,1059.968,0.0,95.45554447835192
458,1062.540,1.5456021505065962,95.4543978494934
459,1065.112,2.546753143911104,95.4532468560889
460,1067.682,0.5479084528478353,95.45209154715216
461,1070.251,0.0,95.45093197167024
462,1072.819,0.5502318213984836,95.44976817860152
463,1075.386,1.5513997831262856,95.44860021687371
464,1077.953,1.5525718646180877,95.44742813538191
465,1080.518,1.5537480170134046,95.4462519829866
466,1083.082,1.5549281914883437,95.44507180851166
467,1085.645,0.5561123392575951,95.4438876607424
468,1088.208,1.5573004115763922,95.44269958842361
469,1090.769,1.5584923597424876,95.44150764025751
470,1093.330,2.559688135098156,95.44031186490184
471,1095.889,0.0,95.43911231096784
472,1098.448,2.562090972981693,95.4379090270183
473,1101.005,0.5632979384344594,95.43670206156554
474,1103.562,2.5645085369305036,95.4354914630695
475,1106.117,0.5657227200643575,95.43427727993564
476,1108.672,0.5669404394868849,95.43305956051312
477,1111.226,1.5681616469072992,95.4318383530927
478,1113.778,2.56938629409521,95.43061370590479
479,1116.330,0.5706143328824851,95.42938566711751
480,1118.881,0.5718457151653524,95.42815428483465
481,1121.431,0.5730803929062489,95.42691960709375
482,1123.980,0.5743183181359228,95.42568168186408
483,1126.528,1.5755594429553383,95.42444055704466
484,1129.074,0.5768037195376792,95.42319628046232
485,1131.620,2.5780511001303097,95.42194889986969
486,1134.165,0.5793015370568071,95.4206984629432
487,1136.709,1.5805549827188372,95.41944501728116
488,1139.253,0.0,95.41818861040174
489,1141.795,2.5830707102590083,95.41692928974099
490,1144.336,2.584332897349128,95.41566710265087
491,1146.876,1.5855979036027037,95.4144020963973
492,1149.415,0.586865681841914,95.41313431815809
493,1151.954,0.5881361849789073,95.41186381502109
494,1154.491,1.5894093660179038,95.4105906339821
495,1157.027,1.5906851780570577,95.40931482194294
496,1159.563,0.591963574290503,95.4080364257095
497,1162.097,0.5932445080103435,95.40675549198966
498,1164.631,0.5945279326085569,95.40547206739144
499,1167.163,0.5958138015790553,95.40418619842094
500,1169.695,0.5971020685196322,95.40289793148037
501,1172.226,1.5983926871339378,95.40160731286606
502,1174.755,0.5996856112334683,95.40031438876653
503,1177.284,2.600980794739499,95.3990192052605
504,1179.812,0.0,95.39772180831483
505,1182.339,0.6035777562173479,95.39642224378265
506,1184.865,1.6048794425986728,95.39512055740133
507,1187.390,1.6061832052095184,95.39381679479048
508,1189.914,2.6074889985499823,95.39251100145002
509,1192.437,2.608796777241821,95.39120322275818
510,1194.959,1.610106496030511,95.38989350396949
511,1197.480,0.6114181097871381,95.38858189021286
512,1200.000,1.612731573510473,95.38726842648953
513,1202.519,1.6140468423288326,95.38595315767117
514,1205.038,0.6153638715021543,95.38463612849785
515,1207.555,1.616682616423958,95.38331738357604
516,1210.071,0.6180030326232782,95.38199696737672
517,1212.587,0.6193250757667244,95.38067492423328
518,1215.101,2.6206487016603432,95.37935129833966
519,1217.615,0.6219738662517216,95.37802613374828
520,1220.127,0.6233005256319046,95.3766994743681
521,1222.639,3.624628636037343,95.37537136396266
522,1225.150,0.6259581538519541,95.37404184614805
523,1227.660,2.6272890356090386,95.37271096439096
524,1230.168,0.0,95.37137876200674
525,1232.676,0.6299547178426792,95.37004528215732
526,1235.183,1.631289432150652,95.36871056784935
527,1237.689,0.0,95.36737466193209
528,1240.194,1.633962392904408,95.36603760709559
529,1242.698,0.6353005541314474,95.36469944586855
530,1245.201,0.636639779383529,95.36336022061647
531,1247.704,0.6379800264604398,95.36201997353956
532,1250.205,1.639321253329129,95.36067874667087
533,1252.705,3.6406634181257687,95.35933658187423
534,1255.205,1.6420064791577005,95.3579935208423
535,1257.703,0.0,95.35664960509459
536,1260.201,0.6446951240245227,95.35530487597548
537,1262.697,2.6460406253477657,95.35395937465223
538,1265.193,0.0,95.35261314211304
539,1267.688,1.6487337808349736,95.35126621916503
540,1270.182,0.6500813535677423,95.34991864643226
541,1272.674,1.6514295356462299,95.34857046435377
542,1275.166,1.6527782868184033,95.3472217131816
543,1277.657,1.6541275670211917,95.34587243297881
544,1280.147,0.0,95.3445226636175
545,1282.636,0.6568275552232024,95.3431724447768
546,1285.125,2.6581781840590537,95.34182181594095
547,1287.612,0.6595291836027428,95.34047081639726
548,1290.098,0.0,95.3391194852342
549,1292.583,1.6622321386606416,95.33776786133936
550,1295.068,0.6635840166025275,95.33641598339747
551,1297.551,0.0,95.33506388988849
552,1300.034,0.666288380914466,95.33371161908553
553,1302.516,0.6676407909470328,95.33235920905297
554,1304.996,1.668993302355588,95.33100669764441
555,1307.476,1.6703458774992583,95.32965412250074
556,1309.955,0.671698478951896,95.3283015210481
557,1312.433,0.6730510695040266,95.32694893049597
558,1314.910,2.674403612164838,95.32559638783516
559,1317.386,0.6757560701641978,95.3242439298358
560,1319.861,0.6771084069545736,95.32289159304543
561,1322.335,1.6784605862130633,95.32153941378694
562,1324.808,1.6798125718433425,95.32018742815666
563,1327.281,0.6811643279776405,95.31883567202236
564,1329.752,0.6825158189787714,95.31748418102123
565,1332.223,1.6838670094420252,95.31613299055797
566,1334.692,0.0,95.31478213580277
567,1337.161,1.6865683483106721,95.31343165168933
568,1339.628,2.6879184270871406,95.31208157291286
569,1342.095,0.6892680660718185,95.31073193392818
570,1344.561,0.0,95.30938276894767
571,1347.026,2.6919658880607216,95.30803411193928
572,1349.490,0.6933140033753631,95.30668599662464
573,1351.953,0.0,95.30533845647696
574,1354.415,0.6960084752808484,95.30399152471915
575,1356.876,0.6973547656781989,95.3026452343218
576,1359.337,2.6987003819987905,95.30129961800121
577,1361.796,0.0,95.29995470821738
578,1364.255,1.701389462827919,95.29861053717208
579,1366.712,2.7027328631931624,95.29726713680684
580,1369.169,0.7040754611990394,95.29592453880096
581,1371.625,1.705417225430395,95.2945827745696
582,1374.079,1.7067581247383004,95.2932418752617
583,1376.533,1.708098128241943,95.29190187175806
584,1378.986,1.7094372053306301,95.29056279466937
585,1381.438,0.7107753256657929,95.2892246743342
586,1383.889,1.7121124591829613,95.28788754081704
587,1386.339,0.713448576093711,95.28655142390629
588,1388.789,0.0,95.28521635311235
589,1391.237,0.7161176423344386,95.28388235766556
590,1393.685,2.7174505334857457,95.28254946651425
591,1396.131,1.7187822916771722,95.28121770832283
592,1398.577,0.7201128885303376,95.27988711146966
593,1401.021,1.7214422959547875,95.27855770404521
594,1403.465,1.7227704861499546,95.27722951385005
595,1405.908,0.7240974316072055,95.2759025683928
596,1408.350,1.7254231051117586,95.27457689488824
597,1410.791,1.7267474797447306,95.27325252025527
598,1413.231,1.7280705288850413,95.27192947111496
599,1415.670,1.7293922262114165,95.27060777378858
600,1418.109,0.7307125457043924,95.26928745429561
601,1420.546,0.0,95.26796853835171
602,1422.983,1.7333489486331786,95.26665105136682
603,1425.418,1.7346649815568327,95.26533501844317
604,1427.853,1.7359795356267682,95.26402046437323
605,1430.287,0.7372925863621873,95.26270741363781
606,1432.719,1.7386041095959257,95.26139589040407
607,1435.151,0.7399140814765275,95.26008591852347
608,1437.582,1.741222478470121,95.25877752152988
609,1440.012,0.7425292773624648,95.25747072263754
610,1442.442,0.7438344552608669,95.25616554473913
611,1444.870,2.7451379895962305,95.25486201040377
612,1447.297,1.7464398581250151,95.25356014187498
613,1449.724,1.7477400389311697,95.25225996106883
614,1452.149,1.7490385104281643,95.25096148957184
615,1454.574,0.0,95.24966474863905
616,1456.998,2.751630240807941,95.24836975919206
617,1459.421,1.7529234581829627,95.24707654181704
618,1461.843,0.7542148832373101,95.24578511676269
619,1464.264,0.7555044960616328,95.24449550393837
620,1466.684,0.7567922770879676,95.24320772291203
621,1469.103,1.758078207091728,95.24192179290827
622,1471.521,1.7593622671936515,95.24063773280635
623,1473.939,2.7606444388617604,95.23935556113824
624,1476.355,2.7619247039134223,95.23807529608658
625,1478.771,0.7632030445172262,95.23679695548277
626,1481.186,1.7644794431950572,95.23552055680494
627,1483.600,0.7657538828240149,95.23424611717599
628,1486.013,1.7670263466383886,95.23297365336161
629,1488.425,0.0,95.23170318176831
630,1490.836,1.7695652815585703,95.23043471844143
631,1493.246,0.0,95.22916827906315
632,1495.655,1.7720961210494863,95.22790387895051
633,1498.064,0.0,95.22664153305351
634,1500.471,0.774618744047018,95.22538125595298
635,1502.878,1.7758769381412378,95.22412306185876
636,1505.284,0.7771330353923958,95.2228669646076
637,1507.688,2.7783870223387623,95.22161297766124
638,1510.092,0.7796388858955936,95.2203611141044
639,1512.495,2.7808886133571207,95.21911138664288
640,1514.898,0.0,95.21786380760145
641,1517.299,1.7833816110780276,95.21661838892197
642,1519.699,0.7846248578385939,95.2153751421614
643,1522.099,3.785865921510222,95.21413407848978
644,1524.497,0.7871047913117195,95.21289520868828
645,1526.895,0.0,95.21165854314721
646,1529.292,1.7895759081359586,95.21042409186404
647,1531.687,0.7908081355585352,95.20919186444146
648,1534.082,0.7920381299146726,95.20796187008533
649,1536.477,0.7932658823972503,95.20673411760275
650,1538.870,1.7944913845999082,95.20550861540009
651,1541.262,0.7957146285190646,95.20428537148094
652,1543.654,0.7969356065557633,95.20306439344424
653,1546.044,1.7981543115178056,95.2018456884822
654,1548.434,0.7993707366216398,95.20062926337836
655,1550.822,0.8005848754943514,95.19941512450565
656,1553.210,0.0,95.19820327782436
657,1555.597,1.8030062711198411,95.19699372888016
658,1557.983,0.8042135171978657,95.19578648280213
659,1560.369,1.8054184556991828,95.19458154430082
660,1562.753,1.8066210823337912,95.19337891766621
661,1565.136,1.8078213932342209,95.19217860676578
662,1567.519,1.809019384957523,95.19098061504248
663,1569.901,0.8102150544871876,95.18978494551281
664,1572.281,0.811408399235205,95.1885916007648
665,1574.661,0.8125994170439839,95.18740058295602
666,1577.040,1.8137881061883263,95.18621189381167
667,1579.418,0.8149744653774889,95.18502553462251
668,1581.795,1.8161584937570439,95.18384150624296
669,1584.172,2.8173401909109543,95.18265980908905
670,1586.547,0.0,95.18148044313651
671,1588.922,0.8196965920812715,95.18030340791873
672,1591.296,1.820871297475179,95.17912870252482
673,1593.668,0.0,95.17795632559762
674,1596.040,0.0,95.17678627533172
675,1598.411,0.0,95.1756185494715
676,1600.781,0.0,95.17445314530907
677,1603.151,0.8267099403175706,95.17329005968243
678,1605.519,0.0,95.17212928897335
679,1607.887,1.8290291708945006,95.1709708291055
680,1610.253,0.0,95.16981467554241
681,1612.619,1.831339176714522,95.16866082328548
682,1614.984,0.0,95.16750926687207
683,1617.348,2.8336399996265413,95.16636000037346
684,1619.711,0.8347869826071417,95.16521301739286
685,1622.073,0.8359316889364976,95.1640683110635
686,1624.435,1.837074125953393,95.1629258740466
687,1626.795,1.838214301470586,95.16178569852941
688,1629.155,1.8393522237768138,95.16064777622319
689,1631.513,0.0,95.15951209836126
690,1633.871,0.0,95.15837865569709
691,1636.228,0.842752561497818,95.15724743850218
692,1638.584,0.8438815634358008,95.1561184365642
693,1640.940,0.0,95.15499163918496
694,1643.294,1.8461329648215923,95.15386703517841
695,1645.647,0.0,95.1527446128687
696,1648.000,1.8483756399117652,95.15162436008823
697,1650.352,1.8494937358244101,95.15050626417559
698,1652.703,3.8506096880263954,95.1493903119736
699,1655.053,1.8517235101726044,95.1482764898274
700,1657.402,1.8528352164176027,95.1471647835824
701,1659.750,1.8539448214176701,95.14605517858233
702,1662.097,0.8550523403327617,95.14494765966724
703,1664.444,0.8561577888284546,95.14384221117155
704,1666.789,0.0,95.14273881692203
705,1669.134,0.8583625397641015,95.1416374602359
706,1671.478,2.859461876081255,95.14053812391874
707,1673.821,0.0,95.13944079026263
708,1676.163,0.8616545589559763,95.13834544104402
709,1678.505,0.862747942478066,95.13725205752193
710,1680.845,3.863839379564155,95.13616062043585
711,1683.185,0.0,95.13507111000375
712,1685.523,0.866016494079787,95.13398350592021
713,1687.861,0.867102212645662,95.13289778735434
714,1690.198,1.8681860670521644,95.13181393294784
715,1692.534,1.8692680791870089,95.13073192081299
716,1694.869,0.8703482714692541,95.12965172853075
717,1697.204,0.8714266668513062,95.1285733331487
718,1699.537,1.8725032888209512,95.12749671117905
719,1701.870,2.8735781614032305,95.12642183859677
720,1704.201,0.8746513091625161,95.12534869083748
721,1706.532,1.8757227572044286,95.12427724279557
722,1708.862,0.8767925311778271,95.12320746882217
723,1711.191,0.8778606572768268,95.12213934272317
724,1713.520,0.8789271622427322,95.12107283775727
725,1715.847,0.0,95.12000792663397
726,1718.174,2.8810554184883728,95.11894458151163
727,1720.499,0.8821172260045671,95.11788277399543
728,1722.824,0.8831775248645499,95.11682247513545
729,1725.148,0.8842363445753421,95.11576365542466
730,1727.471,1.8852937152030478,95.11470628479695
731,1729.794,0.8863496673748301,95.11365033262517
732,1732.115,0.8874042322809146,95.11259576771909
733,1734.436,2.8884574416765076,95.11154255832349
734,1736.755,2.889509327883843,95.11049067211616
735,1739.074,0.8905599237941288,95.10944007620587
736,1741.392,0.0,95.10839073713048
737,1743.709,0.8926573791451062,95.1073426208549
738,1746.025,0.8937043072309052,95.1062956927691
739,1748.341,0.8947500823138199,95.10524991768618
740,1750.655,0.0,95.1042052598404
741,1752.969,2.8968383171148986,95.1031616828851
742,1755.282,0.8978808501091606,95.10211914989084
743,1757.594,0.8989223766566568,95.10107762334334
744,1759.905,0.0,95.10003706514156
745,1762.215,0.0,95.09899743659565
746,1764.525,0.9020413015749256,95.09795869842507
747,1766.833,1.903079189243499,95.0969208107565
748,1769.141,0.9041162668780629,95.09588373312194
749,1771.448,1.9051525755433119,95.09484742445669
750,1773.754,1.9061881569025871,95.09381184309741
751,1776.059,1.9072230532198944,95.0927769467801
752,1778.363,1.9082573073618505,95.09174269263815
753,1780.667,1.9092909627996875,95.09070903720031
754,1782.969,1.910324063611185,95.08967593638882
755,1785.271,0.9113566544827165,95.08864334551728
756,1787.572,0.9123887807111686,95.08761121928883
757,1789.872,1.9134204882059862,95.08657951179401
758,1792.171,0.9144518234910493,95.08554817650895
759,1794.469,1.9154828337067755,95.08451716629322
760,1796.767,0.0,95.083486433388
761,1799.063,1.9175440705859899,95.08245592941401
762,1801.359,0.0,95.08142560536953
763,1803.654,0.0,95.0803954116285
764,1805.948,1.9206347020615482,95.07936529793845
765,1808.241,1.9216647865814167,95.07833521341858
766,1810.534,0.9226948934422552,95.07730510655774
767,1812.825,0.0,95.07627492521249
768,1815.116,0.9247553833949098,95.07524461660509
769,1817.406,0.0,95.07421412732153
770,1819.695,1.9268165966904434,95.07318340330956
771,1821.983,1.927847610123294,95.0721523898767
772,1824.270,0.9288789683116931,95.0711210316883
773,1826.557,0.0,95.07008927276546
774,1828.843,0.0,95.06905705648316
775,1831.127,3.931975674431783,95.06802432556822
776,1833.411,0.0,95.06699102209737
777,1835.694,0.0,95.06595708749519
778,1837.977,1.9350775374677625,95.06492246253224
779,1840.258,0.9361129126770322,95.06388708732297
780,1842.539,0.9371490986762012,95.0628509013238
781,1844.818,1.9381861566688485,95.06181384333115
782,1847.097,1.9392241485205375,95.06077585147946
783,1849.375,0.0,95.05973686323915
784,1851.652,0.0,95.0586968154147
785,1853.929,0.9423443558573013,95.0576556441427
786,1856.204,0.9433867151102504,95.05661328488975
787,1858.479,0.0,95.05556967245063
788,1860.753,0.9454752590538078,95.05452474094619
789,1863.026,0.0,95.05347842382149
790,1865.298,0.0,95.05243065384371
791,1867.569,2.9486186368997522,95.05138136310025
792,1869.840,0.9496695170033007,95.0503304829967
793,1872.110,1.9507220557450893,95.04927794425491
794,1874.378,1.951776323089021,95.04822367691098
795,1876.646,0.0,95.04716761031325
796,1878.914,0.953890326879602,95.0461096731204
797,1881.180,1.9549502067006017,95.0450497932994
798,1883.445,1.956012101876425,95.04398789812358
799,1885.710,0.0,95.0429239141706
800,1887.974,0.9581422326794637,95.04185776732054
801,1890.237,0.9592106172461712,95.04078938275383
802,1892.499,2.9602813150506506,95.03971868494935
803,1894.760,0.961354402317582,95.03864559768242
804,1897.021,0.0,95.03757004402283
805,1899.280,1.9635080536671552,95.03649194633284
806,1901.539,2.964588773734775,95.03541122626523
807,1903.797,1.9656721952387244,95.03432780476128
808,1906.054,0.0,95.03324160204885
809,1908.311,0.9678474623596856,95.03215253764031
810,1910.566,0.9689394696692943,95.0310605303307
811,1912.821,1.9700345018043777,95.02996549819562
812,1915.075,0.9711326414107049,95.0288673585893
813,1917.328,0.0,95.02776602814262
814,1919.580,0.9733385772388488,95.02666142276115
815,1921.831,1.9744465423768673,95.02555345762313
816,1924.082,1.9755579528224558,95.02444204717754
817,1926.331,0.9766728948579271,95.02332710514207
818,1928.580,0.9777914554988314,95.02220854450117
819,1930.828,0.0,95.02108627750408
820,1933.075,1.9800397843371798,95.01996021566282
821,1935.322,0.9811697302497606,95.01883026975024
822,1937.567,0.0,95.01769634979802
823,1939.812,0.9834416349053043,95.0165583650947
824,1942.056,0.0,95.01541622418371
825,1944.299,1.9857301651386194,95.01426983486138
826,1946.541,1.9868808958250526,95.01311910417495
827,1948.783,0.9880360615794075,95.01196393842059
828,1951.023,0.9891957568585212,95.01080424314148
829,1953.263,0.9903600768742393,95.00963992312576
830,1955.502,0.9915291175954479,95.00847088240455
831,1957.740,1.9927029757499497,95.00729702425005
832,1959.977,0.9938817488265528,95.00611825117345
833,1962.214,0.0,95.00493446492304
834,1964.449,0.996254433517791,95.00374556648221
835,1966.684,0.9974485439325633,95.00255145606744
836,1968.918,1.998647966873662,95.00135203312634
837,1971.152,0.0,95.00014719633566
838,1973.384,1.001063156400619,94.99893684359938
839,1975.615,0.0022791279534004616,94.9977208720466
840,1977.846,0.0035008219703200893,94.99649917802968
841,1980.076,1.0047283428778115,94.99527165712219
842,1982.305,1.0059617958830103,94.99403820411699
843,1984.533,1.007201286975814,94.99279871302419
844,1986.761,0.0,94.99155307706917
845,1988.988,0.009698811309291955,94.99030118869071
846,1991.213,2.010957060461152,94.98904293953885
847,1993.438,1.0122217795269677,94.98777822047303
848,1995.663,2.013493078439936,94.98650692156006
849,1997.886,2.014771067927839,94.98522893207216
850,2000.108,1.0160558595150349,94.98394414048497
851,2002.330,0.01734756552444594,94.98265243447555
852,2004.551,1.0186462990795349,94.98135370092047
853,2006.771,1.0199521741062512,94.98004782589375
854,2008.991,1.0212653053350635,94.97873469466494
855,2011.209,2.0225858083029067,94.9774141916971
856,2013.427,2.023913799355185,94.97608620064481
857,2015.644,1.0252493956476911,94.97475060435231
858,2017.860,2.0265927151486665,94.97340728485133
859,2020.075,1.0279438766407196,94.97205612335928
860,2022.289,1.0293029997228444,94.97069700027716
861,2024.503,0.03067020481236682,94.96932979518763
862,2026.716,3.032045613146934,94.96795438685307
863,2028.928,2.0334293467865336,94.96657065321347
864,2031.139,0.0348215286154101,94.96517847138459
865,2033.349,1.0362222823440845,94.96377771765592
866,2035.559,1.0376317325112865,94.96236826748871
867,2037.767,2.0390500044860147,94.96094999551399
868,2039.975,0.040477224469455564,94.95952277553054
869,2042.182,1.0419135194969584,94.95808648050304
870,2044.389,2.0433590174400393,94.95664098255996
871,2046.594,2.0448138470083705,94.95518615299163
872,2048.799,0.0462781377517274,94.95372186224827
873,2051.003,1.0477520200619779,94.95224797993802
874,2053.206,1.049235625175072,94.95076437482493
875,2055.408,0.05072908517303176,94.94927091482697
876,2057.609,1.052232532985883,94.94776746701412
877,2059.810,1.0537461023936743,94.94625389760633
878,2062.010,2.0552699280284656,94.94473007197153
879,2064.209,2.056804145376276,94.94319585462372
880,2066.407,0.05834889077907235,94.94165110922093
881,2068.605,2.0599043014367453,94.94009569856325
882,2070.801,0.061470515409112636,94.93852948459089
883,2072.997,2.0630476716178663,94.93695232838213
884,2075.192,0.0,94.93536409015142
885,2077.386,1.0662353707526364,94.93376462924736
886,2079.580,2.067846195849313,94.93215380415069
887,2081.772,1.0694685275276328,94.93053147247237
888,2083.964,1.0711025090484299,94.92889749095157
889,2086.155,0.0727482845462788,94.92725171545372
890,2088.345,1.0744059990315122,94.92559400096849
891,2090.535,1.0760757983921962,94.9239242016078
892,2092.723,1.077757829396063,94.92224217060394
893,2094.911,1.0794522396925714,94.92054776030743
894,2097.098,1.081159177814797,94.9188408221852
895,2099.284,1.0828787931814645,94.91712120681854
896,2101.470,2.0846112360989366,94.91538876390106
897,2103.654,1.0863566577631474,94.91364334223685
898,2105.838,2.08811521026162,94.91188478973838
899,2108.021,1.089887046575413,94.91011295342459
900,2110.203,0.0916723205811536,94.90832767941885
901,2112.385,1.0934711870529412,94.90652881294706
902,2114.565,1.0952838016643938,94.9047161983356
903,2116.745,1.0971103209905948,94.9028896790094
904,2118.924,0.09895090251008298,94.90104909748992
905,2121.102,1.1008057046067847,94.89919429539322
906,2123.280,2.1026748865721174,94.89732511342788
907,2125.456,1.1045586086068084,94.89544139139319
908,2127.632,0.0,94.893542968177
909,2129.807,2.1083703182461306,94.89162968175387
910,2131.981,2.1102986308170273,94.88970136918297
911,2134.155,1.1122421333937638,94.88775786660624
912,2136.327,0.11420099075373003,94.88579900924627
913,2138.499,2.1161753685955773,94.88382463140442
914,2140.670,1.1181654335411793,94.88183456645882
915,2142.840,1.1201713531376498,94.87982864686235
916,2145.010,1.1221932958592902,94.87780670414071
917,2147.179,2.1242314311095782,94.87576856889042
918,2149.346,2.126285929223158,94.87371407077684
919,2151.513,2.12835696146783,94.87164303853217
920,2153.680,1.1304447000464535,94.86955529995355
921,2155.845,1.1325493180990236,94.86745068190098
922,2158.010,3.134670989704631,94.86532901029537
923,2160.174,0.13680988988338072,94.86319011011662
924,2162.337,1.1389661945984102,94.86103380540159
925,2164.499,1.141140080757907,94.8588599192421
926,2166.661,2.1433317262170135,94.85666827378299
927,2168.822,1.1455413097798441,94.85445869022016
928,2170.982,2.1477690112014756,94.85223098879852
929,2173.141,0.15001501118992167,94.84998498881008
930,2175.299,0.1522794914080663,94.84772050859193
931,2177.457,1.154562634475738,94.84543736552426
932,2179.614,0.15686462397157186,94.84313537602843
933,2181.770,1.1591856444350839,94.84081435556492
934,2183.925,1.161525881368604,94.8384741186314
935,2186.079,2.1638855212392656,94.83611447876073
936,2188.233,1.1662647514809947,94.833735248519
937,2190.386,2.168663760496443,94.83133623950356
938,2192.538,2.1710827376590345,94.82891726234097
939,2194.689,1.1735218733149253,94.82647812668507
940,2196.840,1.175981358784938,94.82401864121506
941,2198.990,2.1784613863665783,94.82153861363342
942,2201.139,1.1809621493360254,94.81903785066397
943,2203.287,1.1834838419500926,94.81651615804991
944,2205.434,2.1860266594482027,94.8139733405518
945,2207.581,0.0,94.81140920194565
946,2209.727,0.0,94.80882354502086
947,2211.872,0.0,94.80621617157827
948,2214.016,1.1964131175717654,94.80358688242823
949,2216.159,3.199064522611465,94.80093547738853
950,2218.302,2.2017382447174754,94.79826175528252
951,2220.444,1.2044344860629508,94.79556551393705
952,2222.585,0.0,94.7928465501805
953,2224.725,2.2098953401591217,94.79010465984088
954,2226.865,2.212660362256244,94.78733963774376
955,2229.004,1.2154487222896933,94.7845512777103
956,2231.142,2.21826062744465,94.78173937255535
957,2233.279,0.0,94.77890371408537
958,2235.415,2.22395590690347,94.77604409309653
959,2237.551,1.2268397006273233,94.77316029937268
960,2239.686,1.2297478783166156,94.77025212168338
961,2241.820,1.2326806522180505,94.76731934778195
962,2243.954,0.2356382355965536,94.76436176440345
963,2246.086,2.238620842737248,94.76137915726275
964,2248.218,1.2416286889475145,94.75837131105249
965,2250.349,2.2446619905588534,94.75533800944115
966,2252.479,1.247720964928945,94.75227903507106
967,2254.609,1.2508058304436247,94.74919416955638
968,2256.737,1.253916806518788,94.74608319348121
969,2258.865,0.25705411360247865,94.74294588639752
970,2260.992,1.2602179731767933,94.7397820268232
971,2263.119,2.263408607759871,94.73659139224013
972,2265.244,1.2666262409078826,94.73337375909212
973,2267.369,2.2698710972170346,94.73012890278297
974,2269.493,1.2731434023254877,94.72685659767451
975,2271.616,1.276443382915403,94.7235566170846
976,2273.739,0.279771266714846,94.72022873328515
977,2275.861,1.283127282499862,94.71687271750014
978,2277.982,1.2865116600963802,94.71348833990362
979,2280.102,0.0,94.71007536961781
980,2282.221,1.2933664252889656,94.70663357471103
981,2284.340,0.0,94.70316272219576
982,2286.458,1.300337421973353,94.69966257802665
983,2288.575,2.3038670929014415,94.69613290709856
984,2290.691,0.0,94.69257347324458
985,2292.807,1.311015960765971,94.68898403923403
986,2294.921,1.3146356332295142,94.68536436677049
987,2297.035,1.3182857835101913,94.68171421648981
988,2299.149,1.3219666520418372,94.67803334795816
989,2301.261,2.3256784803299695,94.67432151967003
990,2303.373,1.3294215109537362,94.67057848904626
991,2305.484,0.0,94.66680401243205
992,2307.594,2.3370021549050364,94.66299784509496
993,2309.703,1.3408402587769785,94.65915974122302
994,2311.812,0.3447105460773656,94.65528945392263
995,2313.920,1.3486132647833386,94.65138673521666
996,2316.027,1.352548663957549,94.64745133604245
997,2318.133,1.356516993750148,94.64348300624985
998,2320.239,1.360518505400833,94.63948149459917
999,2322.344,0.0,94.63544654875932
1000,2324.448,2.3686220846943087,94.63137791530569
1001,2326.551,0.3727246602816905,94.62727533971831
1002,2328.654,0.3768614336202205,94.62313856637978
1003,2330.755,1.3810326614267012,94.6189673385733
1004,2332.856,0.38523860151927636,94.61476139848072
1005,2334.957,3.3894795128194346,94.61052048718057
1006,2337.056,3.393755655353999,94.606244344646
1007,2339.155,1.3980672902570745,94.60193270974293
1008,2341.253,0.0,94.59758532022795
1009,2343.350,0.40679808725359123,94.59320191274641
1010,2345.446,2.4112177771695826,94.58878222283042
1011,2347.542,4.4156740151031215,94.58432598489688
1012,2349.637,0.4201670677545195,94.57983293224548
1013,2351.731,1.424697202943264,94.57530279705674
1014,2353.825,1.4292646896099654,94.57073531039003
1015,2355.917,0.43386979781841717,94.56613020218158
1016,2358.009,0.0,94.56148720124253
1017,2360.100,0.44319396474311645,94.55680603525688
1018,2362.190,1.4479135692203755,94.55208643077962
1019,2364.280,0.45267188676537273,94.54732811323463
1020,2366.369,0.45746919308720635,94.5425308069128
1021,2368.457,0.46230576503000975,94.53769423496999
1022,2370.544,0.0,94.5328181194251
1023,2372.631,1.4720978188419593,94.52790218115804
