pixel_index,raman_shift_cm-1,intensity
0,-224.905,0.1514926317804669
1,-221.837,0.19803677964312036
2,-218.771,0.22313622984515594
3,-215.706,0.23266006141557835
4,-212.642,0.23247735338339223
5,-209.579,0.22845718477760296
6,-206.517,0.27665977987263135
7,-203.456,0.25120246090064896
8,-200.397,0.20713353430439232
9,-197.339,0.26143070385946343
10,-194.282,0.25623467563718544
11,-191.227,0.2680464235768765
12,-188.172,0.3231757763714871
13,-185.119,0.2427155409058778
14,-182.067,0.22419211483822465
15,-179.016,0.20567605558662547
16,-175.966,0.17664336805514688
17,-172.918,0.1370940071591139
18,-169.871,0.11212350068699561
19,-166.825,0.17539945280028732
20,-163.780,0.18484849600549727
21,-160.736,0.23559090178636816
22,-157.693,0.18150562996228553
23,-154.652,0.13957038663982843
24,-151.612,0.15309522917562446
25,-148.573,0.14153142076191713
26,-145.535,0.1627606419453745
27,-142.499,0.22730679913411228
28,-139.464,0.24409720616599373
29,-136.429,0.322418991396681
30,-133.397,0.3517706385067308
31,-130.365,0.39408150187476615
32,-127.334,0.28461124707437657
33,-124.305,0.2864585777663816
34,-121.277,0.27171698430483726
35,-118.250,0.28410129313727295
36,-115.224,0.2657297381386855
37,-112.199,0.21376890637960028
38,-109.176,0.18610048034996593
39,-106.153,0.29201159001914695
40,-103.132,0.30118959936736367
41,-100.112,0.31239768883840013
42,-97.094,0.28475431993946193
43,-94.076,0.33523720201023005
44,-91.060,0.3505114498663902
45,-88.045,0.3925064201297954
46,-85.031,0.35072059904469294
47,-82.018,0.33444111785089725
48,-79.006,0.3408345653673694
49,-75.996,0.33428137913042294
50,-72.987,0.32166256351466105
51,-69.979,0.3244307459135273
52,-66.972,0.2450369671691143
53,-63.966,0.22312590709163227
54,-60.961,0.17855360080934898
55,-57.958,0.13762988396026118
56,-54.956,0.1371885421825128
57,-51.955,0.12582408949272364
58,-48.955,0.1614182115284759
59,-45.956,0.20308937246035633
60,-42.959,0.30588588712235526
61,-39.962,0.3087103313800678
62,-36.967,0.4103034124879229
63,-33.973,0.5539976704638669
64,-30.980,0.5750527759177048
65,-27.989,0.5827558628810976
66,-24.998,0.5479636483474699
67,-22.009,0.4783666739195151
68,-19.021,0.44358487851598166
69,-16.034,0.42135602371513275
70,-13.048,0.35663171980660135
71,-10.063,0.304865050602461
72,-7.080,0.35955722642780996
73,-4.098,0.31022921416117566
74,-1.116,0.26252524347998457
75,1.864,0.2743270026077101
76,4.842,0.2719668068561
77,7.820,0.27001624346264835
78,10.797,0.2947851515639103
79,13.772,0.35436884186741796
80,16.746,0.3358372020127406
81,19.719,0.2905956442887286
82,22.691,0.2145964607954733
83,25.662,0.16572134094484797
84,28.631,0.1662324517440194
85,31.599,0.195081859062348
86,34.567,0.25267429590742396
87,37.533,0.22607965094969215
88,40.498,0.1889655391018706
89,43.461,0.18868970081026537
90,46.424,0.122441207726027
91,49.385,0.1468649720525827
92,52.346,0.17776936161078719
93,55.305,0.1941064434356105
94,58.263,0.19992385741351537
95,61.219,0.18064994769565648
96,64.175,0.21642860718115453
97,67.130,0.17813903391983954
98,70.083,0.20380684524463574
99,73.035,0.2602410900009443
100,75.986,0.3251795343235047
101,78.936,0.4026698191017362
102,81.885,0.4125679866079828
103,84.832,0.3326118034034042
104,87.779,0.2797789879848156
105,90.724,0.20266406147188873
106,93.668,0.16036301849676401
107,96.611,0.1277802550730837
108,99.553,0.1854644331056647
109,102.494,0.19134219868962407
110,105.433,0.23365279274259823
111,108.372,0.2533001584931748
112,111.309,0.26080821520627445
113,114.245,0.25212925942365266
114,117.180,0.27462103514511427
115,120.114,0.2663541150426119
116,123.047,0.2273284690904795
117,125.978,0.2125924204357896
118,128.909,0.2403604679060386
119,131.838,0.26206050568106687
120,134.766,0.3027880769920384
121,137.693,0.3083043340683546
122,140.619,0.34053864487150504
123,143.544,0.36265715587775044
124,146.467,0.37465983815638026
125,149.390,0.33971283845511463
126,152.311,0.31974552527836286
127,155.231,0.2674000957992636
128,158.150,0.21667697497281346
129,161.068,0.2558154063198751
130,163.985,0.2164321642005586
131,166.901,0.2223860149557429
132,169.815,0.259105307869267
133,172.729,0.2500889951940492
134,175.641,0.33376746653306427
135,178.552,0.37090074263730793
136,181.462,0.3550125193566826
137,184.371,0.26100719679381823
138,187.279,0.1981719193565907
139,190.185,0.17419723885099928
140,193.091,0.12715373131731356
141,195.995,0.17037621457462107
142,198.898,0.17231528902792229
143,201.800,0.18437637559327816
144,204.701,0.2802270969119089
145,207.601,0.30605585218435327
146,210.500,0.2646959865091009
147,213.397,0.25086302260598975
148,216.294,0.22488973915053012
149,219.189,0.16168053780915398
150,222.083,0.15999861470521864
151,224.976,0.1724861701668169
152,227.868,0.16635702751210807
153,230.759,0.15618278448892073
154,233.649,0.1933688634295647
155,236.537,0.168628068007774
156,239.425,0.1515803493873699
157,242.311,0.20010740710856129
158,245.196,0.18913612045714168
159,248.081,0.2133820136825638
160,250.964,0.2437018168314358
161,253.845,0.2655238829378691
162,256.726,0.3039437607302668
163,259.606,0.3221276018975629
164,262.484,0.30550375984815326
165,265.362,0.26459616082169884
166,268.238,0.24676255563892333
167,271.113,0.24916954983002546
168,273.987,0.22445934585857122
169,276.860,0.24913294063963914
170,279.732,0.2389987124254583
171,282.603,0.23089046280711117
172,285.472,0.27621361636004954
173,288.341,0.2579904002632076
174,291.208,0.24219786219774925
175,294.075,0.21831202993977836
176,296.940,0.1758089313864571
177,299.804,0.12926016726279413
178,302.667,0.10092791714709907
179,305.529,0.12764598360005594
180,308.389,0.13979436894806851
181,311.249,0.1373730515342158
182,314.108,0.21914523144231265
183,316.965,0.1875844440110774
184,319.821,0.22159781530411138
185,322.676,0.2143267564842521
186,325.531,0.2418674992131475
187,328.384,0.32526792223549783
188,331.235,0.3289309586452962
189,334.086,0.3738820109488031
190,336.936,0.37592945979376374
191,339.785,0.3350732847039212
192,342.632,0.3500766869409056
193,345.478,0.23798482588057354
194,348.324,0.21858632623306984
195,351.168,0.168022373657967
196,354.011,0.17453222003514182
197,356.853,0.24216351860033172
198,359.694,0.21710467503053643
199,362.534,0.2600482885591349
200,365.372,0.2576594952645522
201,368.210,0.25729605012476503
202,371.046,0.3063157082314005
203,373.882,0.2691214044088509
204,376.716,0.26269086987223217
205,379.549,0.28297641273308644
206,382.381,0.30771581263775083
207,385.212,0.3118134782327003
208,388.042,0.28069776812125297
209,390.871,0.32365583534684306
210,393.699,0.3196622383816169
211,396.526,0.32012240634450695
212,399.351,0.29994074843884444
213,402.176,0.21540237809903687
214,404.999,0.24136675180229952
215,407.821,0.351523977177479
216,410.643,0.3629192161947369
217,413.463,0.39941124564267355
218,416.282,0.3950229779090217
219,419.100,0.45620819602602025
220,421.917,0.4765130824260333
221,424.732,0.43367541840887547
222,427.547,0.37505296127935767
223,430.361,0.3006456941479006
224,433.173,0.3250027466210472
225,435.985,0.28500287942771996
226,438.795,0.2575518633277623
227,441.604,0.21391120343680006
228,444.412,0.1330329837095156
229,447.219,0.11772808253501009
230,450.025,0.09554313676026986
231,452.830,0.08104975320897312
232,455.634,0.12160569024978904
233,458.437,0.18037710759699022
234,461.239,0.22053016506938367
235,464.039,0.2525887968920834
236,466.839,0.3239107618513244
237,469.637,0.29889899845641954
238,472.435,0.2868406628649068
239,475.231,0.27316411700897475
240,478.026,0.16679670289723353
241,480.820,0.18347937734989586
242,483.613,0.18761507939039704
243,486.405,0.1868943729554988
244,489.196,0.2246273446356235
245,491.986,0.2490037652167495
246,494.775,0.3065718599056305
247,497.563,0.5114759933982587
248,500.349,0.7293334072307965
249,503.135,0.8929527151263493
250,505.919,0.953761826787438
251,508.703,1.0
252,511.485,0.8499267023974733
253,514.266,0.6682822119907226
254,517.047,0.4813763896988176
255,519.826,0.24994679365960593
256,522.604,0.08206627993782765
257,525.381,0.07245038373921367
258,528.157,0.12031203363305262
259,530.932,0.2001508764072663
260,533.705,0.27553784180027346
261,536.478,0.27685294090572227
262,539.250,0.30569275354433556
263,542.020,0.30012786973540323
264,544.790,0.21361003705982695
265,547.558,0.23557034010104938
266,550.326,0.25834066407031686
267,553.092,0.24913484509350162
268,555.857,0.26057262005571935
269,558.622,0.22424830272027702
270,561.385,0.20613895111812217
271,564.147,0.18398235159770934
272,566.908,0.2091839395155154
273,569.668,0.0987888826215097
274,572.427,0.03170431650273268
275,575.185,0.12207460856275985
276,577.941,0.21325480144237538
277,580.697,0.2384582788580393
278,583.452,0.28066232625719895
279,586.205,0.2989854348505543
280,588.958,0.301118172147475
281,591.710,0.29475110574847274
282,594.460,0.31955142018135274
283,597.209,0.23992205841670416
284,599.958,0.22424620711237975
285,602.705,0.21059445833357554
286,605.451,0.21758609727887998
287,608.196,0.21648263493425643
288,610.941,0.15709291538328865
289,613.684,0.1563946784116732
290,616.426,0.1763397873322483
291,619.167,0.21288055889121393
292,621.907,0.2737075616728637
293,624.645,0.28515313670209
294,627.383,0.341932822609656
295,630.120,0.3780695393278626
296,632.856,0.4040872269022843
297,635.590,0.39367600100792366
298,638.324,0.2913827316817408
299,641.057,0.3352105827987834
300,643.788,0.3539429762738378
301,646.519,0.3585086198842844
302,649.248,0.33069297576832124
303,651.976,0.29680590933899176
304,654.704,0.26089508449894666
305,657.430,0.19786491951079874
306,660.155,0.2210502499118155
307,662.880,0.2134733166403403
308,665.603,0.208325029658884
309,668.325,0.1845574805817073
310,671.046,0.1539089125458388
311,673.766,0.16373709132287997
312,676.485,0.17316051099026006
313,679.203,0.21779868573383712
314,681.920,0.21710291422556524
315,684.636,0.2220738682801282
316,687.351,0.37478486268195665
317,690.065,0.4331850429574518
318,692.777,0.4592037983105899
319,695.489,0.41195962338700925
320,698.200,0.38616805899092393
321,700.909,0.342161901832934
322,703.618,0.3208226417467748
323,706.326,0.27884016988614574
324,709.032,0.1979999501907129
325,711.738,0.16654124703295017
326,714.442,0.20024997785452395
327,717.146,0.18619605822595556
328,719.848,0.16809434956386632
329,722.549,0.18277866923298838
330,725.250,0.13917636732950697
331,727.949,0.19393238268342808
332,730.647,0.23654523506155523
333,733.345,0.267014917678491
334,736.041,0.25619817810053935
335,738.736,0.29881055829822334
336,741.430,0.29204115707476896
337,744.123,0.33060551655136416
338,746.816,0.32626435854350105
339,749.507,0.3409470738820065
340,752.197,0.29046205754859766
341,754.886,0.2930013554625399
342,757.574,0.31577881007269387
343,760.261,0.25234061498708893
344,762.947,0.23423613730242251
345,765.632,0.246893748264858
346,768.315,0.21381242202895404
347,770.998,0.2956847716336288
348,773.680,0.3095559710236391
349,776.361,0.33961761335532886
350,779.041,0.3595598184850588
351,781.720,0.3576443292025627
352,784.397,0.39296716617071514
353,787.074,0.33397895100960806
354,789.750,0.33084834741166796
355,792.425,0.27428817873238015
356,795.098,0.24484713290696655
357,797.771,0.2069056823444944
358,800.442,0.16451149509248345
359,803.113,0.14680781197444923
360,805.783,0.1655328799082836
361,808.451,0.17332891982808987
362,811.119,0.20986312260734347
363,813.785,0.2528732820230714
364,816.451,0.25500161921272496
365,819.115,0.22393870841584018
366,821.779,0.25440009381018436
367,824.441,0.2650275433889256
368,827.103,0.23072548015164207
369,829.763,0.21058992592320086
370,832.423,0.15321542922278758
371,835.081,0.1901513590156922
372,837.739,0.2517777353741085
373,840.395,0.24337900572808902
374,843.051,0.22688456334068266
375,845.705,0.21281835421997414
376,848.358,0.24570477778319424
377,851.011,0.26361443315716854
378,853.662,0.2325468633513949
379,856.312,0.24721761338777967
380,858.962,0.21655403685847824
381,861.610,0.24700993066107338
382,864.257,0.30175146694416244
383,866.904,0.2848487918662855
384,869.549,0.28413640663183903
385,872.193,0.3429244093167638
386,874.837,0.33613970053980236
387,877.479,0.3953316502755559
388,880.120,0.4071654110144554
389,882.760,0.40442713123075114
390,885.400,0.3935930848465306
391,888.038,0.4325449931630141
392,890.675,0.47392507909192444
393,893.312,0.3938745455778188
394,895.947,0.38587216017816867
395,898.581,0.4499179202836081
396,901.214,0.42167629884199337
397,903.847,0.4039581879990925
398,906.478,0.32026256529342645
399,909.108,0.31671042427089025
400,911.737,0.3459439883091168
401,914.366,0.3792247767221377
402,916.993,0.33640886156132754
403,919.619,0.29399726070279525
404,922.245,0.2965143752423195
405,924.869,0.3188646304344522
406,927.492,0.31652362110638244
407,930.114,0.3145869180375896
408,932.736,0.29848289649326976
409,935.356,0.2981643349832666
410,937.975,0.3901322517704202
411,940.594,0.39831286889403456
412,943.211,0.35954000915563483
413,945.827,0.3580052697123433
414,948.442,0.28037380453176153
415,951.057,0.30960043249861957
416,953.670,0.29956415624628463
417,956.283,0.28709879884112294
418,958.894,0.2972999316515319
419,961.504,0.2933337289335078
420,964.114,0.35655841709887237
421,966.722,0.35137694888503745
422,969.329,0.36076662001296605
423,971.936,0.4134659078228923
424,974.541,0.4212355395063539
425,977.146,0.46826711284070754
426,979.749,0.49951227385905805
427,982.352,0.47854196452350045
428,984.953,0.39604653606110446
429,987.553,0.2929074851620663
430,990.153,0.18369643395302213
431,992.751,0.12750940779898723
432,995.349,0.09925083335388801
433,997.946,0.1648977802080636
434,1000.541,0.2220441204809793
435,1003.136,0.2893091495557425
436,1005.729,0.3707405400002734
437,1008.322,0.37445611391989564
438,1010.914,0.28871761920829325
439,1013.504,0.2527650073494499
440,1016.094,0.19009725805270716
441,1018.682,0.13754819555652584
442,1021.270,0.13195164414464333
443,1023.857,0.14821203098155755
444,1026.443,0.20090097884571867
445,1029.027,0.2454940845078569
446,1031.611,0.2528481022484641
447,1034.194,0.30310695785817315
448,1036.776,0.3331269523598271
449,1039.357,0.3388604128716925
450,1041.937,0.35309349101218884
451,1044.515,0.3389923625454045
452,1047.093,0.3625340979165124
453,1049.670,0.2670737516629805
454,1052.246,0.2327327734009932
455,1054.821,0.22267733906263862
456,1057.395,0.20695466875065077
457,1059.968,0.21187463754881883
458,1062.540,0.2018177234174205
459,1065.112,0.19135554977131228
460,1067.682,0.22784589150538637
461,1070.251,0.2598833019330109
462,1072.819,0.3125633544335345
463,1075.386,0.2608129534848836
464,1077.953,0.2689676243387949
465,1080.518,0.31557470079303734
466,1083.082,0.4075152278047089
467,1085.645,0.3395721842641154
468,1088.208,0.32748654289550655
469,1090.769,0.29070961159655545
470,1093.330,0.31343299010512127
471,1095.889,0.32603670353982017
472,1098.448,0.31799680310813727
473,1101.005,0.27474166703673336
474,1103.562,0.3055584679168888
475,1106.117,0.3262556081502545
476,1108.672,0.3777145864077132
477,1111.226,0.306123829264768
478,1113.778,0.2944381583688005
479,1116.330,0.2661565549949247
480,1118.881,0.258112844936263
481,1121.431,0.2703070295629469
482,1123.980,0.24364308422684583
483,1126.528,0.2914558548491259
484,1129.074,0.2793625987273426
485,1131.620,0.2664593434175798
486,1134.165,0.2883656130084972
487,1136.709,0.3187715344569801
488,1139.253,0.32084328490718234
489,1141.795,0.31684306758728564
490,1144.336,0.2921992612999164
491,1146.876,0.3456750893625753
492,1149.415,0.345721180441135
493,1151.954,0.35831460647498786
494,1154.491,0.26242994603611713
495,1157.027,0.24102202132365394
496,1159.563,0.22932806590970206
497,1162.097,0.24596737755173295
498,1164.631,0.20674835939788289
499,1167.163,0.23552980771300078
500,1169.695,0.24812012570301276
501,1172.226,0.2562575671116101
502,1174.755,0.25994213396058324
503,1177.284,0.2551261552823508
504,1179.812,0.2705481115768305
505,1182.339,0.31268428177628255
506,1184.865,0.3552247934001242
507,1187.390,0.38359802574461344
508,1189.914,0.38323235813248097
509,1192.437,0.452891014396205
510,1194.959,0.40961917639217765
511,1197.480,0.3772756407114725
512,1200.000,0.3412887867798638
513,1202.519,0.2619914213411013
514,1205.038,0.2749805928114868
515,1207.555,0.3001123778113122
516,1210.071,0.2649334317178781
517,1212.587,0.29330255126998445
518,1215.101,0.29698046712511184
519,1217.615,0.37473040336195074
520,1220.127,0.37274078780460174
521,1222.639,0.3646792718705058
522,1225.150,0.365117480947447
523,1227.660,0.2898638188240234
524,1230.168,0.2967775357434895
525,1232.676,0.2543092612359286
526,1235.183,0.1916022436383868
527,1237.689,0.2045863360939235
528,1240.194,0.1548311240664444
529,1242.698,0.2503870033186517
530,1245.201,0.3111325272772668
531,1247.704,0.32937711992462976
532,1250.205,0.3350735643233282
533,1252.705,0.3533174359345757
534,1255.205,0.3472749130744218
535,1257.703,0.33920820012983777
536,1260.201,0.29228347545415073
537,1262.697,0.23928689331594147
538,1265.193,0.21300460800171697
539,1267.688,0.3016758941522239
540,1270.182,0.3304412803030195
541,1272.674,0.266514617912907
542,1275.166,0.26654085566571056
543,1277.657,0.3305199964934084
544,1280.147,0.26497327311869295
545,1282.636,0.2674271317484651
546,1285.125,0.26826159946545697
547,1287.612,0.22416657798001702
548,1290.098,0.19828576937177075
549,1292.583,0.1800952268208231
550,1295.068,0.1327611289095326
551,1297.551,0.12873682570076836
552,1300.034,0.19028452185719
553,1302.516,0.1935454261316652
554,1304.996,0.22554451149019325
555,1307.476,0.29680573088545514
556,1309.955,0.33082806741162635
557,1312.433,0.30130164958954236
558,1314.910,0.313465979013541
559,1317.386,0.30134398865938433
560,1319.861,0.2871978832909786
561,1322.335,0.3370047362701188
562,1324.808,0.27185740342485715
563,1327.281,0.19820968831158078
564,1329.752,0.24761096720426956
565,1332.223,0.26624966866960664
566,1334.692,0.206768021638424
567,1337.161,0.23754922687170557
568,1339.628,0.2889733117243428
569,1342.095,0.28089635371541916
570,1344.561,0.2647238034341017
571,1347.026,0.2481462428915663
572,1349.490,0.21942542362433343
573,1351.953,0.18908529877186314
574,1354.415,0.2093408535591659
575,1356.876,0.2579298897008704
576,1359.337,0.23892256000439321
577,1361.796,0.3061304424495213
578,1364.255,0.3462186958827563
579,1366.712,0.3474490718903207
580,1369.169,0.36770329796144097
581,1371.625,0.3410043072625593
582,1374.079,0.38837752636338047
583,1376.533,0.35601138396608567
584,1378.986,0.3098829536154351
585,1381.438,0.2694210691621216
586,1383.889,0.23462573397819347
587,1386.339,0.24516414700891084
588,1388.789,0.2391069144697396
589,1391.237,0.2532878642009295
590,1393.685,0.3022786224508569
591,1396.131,0.3018875938493388
592,1398.577,0.33630638054716433
593,1401.021,0.3541295386188356
594,1403.465,0.3290471968479013
595,1405.908,0.3189410827788123
596,1408.350,0.3606450242676185
597,1410.791,0.33434790340314036
598,1413.231,0.2914551709055494
599,1415.670,0.27932460447829477
600,1418.109,0.29795620752303087
601,1420.546,0.26315838468217456
602,1422.983,0.2736943609784378
603,1425.418,0.26763474264832354
604,1427.853,0.2963849804110169
605,1430.287,0.32715892622532605
606,1432.719,0.29802718632427055
607,1435.151,0.26687148825032714
608,1437.582,0.27700193668178585
609,1440.012,0.29927528928550234
610,1442.442,0.3628347951744345
611,1444.870,0.32155946181087963
612,1447.297,0.34383249009585515
613,1449.724,0.3559862344941942
614,1452.149,0.37259232124348934
615,1454.574,0.3462929794130927
616,1456.998,0.27708821237011894
617,1459.421,0.27143182383130154
618,1461.843,0.25282279712790906
619,1464.264,0.2686189099145182
620,1466.684,0.343915738245287
621,1469.103,0.32085403778805255
622,1471.521,0.3823886322587755
623,1473.939,0.4046607306580661
624,1476.355,0.43138520489493526
625,1478.771,0.37837045952580417
626,1481.186,0.3443797194805503
627,1483.600,0.26748359089600615
628,1486.013,0.23592134884200586
629,1488.425,0.20638289531910892
630,1490.836,0.19465415837173414
631,1493.246,0.18252061269066366
632,1495.655,0.16998226153553983
633,1498.064,0.2043968824589258
634,1500.471,0.23435903138257372
635,1502.878,0.28496428424492987
636,1505.284,0.3193788198102163
637,1507.688,0.3230310184273631
638,1510.092,0.3141354118746224
639,1512.495,0.33600210462647245
640,1514.898,0.3692022693785754
641,1517.299,0.32671093942676627
642,1519.699,0.2821957668407944
643,1522.099,0.2870622020834379
644,1524.497,0.24659469968175646
645,1526.895,0.24903253453085436
646,1529.292,0.2101841109772939
647,1531.687,0.20655045214012754
648,1534.082,0.1616305410721915
649,1536.477,0.2478552513747262
650,1538.870,0.28631743873596016
651,1541.262,0.26163594872756013
652,1543.654,0.24343076026931013
653,1546.044,0.23939245510192808
654,1548.434,0.21268721176104075
655,1550.822,0.19610118466391144
656,1553.210,0.22242052821211333
657,1555.597,0.24023979803202772
658,1557.983,0.2746545697601773
659,1560.369,0.3256648463094653
660,1562.753,0.34591285627390594
661,1565.136,0.33539860253245596
662,1567.519,0.3046460377915737
663,1569.901,0.2864413163350165
664,1572.281,0.23706957240216975
665,1574.661,0.28038960312913863
666,1577.040,0.28485203824375604
667,1579.418,0.27676675512855653
668,1581.795,0.3221108267162108
669,1584.172,0.333049751263737
670,1586.547,0.280845053060614
671,1588.922,0.2063782322734008
672,1591.296,0.13595916618623347
673,1593.668,0.08820715332990163
674,1596.040,0.005240472187973594
675,1598.411,0.06353766892284331
676,1600.781,0.0
677,1603.151,0.02672553409075001
678,1605.519,0.052641630850922244
679,1607.887,0.12510606710473404
680,1610.253,0.15871294468741953
681,1612.619,0.18220074449841298
682,1614.984,0.20973632455187688
683,1617.348,0.27005816570076335
684,1619.711,0.3145941941444999
685,1622.073,0.357916035127973
686,1624.435,0.2761648966811979
687,1626.795,0.2522956015187294
688,1629.155,0.1875449303283261
689,1631.513,0.15558053430835392
690,1633.871,0.14587846587258588
691,1636.228,0.0888187513569922
692,1638.584,0.09085519332283785
693,1640.940,0.10827292536444053
694,1643.294,0.23578749824023282
695,1645.647,0.2892297917919475
696,1648.000,0.33700548211187326
697,1650.352,0.40785304969568215
698,1652.703,0.45036704926944504
699,1655.053,0.44228528125563416
700,1657.402,0.4204415721006372
701,1659.750,0.2937632808765997
702,1662.097,0.27030080260311995
703,1664.444,0.2039331432595952
704,1666.789,0.20920945110824019
705,1669.134,0.15174698381951846
706,1671.478,0.22138160771727902
707,1673.821,0.26430174992893274
708,1676.163,0.2845550852249129
709,1678.505,0.2821416153275914
710,1680.845,0.25301366891099564
711,1683.185,0.25505297178202196
712,1685.523,0.31052172716394677
713,1687.861,0.27329894072968713
714,1690.198,0.23810016264750528
715,1692.534,0.2482354957338364
716,1694.869,0.325967143082527
717,1697.204,0.3397457330980959
718,1699.537,0.3438100856443983
719,1701.870,0.3235885792580598
720,1704.201,0.3450582854854551
721,1706.532,0.2738364614838862
722,1708.862,0.24552015462806667
723,1711.191,0.20101334012724692
724,1713.520,0.1771498436649106
725,1715.847,0.18566791818211945
726,1718.174,0.19378141339433183
727,1720.499,0.23063357614531776
728,1722.824,0.2197233874918979
729,1725.148,0.24119477422275198
730,1727.471,0.3160956370376448
731,1729.794,0.3262339248051972
732,1732.115,0.3452772873752816
733,1734.436,0.32303458023168324
734,1736.755,0.2886490499587649
735,1739.074,0.2566923202405197
736,1741.392,0.18749719629104106
737,1743.709,0.16525527761411504
738,1746.025,0.1308705388631189
739,1748.341,0.18715387534289138
740,1750.655,0.2329134622482426
741,1752.969,0.22888687189830698
742,1755.282,0.15281190324455932
743,1757.594,0.14676187969915844
744,1759.905,0.1301881086836539
745,1762.215,0.1358767420621073
746,1764.525,0.12294628274293504
747,1766.833,0.2083744812664656
748,1769.141,0.27882649344846566
749,1771.448,0.35939789225314833
750,1773.754,0.3869449788257703
751,1776.059,0.38251565302804735
752,1778.363,0.34975282070439356
753,1780.667,0.35827645783739687
754,1782.969,0.3093233428476055
755,1785.271,0.3162283202166166
756,1787.572,0.26970421843200004
757,1789.872,0.2871335549039769
758,1792.171,0.25558625231535875
759,1794.469,0.19084823525310576
760,1796.767,0.16658715240581853
761,1799.063,0.1605408019071943
762,1801.359,0.16501860470721313
763,1803.654,0.16949661059759083
764,1805.948,0.1780224921857552
765,1808.241,0.18007229917021833
766,1810.534,0.16107440818519195
767,1812.825,0.2303159901460346
768,1815.116,0.22993779678068932
769,1817.406,0.19960702301198754
770,1819.695,0.14013320274880056
771,1821.983,0.2198995327665211
772,1824.270,0.2628322360221321
773,1826.557,0.22157353737277566
774,1828.843,0.22767280898961775
775,1831.127,0.19289077815647235
776,1833.411,0.18684741978080258
777,1835.694,0.21723331155567902
778,1837.977,0.27635787365809766
779,1840.258,0.27233892745510657
780,1842.539,0.20517647175476375
781,1844.818,0.25499195458233653
782,1847.097,0.24287822727966132
783,1849.375,0.17571633262939135
784,1851.652,0.17453169244903552
785,1853.929,0.15918037954534336
786,1856.204,0.057209045405150455
787,1858.479,0.07383471044699837
788,1860.753,0.11029415143915873
789,1863.026,0.12975354226055097
790,1865.298,0.19697564946970378
791,1867.569,0.2131972496732878
792,1869.840,0.22294274423489294
793,1872.110,0.22216445825614903
794,1874.378,0.2833157368100806
795,1876.646,0.27079953182674554
796,1878.914,0.1951397911040711
797,1881.180,0.1810048414711358
798,1883.445,0.19925143504461337
799,1885.710,0.2713322366006215
800,1887.974,0.2774361225558416
801,1890.237,0.20299146771897217
802,1892.499,0.2005955424546743
803,1894.760,0.28077229416386473
804,1897.021,0.30144839743852747
805,1899.280,0.2666715227359504
806,1901.539,0.2237994417397859
807,1903.797,0.20561830321280342
808,1906.054,0.2635335517382194
809,1908.311,0.2554718616144678
810,1910.566,0.15917102839160763
811,1912.821,0.13896657365599238
812,1915.075,0.20254907316549411
813,1917.328,0.2697745981428082
814,1919.580,0.2779042137241866
815,1921.831,0.22693791675257532
816,1924.082,0.2087578815016747
817,1926.331,0.2379357275537695
818,1928.580,0.21975590296301248
819,1930.828,0.18336165004988803
820,1933.075,0.11418134248595095
821,1935.322,0.10409715423425751
822,1937.567,0.15310908170285192
823,1939.812,0.19159714533946798
824,1942.056,0.23413296428750058
825,1944.299,0.20704888585002187
826,1946.541,0.22732265637939472
827,1948.783,0.26581102624012976
828,1951.023,0.2779895882664182
829,1953.263,0.26385833841744377
830,1955.502,0.20884564972495542
831,1957.740,0.18257149391436883
832,1959.977,0.2218696912053812
833,1962.214,0.20976248709531478
834,1964.449,0.21222694739569062
835,1966.684,0.19647691622995667
836,1968.918,0.15198843924957284
837,1971.152,0.15242916079795746
838,1973.384,0.1504413019346152
839,1975.615,0.15290590208264218
840,1977.846,0.12703680502777637
841,1980.076,0.07000063481515759
842,1982.305,0.10282280974970463
843,1984.533,0.08990627877245519
844,1986.761,0.12596658543785602
845,1988.988,0.17012222715227454
846,1991.213,0.21063494697660062
847,1993.438,0.2329331167895295
848,1995.663,0.25927893285652226
849,1997.886,0.28967238977737986
850,2000.108,0.23587421030445704
851,2002.330,0.18855226448219614
852,2004.551,0.21327884957643395
853,2006.771,0.196719115417862
854,2008.991,0.23763627787001548
855,2011.209,0.2886725568006009
856,2013.427,0.3316134177289975
857,2015.644,0.2676956330579582
858,2017.860,0.2612547212395428
859,2020.075,0.28598080153887173
860,2022.289,0.2576822690002961
861,2024.503,0.25002676626760095
862,2026.716,0.23791871428880407
863,2028.928,0.25050135236867777
864,2031.139,0.2549885225728142
865,2033.349,0.22628464562438594
866,2035.559,0.21174748918017736
867,2037.767,0.1996387947690281
868,2039.975,0.22679238005092897
869,2042.182,0.2575887156003649
870,2044.389,0.2515510642944386
871,2046.594,0.22325104196818152
872,2048.799,0.19495084311220828
873,2051.003,0.18891266213962155
874,2053.206,0.153731044471413
875,2055.408,0.1764309526411235
876,2057.609,0.18051135920622027
877,2059.810,0.25421152844840444
878,2062.010,0.2291482552755253
879,2064.209,0.280585773682428
880,2066.407,0.2624030800132166
881,2068.605,0.19686236805063312
882,2070.801,0.17867917850647397
883,2072.997,0.15644805608872883
884,2075.192,0.1815744400633967
885,2077.386,0.1961765981492571
886,2079.580,0.16746837069094558
887,2081.772,0.1942129710128702
888,2083.964,0.17764716911487852
889,2086.155,0.2165341781575204
890,2088.345,0.17527694351905954
891,2090.535,0.14859100517777815
892,2092.723,0.1915247074597875
893,2094.911,0.20531481995172968
894,2097.098,0.25189073094236747
895,2099.284,0.27215640542031233
896,2101.470,0.26611183434224983
897,2103.654,0.2560192101755012
898,2105.838,0.2418785237077669
899,2108.021,0.23826138850399908
900,2110.203,0.19781002087971483
901,2112.385,0.1427866129619834
902,2114.565,0.1573827539563302
903,2116.745,0.18655008118813374
904,2118.924,0.17240686078433948
905,2121.102,0.17404910898436465
906,2123.280,0.17973856413848674
907,2125.456,0.21457078896694148
908,2127.632,0.20204475336900438
909,2129.807,0.22635204594179867
910,2131.981,0.21382500752086533
911,2134.155,0.2118214020697773
912,2136.327,0.22803179789423883
913,2138.499,0.24788456161606018
914,2140.670,0.20823598356061898
915,2142.840,0.2511593759394001
916,2145.010,0.30015370794154783
917,2147.179,0.29328957152833013
918,2149.346,0.3175919256062155
919,2151.513,0.33622693466259485
920,2153.680,0.3240990148440377
921,2155.845,0.2812081549129989
922,2158.010,0.2549121178425207
923,2160.174,0.23063926934965567
924,2162.337,0.25979504524091457
925,2164.499,0.2768071310313788
926,2166.661,0.23836541373850262
927,2168.822,0.21044695175313072
928,2170.982,0.2193616078036808
929,2173.141,0.17039382130873212
930,2175.299,0.1254729773614583
931,2177.457,0.11738521523665257
932,2179.614,0.13155889981272867
933,2181.770,0.15342239587349277
934,2183.925,0.24490508813426196
935,2186.079,0.28498154083457483
936,2188.233,0.2841756911797827
937,2190.386,0.3226314521765323
938,2192.538,0.31210953921701085
939,2194.689,0.2853960908134601
940,2196.840,0.30442049110586517
941,2198.990,0.30361042409332134
942,2201.139,0.24370344829000812
943,2203.287,0.15505709800969258
944,2205.434,0.07167181318394372
945,2207.581,0.04090535460329636
946,2209.727,0.051019456907833986
947,2211.872,0.13115735211347096
948,2214.016,0.12467408064455165
949,2216.159,0.15259505181097252
950,2218.302,0.2622780259088681
951,2220.444,0.28129211829688017
952,2222.585,0.32175785734770745
953,2224.725,0.22945888679738263
954,2226.865,0.19099291833547694
955,2229.004,0.21405051618735643
956,2231.142,0.24074994159745486
957,2233.279,0.26744827414017946
958,2235.415,0.17312007578737948
959,2237.551,0.17350630344574916
960,2239.686,0.17753429921062347
961,2241.820,0.1997756708254984
962,2243.954,0.2548020259310015
963,2246.086,0.22158792598606364
964,2248.218,0.2608259743481658
965,2250.349,0.24865736115698747
966,2252.479,0.2219158952338179
967,2254.609,0.2279593351405548
968,2256.737,0.17854839325597485
969,2258.865,0.20523242669174926
970,2260.992,0.20924819777174242
971,2263.119,0.25657276051727246
972,2265.244,0.2524905500583233
973,2267.369,0.24840699734232138
974,2269.493,0.27346533161542125
975,2271.616,0.19611616323158781
976,2273.739,0.16652814443991754
977,2275.861,0.11224791143251814
978,2277.982,0.04501369905328535
979,2280.102,0.09273195763404926
980,2282.221,0.07649552268958286
981,2284.340,0.08454364876619377
982,2286.458,0.0800424940679812
983,2288.575,0.11034981544940779
984,2290.691,0.14632234962939886
985,2292.807,0.16165020432954688
986,2294.921,0.24335833164529677
987,2297.035,0.17934864758585395
988,2299.149,0.18536210597558084
989,2301.261,0.2468270658456189
990,2303.373,0.19536031146000687
991,2305.484,0.17708282041352752
992,2307.594,0.16285132854175888
993,2309.703,0.15266581729292297
994,2311.812,0.1756695137276
995,2313.920,0.15940905206062486
996,2316.027,0.1921236851798935
997,2318.133,0.1450973921347934
998,2320.239,0.13935557702714269
999,2322.344,0.14980264792190495
1000,2324.448,0.0776753638560365
1001,2326.551,0.07273760701288809
1002,2328.654,0.14146563465019096
1003,2330.755,0.23933502389352498
1004,2332.856,0.286201829201661
1005,2334.957,0.2201366334959655
1006,2337.056,0.21316551998060346
1007,2339.155,0.27176474533771067
1008,2341.253,0.26317061433936284
1009,2343.350,0.25700308250487464
1010,2345.446,0.2164283048828174
1011,2347.542,0.2442571555007471
1012,2349.637,0.26155998979368605
1013,2351.731,0.22907435864850417
1014,2353.825,0.15368128523126517
1015,2355.917,0.060476321167779755
1016,2358.009,0.008555471310673359
1017,2360.100,0.06511008642857337
1018,2362.190,0.007922896436484177
1019,2364.280,0.00982951749598042
1020,2366.369,0.020031631505347983
1021,2368.457,0.036302996689028005
1022,2370.544,0.05641737127146215
1023,2372.631,0.07814851347709227
