pixel_index,raman_shift_cm-1,intensity
0,200.000,0.002167931900050237
1,201.000,0.0003937448396313518
2,202.000,-0.0004951915967502029
3,203.000,0.000514345287162717
4,204.000,-0.00048568954481391797
5,205.000,0.0020234791701569535
6,206.000,-0.0004892588371165016
7,207.000,-0.0012291966873856275
8,208.000,0.003171592709755119
9,209.000,-0.0030271550959753454
10,210.000,0.000943094006979067
11,211.000,0.002357554726302156
12,212.000,-0.0007385314218746193
13,213.000,0.0007586160129441332
14,214.000,0.003635887285409612
15,215.000,0.002249904694101578
16,216.000,0.00022164914699444914
17,217.000,-0.0006149468016011258
18,218.000,0.0003622784449267597
19,219.000,-0.0020453994242608563
20,220.000,-0.004232641844401275
21,221.000,-0.0022715440404294167
22,222.000,-0.000819643542212976
23,223.000,0.0020227214749672577
24,224.000,0.0011216849046398612
25,225.000,-0.0010412545840046185
26,226.000,-0.002545287408527243
27,227.000,-0.0007455745860132536
28,228.000,-0.000838627176348501
29,229.000,0.003249721602108442
30,230.000,-0.00031945355059541765
31,231.000,-8.921656161301602e-06
32,232.000,-0.001590006349949651
33,233.000,0.004041878696336434
34,234.000,-0.0008960630540635263
35,235.000,-0.00011120326363255692
36,236.000,-0.0003752442912900886
37,237.000,-0.0012847587968634574
38,238.000,-0.0011884093191878407
39,239.000,0.0012427602500706702
40,240.000,-0.0035853758473583597
41,241.000,-0.0004625127637744844
42,242.000,-0.0020635343516065925
43,243.000,-0.0015534999910655507
44,244.000,0.00168388245355217
45,245.000,0.0005622769085082373
46,246.000,0.0002042558539678043
47,247.000,0.0005359014948662502
48,248.000,-0.00029540412891980455
49,249.000,-0.00011416665171860873
50,250.000,0.0008599456201832807
51,251.000,-0.0020309266903319845
52,252.000,0.004053124769868953
53,253.000,0.0011488932791200637
54,254.000,0.003268738932580333
55,255.000,-0.001227739871946087
56,256.000,-5.532655004229692e-05
57,257.000,-0.000720460108173238
58,258.000,-0.001325930366279627
59,259.000,-0.00025009578310635785
60,260.000,-0.0009987458683808636
61,261.000,-0.0005457408250852304
62,262.000,-0.0019472092448463475
63,263.000,0.0004483366835732493
64,264.000,-0.0010671809231077413
65,265.000,-0.0005992430491782714
66,266.000,-0.0033183380501974414
67,267.000,0.00016164038079238404
68,268.000,-0.0003514420810541728
69,269.000,0.0028241271113112094
70,270.000,0.0027696640692531794
71,271.000,-0.0013542585928357064
72,272.000,-0.00022428187009746646
73,273.000,0.0014007519789645422
74,274.000,-0.0002594627347781459
75,275.000,-0.0026616229076155268
76,276.000,-0.0007254707848828204
77,277.000,0.0010841201028910189
78,278.000,-0.0015405020229610129
79,279.000,-0.003605854402136232
80,280.000,-0.0016019153280433956
81,281.000,-0.0016474006583525238
82,282.000,-0.0031530594098345835
83,283.000,0.0002890619745452033
84,284.000,-0.002565670857757614
85,285.000,-0.00014322517550864695
86,286.000,-0.0015186551449914406
87,287.000,0.0014505589431424153
88,288.000,0.0013263762916281767
89,289.000,-0.0006345511411476611
90,290.000,0.0029648600176048704
91,291.000,0.0035025112026099204
92,292.000,-0.0004535293834830164
93,293.000,-0.000514676267064783
94,294.000,-0.0012432279048323904
95,295.000,-0.002509018813511896
96,296.000,-0.0009613952115734151
97,297.000,-0.00014091681900803483
98,298.000,0.000869499003921694
99,299.000,-0.0012596030646303204
100,300.000,0.002326493947310086
101,301.000,-0.0005221168590211216
102,302.000,-0.0001512423842115914
103,303.000,0.001569627624504752
104,304.000,0.0030624537403737915
105,305.000,0.0012590425087543192
106,306.000,-0.00015799298856999805
107,307.000,-4.578922717448827e-06
108,308.000,-0.0010712704616502992
109,309.000,-0.0007577732896159427
110,310.000,0.0004996678558633953
111,311.000,-0.0010897980930282681
112,312.000,-0.0003656263491502259
113,313.000,-0.000883170583834528
114,314.000,-0.0014609125361397719
115,315.000,-0.00044564412585425424
116,316.000,-4.5745453429115134e-05
117,317.000,-0.000735274214332214
118,318.000,-0.0037217641306939793
119,319.000,-0.0007259809537137879
120,320.000,0.0024791002458469367
121,321.000,0.0003027962233452981
122,322.000,0.0008386822871790068
123,323.000,0.0007781139098580347
124,324.000,-0.0021033583824871392
125,325.000,-0.0009397946002864459
126,326.000,-0.00039355021966990867
127,327.000,-0.0009919026778272071
128,328.000,-4.0331050521199194e-05
129,329.000,-0.0008027541196366694
130,330.000,0.0003274676101080475
131,331.000,0.0010789932210588272
132,332.000,0.0006681019849214963
133,333.000,0.0016125353425413685
134,334.000,0.002063638904725038
135,335.000,0.0003831012062060193
136,336.000,0.0012489625803953025
137,337.000,0.0020346543869073927
138,338.000,-0.0013808859417028625
139,339.000,-0.002051711346408437
140,340.000,0.002641618935818067
141,341.000,-0.000915249181136281
142,342.000,0.0016881089818734135
143,343.000,0.0013505649075156957
144,344.000,-0.0019275614464734703
145,345.000,0.0033581775121105293
146,346.000,0.0011567174424567221
147,347.000,0.004846980537352649
148,348.000,0.003125427784176097
149,349.000,0.0020599981258023125
150,350.000,-0.002152100920338672
151,351.000,-0.00442146666582747
152,352.000,0.0005062017959281566
153,353.000,-0.00017817174042991904
154,354.000,-0.0005840072664361686
155,355.000,-0.0021256155999547052
156,356.000,0.0021061932836083544
157,357.000,-0.006748780032457419
158,358.000,5.52197924906315e-05
159,359.000,-0.000769564802910952
160,360.000,0.0014906021576688586
161,361.000,0.003914333969242315
162,362.000,0.0014570267502105696
163,363.000,-0.0003029939924970559
164,364.000,-0.002090930417829546
165,365.000,0.0015929606053837907
166,366.000,-0.0009929878888096232
167,367.000,-0.00061313759176538
168,368.000,0.0017950690264760597
169,369.000,0.0006737047094102262
170,370.000,0.0010251206521847875
171,371.000,-0.002113865655971849
172,372.000,0.0025058003410103604
173,373.000,-0.0012098742003722501
174,374.000,0.0025942573179194915
175,375.000,-0.001048196974053185
176,376.000,0.0029356459238132904
177,377.000,0.0016387536115866565
178,378.000,-0.0005792132540202317
179,379.000,0.0044607698206299805
180,380.000,-0.002262216768555593
181,381.000,0.0016148090579485202
182,382.000,-0.0011727909098225122
183,383.000,-0.0003910056738957005
184,384.000,0.00027518632709998237
185,385.000,0.00016073467365790105
186,386.000,0.0009278714508362857
187,387.000,-0.0025098974376096734
188,388.000,0.0025737126301450127
189,389.000,0.002041781004589365
190,390.000,0.000535111677935345
191,391.000,0.00032899874643901286
192,392.000,0.0009019441669760681
193,393.000,0.0034575174609089037
194,394.000,0.0009806698308940103
195,395.000,-0.0005895057527254847
196,396.000,-0.0014253134589853117
197,397.000,-0.0016570315121726764
198,398.000,-7.78788466423425e-05
199,399.000,0.0007512988692481276
200,400.000,0.001017357898059264
201,401.000,-0.0010397165194549608
202,402.000,-0.0017646894173490408
203,403.000,-0.0007927544956306754
204,404.000,-0.0024469552006295453
205,405.000,-0.0008935953485329948
206,406.000,0.0019345627263809204
207,407.000,-0.0014808897398195576
208,408.000,0.004380429251918704
209,409.000,-2.6501066335540145e-05
210,410.000,-0.0029938533531553963
211,411.000,0.0030137729266524246
212,412.000,0.0013473886341643759
213,413.000,-0.0004589437863909323
214,414.000,-0.0032418738198444234
215,415.000,0.0011855907938562611
216,416.000,0.0027291503656937327
217,417.000,-0.0025966960508991286
218,418.000,-0.0012042840726447788
219,419.000,0.0008587482980256645
220,420.000,-0.0006334101894966765
221,421.000,-0.001424861235256133
222,422.000,-0.0005694624160490922
223,423.000,0.0006537602573097124
224,424.000,0.0008544178464240387
225,425.000,-0.002875373885300924
226,426.000,-0.001169561100235844
227,427.000,0.0008287758792063254
228,428.000,-0.003794704102165913
229,429.000,-0.0007365593988996079
230,430.000,0.0006666017106556142
231,431.000,-0.00021994291568199124
232,432.000,0.0061952370883677325
233,433.000,0.0006180241903765666
234,434.000,-0.0017157828066821162
235,435.000,0.0023597260930240823
236,436.000,-0.002724126462384829
237,437.000,0.0023948184654569208
238,438.000,-0.0002502192313666907
239,439.000,-0.001225720926035388
240,440.000,0.00016427467849055872
241,441.000,-0.003434004661262901
242,442.000,0.000777531939487894
243,443.000,-0.0013806853382798215
244,444.000,0.0018528714699437062
245,445.000,-0.0027580851263044066
246,446.000,-0.00017142271066666968
247,447.000,-0.004512990639184005
248,448.000,0.0011453784678099228
249,449.000,0.0021804061578054547
250,450.000,-0.0015523703764996986
251,451.000,-0.001955829208575509
252,452.000,0.0023991023090418903
253,453.000,0.0016791851212788918
254,454.000,-0.0009330524987418886
255,455.000,-0.0012694921520562715
256,456.000,-0.0008871861164046923
257,457.000,-0.0038510239068334394
258,458.000,0.003247917745896231
259,459.000,-0.003967695424528292
260,460.000,0.001951966096816572
261,461.000,0.0006341581221963973
262,462.000,-0.0006014399243417461
263,463.000,0.0020958179611978273
264,464.000,0.001749274130759005
265,465.000,0.0008443486253120918
266,466.000,0.002111988738544339
267,467.000,0.003160838224830712
268,468.000,-0.0018288387389767606
269,469.000,-0.0016541125276700605
270,470.000,0.0006033694332475101
271,471.000,0.0019230297616107408
272,472.000,0.0016872961758532116
273,473.000,0.0023679924026809127
274,474.000,0.0004605769564880912
275,475.000,-0.001327852946966699
276,476.000,0.0006905043800625663
277,477.000,0.0020761745716913905
278,478.000,-0.00046525696821463915
279,479.000,-0.0016357077147143618
280,480.000,-0.0039238051591135165
281,481.000,-0.0022266488683852477
282,482.000,0.002061210564073439
283,483.000,-0.0002984881309949061
284,484.000,-0.0007470594292465941
285,485.000,-0.0014350860263696221
286,486.000,-0.0008374049755873992
287,487.000,0.002071047060021136
288,488.000,-0.0004156654086542858
289,489.000,-0.003764548085551232
290,490.000,-0.0002382727779082023
291,491.000,0.0012402311353290037
292,492.000,-0.0019196544594315375
293,493.000,-0.001536849906953155
294,494.000,0.004038514101404301
295,495.000,-0.0008782657199195165
296,496.000,-0.0007971866660794633
297,497.000,-0.0008120933584336888
298,498.000,-0.0005733145056419281
299,499.000,-0.0029837126454233076
300,500.000,-0.0015616913499928932
301,501.000,-1.5919157040374016e-05
302,502.000,0.00014340404951851702
303,503.000,0.0009255911221294735
304,504.000,3.4569606840612795e-05
305,505.000,-0.0009490034626044402
306,506.000,0.0006987045567227898
307,507.000,-0.0020065758911432625
308,508.000,0.0038607174295408526
309,509.000,-0.00041687721708734936
310,510.000,-0.0010409324218354334
311,511.000,-0.003320518864490312
312,512.000,0.003078292907980174
313,513.000,-0.0002769451498906943
314,514.000,-0.00014613691687353909
315,515.000,0.0001102837000606896
316,516.000,0.00046998421779590626
317,517.000,0.0012816892810638032
318,518.000,0.0016553876348284478
319,519.000,-0.0004107457435447958
320,520.000,-0.0018370445841795504
321,521.000,0.0021773961617027465
322,522.000,-0.0023419907979292704
323,523.000,-0.0026611914685424247
324,524.000,-0.0005590115130710139
325,525.000,-0.0009419873815025116
326,526.000,0.00019184867396628783
327,527.000,0.0013005573399147818
328,528.000,-0.001997986789479184
329,529.000,0.00041936570727395733
330,530.000,-0.0008316306202265229
331,531.000,0.00214369195236059
332,532.000,0.0006491114225672792
333,533.000,-0.0009276976155309189
334,534.000,-0.0008069567141115218
335,535.000,-0.0010103159935967556
336,536.000,-0.0011331829133975485
337,537.000,-0.00011815132222368988
338,538.000,0.0005979367650357695
339,539.000,-0.003914420886894998
340,540.000,-0.0013555998329907006
341,541.000,0.0013464993028195287
342,542.000,0.0014070654757072805
343,543.000,-0.0014013342642537144
344,544.000,0.0021518445762470626
345,545.000,0.000940127784621732
346,546.000,-0.00038447677253544265
347,547.000,0.0017443494269450115
348,548.000,0.0011378818202659841
349,549.000,-0.00509951410868155
350,550.000,0.0018712366031014408
351,551.000,0.0008945473487651026
352,552.000,-0.0014706526668638417
353,553.000,0.0015786494249180585
354,554.000,0.001149953611498994
355,555.000,0.000981866838132595
356,556.000,-0.0016065937651747863
357,557.000,0.0025705684785349014
358,558.000,-6.953916085118159e-05
359,559.000,-0.0032552352045112677
360,560.000,0.002910642297472349
361,561.000,0.0015382333462583646
362,562.000,0.0008639910700614339
363,563.000,-0.0009174007079592254
364,564.000,0.0006162729256426097
365,565.000,1.1236311042542927e-06
366,566.000,0.003676053003439294
367,567.000,-0.0013819714676043102
368,568.000,0.00280847626528564
369,569.000,-0.00018985933044454614
370,570.000,0.0020520665750759256
371,571.000,-0.0021856816814204965
372,572.000,0.002037572111733883
373,573.000,0.0013609144065656433
374,574.000,0.0018527952595380926
375,575.000,0.0004161094444886465
376,576.000,0.0006779010055044494
377,577.000,0.001181780273575578
378,578.000,0.0017600509749346456
379,579.000,0.00044232928812909154
380,580.000,0.0001800007901646469
381,581.000,0.0027057909316160517
382,582.000,0.0015804170654416514
383,583.000,-0.0023802846372359457
384,584.000,0.005614304691354753
385,585.000,0.003880690224354198
386,586.000,0.0020936396662572083
387,587.000,-8.472014768181006e-05
388,588.000,-0.0015854819082246454
389,589.000,0.001603654625854157
390,590.000,0.006162599824704167
391,591.000,-0.002399488399774462
392,592.000,-0.0011000600445874693
393,593.000,0.0008633439114517808
394,594.000,-0.0013792105724554878
395,595.000,0.005078442561367435
396,596.000,0.0011351539916154654
397,597.000,0.001530063716744193
398,598.000,0.004331241103637653
399,599.000,-0.0006864242890909524
400,600.000,0.002115319007302043
401,601.000,0.0038957688624996012
402,602.000,0.00216409902051832
403,603.000,0.005196017896682582
404,604.000,0.004880733559144683
405,605.000,0.004904920915356076
406,606.000,0.006910861299893849
407,607.000,0.008175481654533412
408,608.000,0.007190769522951564
409,609.000,0.00645290100563817
410,610.000,0.008946227403812346
411,611.000,0.015532056047549406
412,612.000,0.013560268631973621
413,613.000,0.017946251481012147
414,614.000,0.021634154257767272
415,615.000,0.028481466471707368
416,616.000,0.02949825058729131
417,617.000,0.03786102088821545
418,618.000,0.04621293341077286
419,619.000,0.05180668239218703
420,620.000,0.055508587413838024
421,621.000,0.05459332658069758
422,622.000,0.04664142169255019
423,623.000,0.03853140257200569
424,624.000,0.030383944302405902
425,625.000,0.02411675262421568
426,626.000,0.022169811060546076
427,627.000,0.016844515437339242
428,628.000,0.013032760988971943
429,629.000,0.009874909141316581
430,630.000,0.009455660583922327
431,631.000,0.008674004779717446
432,632.000,0.007166288662202849
433,633.000,0.003341359891073396
434,634.000,0.003185397500418261
435,635.000,0.0039127159152586655
436,636.000,0.004793164338985241
437,637.000,-0.0005706301358177511
438,638.000,0.005617300516101046
439,639.000,0.0005816349813721699
440,640.000,-0.00016078380102680905
441,641.000,0.002234784486644021
442,642.000,0.004341571707545712
443,643.000,-0.0009059045887157268
444,644.000,0.0016003939542024055
445,645.000,0.0003438465489343552
446,646.000,0.002580828855498946
447,647.000,0.0012180570564857432
448,648.000,0.003907350639719658
449,649.000,0.0057844034824131585
450,650.000,-0.0005615519648978131
451,651.000,-0.0006563403889344758
452,652.000,0.0007501947631238238
453,653.000,0.00013584599276344328
454,654.000,0.0015541975367202377
455,655.000,0.003714064045455717
456,656.000,-0.00034541547554909583
457,657.000,0.002455187813950009
458,658.000,0.0020141153676754803
459,659.000,-0.0010598212653424885
460,660.000,0.003959149151852492
461,661.000,0.0035832252652925095
462,662.000,0.001237714932267627
463,663.000,4.8283700822694065e-05
464,664.000,0.00346394684785522
465,665.000,0.003553506356293497
466,666.000,0.0030064349983003422
467,667.000,0.00023377006559636716
468,668.000,0.0005075953126423734
469,669.000,-0.0006920802348959991
470,670.000,-0.0009259428866876159
471,671.000,-0.0008218892298263274
472,672.000,0.004887937017070331
473,673.000,0.006141646057107819
474,674.000,0.0017197400792314601
475,675.000,0.0012510574217925838
476,676.000,-0.0015808743278753333
477,677.000,0.0017877285787717258
478,678.000,-0.0015840232032709159
479,679.000,0.0017207179028241476
480,680.000,0.003764004535302929
481,681.000,-0.0022762873508812885
482,682.000,-0.002044277367751759
483,683.000,-0.0005020958815959628
484,684.000,0.00019854227798
485,685.000,-0.0037058585151719583
486,686.000,0.002334568156357725
487,687.000,-0.0013055888012804408
488,688.000,0.0009831356469103532
489,689.000,-0.0011005475392481716
490,690.000,-0.00033158990022987727
491,691.000,-0.0013304601616281682
492,692.000,-0.004717370256331173
493,693.000,-0.0011682123020240948
494,694.000,0.0021500643389622113
495,695.000,-0.0019487265247399286
496,696.000,4.4269742847686994e-05
497,697.000,0.0006170366042939036
498,698.000,-0.0009124334900759845
499,699.000,-0.0012043250121188686
500,700.000,0.0005991721923961925
501,701.000,-0.0028296290617098713
502,702.000,-0.000680821249683191
503,703.000,0.00026166433372709256
504,704.000,0.0013191189825481483
505,705.000,0.00019978242912589502
506,706.000,-0.001372120800300197
507,707.000,-0.0010818262326658542
508,708.000,0.002283632837290126
509,709.000,-0.001282372340443043
510,710.000,-0.0007860042061913002
511,711.000,0.002439462017194953
512,712.000,-0.003928266302113198
513,713.000,-0.0026270224387098307
514,714.000,-0.004248358823423451
515,715.000,-0.0031914647304783967
516,716.000,-0.0005169414796580849
517,717.000,9.630633376830661e-05
518,718.000,-0.0003452573861953022
519,719.000,-0.0003626138336952661
520,720.000,-0.00032387690331132457
521,721.000,-0.0025029937826019765
522,722.000,0.0016977442445600067
523,723.000,-0.002715790240703014
524,724.000,0.0009955695950295438
525,725.000,-0.002198441255818218
526,726.000,-0.001280530379028025
527,727.000,0.001114099135010019
528,728.000,0.00058382870734533
529,729.000,0.0015623167791893758
530,730.000,0.00043387245245822694
531,731.000,0.0011044937896314145
532,732.000,-0.004021407384696286
533,733.000,-0.0004791237979269792
534,734.000,-0.00014982556348904652
535,735.000,-0.0006591198643061542
536,736.000,0.006831570356314433
537,737.000,0.0029301638133136104
538,738.000,-0.00014556754326465688
539,739.000,-0.0016713351345816535
540,740.000,-0.0002457703702092355
541,741.000,0.0016291432275035485
542,742.000,-0.0028718200240308816
543,743.000,0.0008352052661526414
544,744.000,0.0005966959840518116
545,745.000,0.001509624211926222
546,746.000,-0.001264137268845302
547,747.000,0.0003472464147980125
548,748.000,0.0003972961815491421
549,749.000,0.00019203857014225907
550,750.000,0.00046699847045862067
551,751.000,0.0037091339880181884
552,752.000,-0.00047263489128371696
553,753.000,0.0005986932005493398
554,754.000,-0.002860898317100769
555,755.000,-0.001299658560998991
556,756.000,0.002212900448228737
557,757.000,0.0037015535720118812
558,758.000,0.0043701698197117535
559,759.000,0.000996295798316094
560,760.000,0.001655479276266603
561,761.000,0.0010146725834779926
562,762.000,0.00130296615558643
563,763.000,0.003452488203976465
564,764.000,0.001372140325280148
565,765.000,-0.0005352886624310263
566,766.000,-0.0018750216149405754
567,767.000,0.002738708788136649
568,768.000,-0.0010540623410141537
569,769.000,0.0024157574318587898
570,770.000,0.002648414258678941
571,771.000,0.0012619391340057012
572,772.000,0.0001606886954793077
573,773.000,0.0014409576917112199
574,774.000,0.0029360398875216483
575,775.000,0.003189425314830652
576,776.000,0.00481943016080428
577,777.000,0.0028742675747434
578,778.000,0.005074370343371609
579,779.000,0.002464849844754277
580,780.000,0.007944519721940586
581,781.000,0.005979180273533976
582,782.000,0.0014667092507518818
583,783.000,0.005737418507676212
584,784.000,0.009197312662515554
585,785.000,0.007802231115631506
586,786.000,0.012986001811180554
587,787.000,0.010031302341206754
588,788.000,0.014082359352715132
589,789.000,0.01554148251891814
590,790.000,0.018664936075686006
591,791.000,0.02057164988227673
592,792.000,0.021513950608215548
593,793.000,0.030103884603294058
594,794.000,0.029377463077855253
595,795.000,0.03285185075127955
596,796.000,0.033390753739434655
597,797.000,0.03157367124282138
598,798.000,0.027087330311755763
599,799.000,0.021831304908547244
600,800.000,0.01708445791595225
601,801.000,0.015351197417943059
602,802.000,0.014769672973150932
603,803.000,0.014261006305963527
604,804.000,0.011170588700353057
605,805.000,0.008767586434025549
606,806.000,0.007693317313357674
607,807.000,0.008099258022320432
608,808.000,0.0076163205549224545
609,809.000,0.005682882719321914
610,810.000,0.002912237362366701
611,811.000,0.005273044257506758
612,812.000,0.0014529677588140633
613,813.000,0.0061196023547435835
614,814.000,0.0032343749678672646
615,815.000,0.0038121421136950253
616,816.000,0.0032447591080106727
617,817.000,0.002168208084040829
618,818.000,0.003238058260859237
619,819.000,0.0016790232528967207
620,820.000,0.0035478365540510663
621,821.000,0.002473032071029707
622,822.000,0.0020091692493673474
623,823.000,0.0034059592319970735
624,824.000,0.0035248669897343337
625,825.000,0.0025595696164420804
626,826.000,0.0035992622020506503
627,827.000,0.0022895800831992746
628,828.000,0.003177242357179536
629,829.000,0.0046861400509001765
630,830.000,-0.0019624513259690795
631,831.000,0.0024098038875690116
632,832.000,0.001295042792754861
633,833.000,0.0032061727089237697
634,834.000,0.0009665406736284629
635,835.000,0.0009888734716635799
636,836.000,-0.001990759397707145
637,837.000,0.0019116885825307213
638,838.000,-0.0003297410105961674
639,839.000,0.00046831105298175186
640,840.000,-0.0025896418645943928
641,841.000,0.002049256867477227
642,842.000,0.00047655531830637993
643,843.000,0.001139457045261354
644,844.000,0.0019525934155272431
645,845.000,0.0012215359670262973
646,846.000,-0.001951143528306395
647,847.000,0.001545827933621088
648,848.000,-0.001353255575720502
649,849.000,-0.0007120083112068768
650,850.000,0.0001748805216321159
651,851.000,-0.0009528180768325322
652,852.000,0.0030267614471860185
653,853.000,0.0030984852013584484
654,854.000,-0.004230161857028516
655,855.000,0.0029814030292465697
656,856.000,0.0018872952692727523
657,857.000,-0.0022625871133365913
658,858.000,-0.00030976223232122437
659,859.000,-0.0017317425882775487
660,860.000,0.002829520729563049
661,861.000,0.00345328872815444
662,862.000,0.0007908967882640847
663,863.000,0.0014985513438610077
664,864.000,-0.002144171574045506
665,865.000,0.0009912278063427854
666,866.000,0.00029395833564636523
667,867.000,-0.0006911131185503811
668,868.000,0.0014138664671107211
669,869.000,0.0022345505018036456
670,870.000,0.00040027122163935797
671,871.000,0.000869702441616018
672,872.000,0.0011056070284076306
673,873.000,0.00037166177238818376
674,874.000,0.0024377198851129084
675,875.000,-0.0025959632343129178
676,876.000,0.0004228603637660846
677,877.000,0.0007600353530189299
678,878.000,-0.000958515591949732
679,879.000,-0.0005994423929251865
680,880.000,-0.0011564047278584812
681,881.000,0.0020283053043140997
682,882.000,-0.0016178307060553923
683,883.000,0.0007558333883821404
684,884.000,-0.00027261690272228873
685,885.000,0.002584011427230895
686,886.000,0.0009563218659765718
687,887.000,0.0021461728844904427
688,888.000,-0.0036086307283175957
689,889.000,0.0019796777119090495
690,890.000,0.000992952302959068
691,891.000,0.0009710430710212667
692,892.000,0.004701602890263963
693,893.000,-0.0002202499617376661
694,894.000,-0.00020160895950837118
695,895.000,0.0015551274926201434
696,896.000,-4.726399299882203e-05
697,897.000,0.0015329285351733974
698,898.000,-0.0002375270496417017
699,899.000,0.0017454037758623444
700,900.000,0.002901509330640937
701,901.000,0.004267885063050184
702,902.000,-0.0017053388319227302
703,903.000,-0.0016594365488159471
704,904.000,0.0028236537880069225
705,905.000,0.0003805727213024156
706,906.000,0.006550136980387351
707,907.000,0.000876544057574517
708,908.000,0.0005648960900929017
709,909.000,0.0004171874123333388
710,910.000,-0.0002475436792753946
711,911.000,0.003961893041373616
712,912.000,-0.0003911262878847502
713,913.000,-0.0014339258646577182
714,914.000,-0.0024144360316027775
715,915.000,0.0021197858188442917
716,916.000,0.004035846107369761
717,917.000,-0.0011031418422293507
718,918.000,-6.799101889251732e-07
719,919.000,0.002893702487851009
720,920.000,0.0005852001797273444
721,921.000,0.00018294528310881103
722,922.000,-0.0027478622247051063
723,923.000,-0.0016250971477873325
724,924.000,0.0003450709541286771
725,925.000,-0.0005462928781473823
726,926.000,0.00036645490112200086
727,927.000,0.0011454697943290466
728,928.000,0.0013753780078426027
729,929.000,0.00037581744392734846
730,930.000,-2.5785885215091293e-05
731,931.000,0.0009779671957660086
732,932.000,-0.002239557714403882
733,933.000,0.0007964925845341224
734,934.000,0.003557037543393274
735,935.000,0.00403393045490138
736,936.000,-0.0006284602921601661
737,937.000,0.002092201431040524
738,938.000,0.002529025619580639
739,939.000,-9.058488480471581e-05
740,940.000,0.0015405407580018824
741,941.000,0.0005276836827402649
742,942.000,0.002614066354836477
743,943.000,0.0016337467139054516
744,944.000,0.003302935990206727
745,945.000,0.0016578566000351052
746,946.000,0.0015827452618412455
747,947.000,0.0011677317355820848
748,948.000,0.0022874956341300315
749,949.000,0.0010020260650125655
750,950.000,0.0005529940402178495
751,951.000,0.003441394236336143
752,952.000,-0.0020457968520785604
753,953.000,0.0017232095422010704
754,954.000,0.0016821988964099775
755,955.000,0.002061593505615696
756,956.000,0.0019437104944068113
757,957.000,-0.0007503966262229905
758,958.000,0.0037073625684662177
759,959.000,0.002280468530862002
760,960.000,0.004630973479725862
761,961.000,0.0031041036717987507
762,962.000,0.0009473082534580835
763,963.000,0.001469874816856132
764,964.000,0.0021794714781200775
765,965.000,0.003244940501372795
766,966.000,0.0030752986578290393
767,967.000,0.00036020816721393247
768,968.000,-0.000747411508723768
769,969.000,0.007289539468302994
770,970.000,0.0027701802215457445
771,971.000,0.001559320009685989
772,972.000,0.002885678665848404
773,973.000,0.00489391669963972
774,974.000,0.0027012822358426186
775,975.000,0.007511031155781712
776,976.000,0.004428675162457622
777,977.000,0.004249880197264441
778,978.000,0.005942645257018012
779,979.000,0.007243326045193127
780,980.000,0.007015004708679104
781,981.000,0.007047972007487641
782,982.000,0.008328163848556846
783,983.000,0.01116093328284845
784,984.000,0.009410032280372916
785,985.000,0.008996906693707367
786,986.000,0.010177264792936866
787,987.000,0.013012512954925101
788,988.000,0.01861619259307738
789,989.000,0.02214515762416812
790,990.000,0.018318528605187807
791,991.000,0.02703658142475479
792,992.000,0.03304196359154442
793,993.000,0.038679588037178886
794,994.000,0.05033090693743841
795,995.000,0.06573618634541142
796,996.000,0.08213317223665506
797,997.000,0.11288197448577442
798,998.000,0.15855632108709977
799,999.000,0.21934978426645654
800,1000.000,0.28384556375171943
801,1001.000,0.3132669646477632
802,1002.000,0.28411536212911015
803,1003.000,0.22039344042299508
804,1004.000,0.16020914591085017
805,1005.000,0.11471203794486454
806,1006.000,0.08670888718884942
807,1007.000,0.06533558634830322
808,1008.000,0.05275600549760841
809,1009.000,0.040229077219459744
810,1010.000,0.03646606908797236
811,1011.000,0.031049371679993196
812,1012.000,0.025320812789429093
813,1013.000,0.024219926397303065
814,1014.000,0.019997096170246004
815,1015.000,0.02161515456276114
816,1016.000,0.018247203223590178
817,1017.000,0.014588020117747237
818,1018.000,0.018880235195330067
819,1019.000,0.018827395560879222
820,1020.000,0.019321340393183867
821,1021.000,0.02177920753825355
822,1022.000,0.024373613497955894
823,1023.000,0.027914096377703305
824,1024.000,0.03232754520498977
825,1025.000,0.038874638807857076
826,1026.000,0.04491757947801491
827,1027.000,0.06331565348135956
828,1028.000,0.07850948617420038
829,1029.000,0.1012200191952273
830,1030.000,0.12822116687531915
831,1031.000,0.13514068120544045
832,1032.000,0.12388208586239326
833,1033.000,0.09995257244228037
834,1034.000,0.07768084319082533
835,1035.000,0.06191973330509473
836,1036.000,0.04690744135648239
837,1037.000,0.040014460844275894
838,1038.000,0.029786338517272203
839,1039.000,0.02164211604072068
840,1040.000,0.0222657221709299
841,1041.000,0.016518991822412402
842,1042.000,0.013776628713834678
843,1043.000,0.010021406640481142
844,1044.000,0.010619871524732673
845,1045.000,0.009353768216373959
846,1046.000,0.005938743095299174
847,1047.000,0.006355235481330076
848,1048.000,0.0054223832710921975
849,1049.000,0.008150287817097469
850,1050.000,0.0073744186500956915
851,1051.000,0.003509647267862836
852,1052.000,0.001711272851232557
853,1053.000,0.005424839009699534
854,1054.000,-0.0001507045025058553
855,1055.000,0.005658499798391984
856,1056.000,0.004288038621387588
857,1057.000,0.005937139842510004
858,1058.000,0.007357027876421298
859,1059.000,0.003288714561664961
860,1060.000,0.00033099627785557255
861,1061.000,0.0028630454350572726
862,1062.000,0.0023860649760584197
863,1063.000,0.0001644932322983929
864,1064.000,0.002156552300848379
865,1065.000,0.004396419265741157
866,1066.000,0.003626971612709908
867,1067.000,0.004351185240819135
868,1068.000,0.004033865581580899
869,1069.000,0.00010864832553031052
870,1070.000,0.0024719182024154278
871,1071.000,0.0018208986854365242
872,1072.000,0.0011563433186473461
873,1073.000,-0.0024981808750441517
874,1074.000,0.003953327243717865
875,1075.000,0.0023387430379578087
876,1076.000,-0.002304770517600847
877,1077.000,0.0031389475731157667
878,1078.000,-0.00013524607200850932
879,1079.000,-0.00012309366150344518
880,1080.000,0.002270317745720906
881,1081.000,0.0015705730114371993
882,1082.000,-0.00038732521517501105
883,1083.000,5.885521778982196e-06
884,1084.000,0.002229860412668091
885,1085.000,0.0015351203716323688
886,1086.000,0.0007274891009554567
887,1087.000,0.004001324368221929
888,1088.000,0.0015113556367611968
889,1089.000,-0.0011604278184854004
890,1090.000,-0.0009823514985220143
891,1091.000,3.888872135710596e-05
892,1092.000,0.004120237164663693
893,1093.000,0.0034864522215195775
894,1094.000,-0.00038913348025366247
895,1095.000,0.0020961158746015895
896,1096.000,-0.0002633463162741279
897,1097.000,-0.0013105802679291038
898,1098.000,-0.0005721644213390309
899,1099.000,0.002139101377638977
900,1100.000,0.0005842749476129107
901,1101.000,-0.0006757510532766623
902,1102.000,-0.001921889439797819
903,1103.000,0.0015983444611456549
904,1104.000,0.0005306836014339662
905,1105.000,-0.000817334555874301
906,1106.000,-0.0010509115761043824
907,1107.000,0.002397800433765829
908,1108.000,0.004539293306529724
909,1109.000,0.0003859824004248597
910,1110.000,0.0004041113443089984
911,1111.000,0.0016342360980803425
912,1112.000,0.001091420555878357
913,1113.000,0.0024314142613459564
914,1114.000,0.0013346060706773575
915,1115.000,-0.002459204291277268
916,1116.000,0.003245452244798919
917,1117.000,0.004071420620839767
918,1118.000,-0.0012502288698208088
919,1119.000,0.0005551713904013736
920,1120.000,0.0012994264656728037
921,1121.000,0.0016849493992307613
922,1122.000,-0.002424266544088877
923,1123.000,0.0009848790386685234
924,1124.000,-0.0009436111040287265
925,1125.000,-0.0013123872733316294
926,1126.000,0.004188723866111731
927,1127.000,-0.0007991879765244004
928,1128.000,-0.00026042481241926043
929,1129.000,0.0003094510923181405
930,1130.000,0.0021430192853093884
931,1131.000,0.0023302118813955195
932,1132.000,0.004013718006705093
933,1133.000,0.0005579792084858834
934,1134.000,0.005967169576593069
935,1135.000,0.0025330389477175833
936,1136.000,0.0037025455669609845
937,1137.000,0.003999867552782389
938,1138.000,0.004046922439544321
939,1139.000,0.0074419697271012565
940,1140.000,0.00687793462564037
941,1141.000,0.007823006324137015
942,1142.000,0.001951563945213396
943,1143.000,0.009617575889029176
944,1144.000,0.005056999094677166
945,1145.000,0.00902449926940595
946,1146.000,0.012613069340500426
947,1147.000,0.013105206852483514
948,1148.000,0.017419887309013705
949,1149.000,0.01902085819488175
950,1150.000,0.021666877179407396
951,1151.000,0.02690452611237305
952,1152.000,0.03206516033651869
953,1153.000,0.041465497519589035
954,1154.000,0.04461171594330318
955,1155.000,0.04413607672445932
956,1156.000,0.044857311533449955
957,1157.000,0.037840422034367556
958,1158.000,0.03616307667007047
959,1159.000,0.028159516243030522
960,1160.000,0.021575850463201537
961,1161.000,0.019324074205295985
962,1162.000,0.016799492093249265
963,1163.000,0.010629453881021982
964,1164.000,0.011588996109014277
965,1165.000,0.010338027494388566
966,1166.000,0.009264009679107796
967,1167.000,0.005494582867921165
968,1168.000,0.008770885210880106
969,1169.000,0.007376357921491431
970,1170.000,0.00868371562297159
971,1171.000,0.00977485023236938
972,1172.000,0.007413408145542864
973,1173.000,0.008586167563462232
974,1174.000,0.013119509530135397
975,1175.000,0.010477229579270294
976,1176.000,0.014557984085283544
977,1177.000,0.012652668834111537
978,1178.000,0.017243686961720735
979,1179.000,0.024554656040276616
980,1180.000,0.02750964712527355
981,1181.000,0.03250188501064486
982,1182.000,0.03719990979087336
983,1183.000,0.04042272061698633
984,1184.000,0.03778072346341148
985,1185.000,0.03238305566774644
986,1186.000,0.02948367613451527
987,1187.000,0.022742662950130787
988,1188.000,0.020123322646274425
989,1189.000,0.014373399018777913
990,1190.000,0.01225714911081887
991,1191.000,0.010341107717435289
992,1192.000,0.010501945684535509
993,1193.000,0.006514957375382799
994,1194.000,0.0077899659641131784
995,1195.000,0.00742638595882939
996,1196.000,0.003446667870436995
997,1197.000,0.006921928814335529
998,1198.000,0.00420134298662142
999,1199.000,0.0029304075606439613
1000,1200.000,0.003074429166383174
1001,1201.000,0.003525439512533531
1002,1202.000,0.003180883451021293
1003,1203.000,0.00344365850417235
1004,1204.000,0.003307044738810204
1005,1205.000,0.0019809238465165425
1006,1206.000,0.004486308179486343
1007,1207.000,0.0024008570378851934
1008,1208.000,0.0007641056815005686
1009,1209.000,0.00016133931819830696
1010,1210.000,-0.002245698950436411
1011,1211.000,0.003516926621275066
1012,1212.000,0.00268378250018334
1013,1213.000,0.000252036314178223
1014,1214.000,-0.0010154948370691384
1015,1215.000,0.0012259186951871458
1016,1216.000,0.0023652000156289443
1017,1217.000,0.0024376118678851168
1018,1218.000,0.0012975495482452938
1019,1219.000,0.005602520106278436
1020,1220.000,0.001995395005850257
1021,1221.000,0.0014792871168684506
1022,1222.000,0.0010381107473135393
1023,1223.000,-0.0017653986150078919
1024,1224.000,0.0019837521343380976
1025,1225.000,-0.0008621069094962003
1026,1226.000,-0.001090276455037058
1027,1227.000,0.0012102640701331993
1028,1228.000,0.0018102695382866386
1029,1229.000,0.0011241337150285052
1030,1230.000,-0.0008102589550754262
1031,1231.000,0.00029969993942796956
1032,1232.000,0.002893095323958351
1033,1233.000,-0.0004833619782523868
1034,1234.000,0.0005994697908809235
1035,1235.000,0.0006254033731217703
1036,1236.000,0.0009246369174641456
1037,1237.000,-2.953090233723032e-05
1038,1238.000,-0.00016266134829238195
1039,1239.000,0.0012635341989000533
1040,1240.000,0.0031878692998962015
1041,1241.000,0.0003100689634578678
1042,1242.000,0.0015363356441747784
1043,1243.000,0.00045991121765558173
1044,1244.000,0.0011426090698472512
1045,1245.000,0.0017314509732544155
1046,1246.000,-0.0013008914690071623
1047,1247.000,0.0028087618968471754
1048,1248.000,-0.0019591997869692407
1049,1249.000,-0.0007110846536876006
1050,1250.000,0.0010613813742243483
1051,1251.000,0.0010790102266865261
1052,1252.000,-0.00010567454511622048
1053,1253.000,-0.0004379566373772499
1054,1254.000,-0.00019881153375189952
1055,1255.000,0.0008833104078844968
1056,1256.000,0.0034452009775884484
1057,1257.000,0.0006489218413103394
1058,1258.000,-0.0004070961468891896
1059,1259.000,-0.0018571348437916306
1060,1260.000,0.0017469116081849814
1061,1261.000,0.0024320655139030184
1062,1262.000,-0.00017901855770551878
1063,1263.000,-0.002767813290105281
1064,1264.000,0.0034480604423941176
1065,1265.000,0.002755636315915763
1066,1266.000,0.0015712107224759087
1067,1267.000,0.0030458593969299643
1068,1268.000,0.0008687472921935955
1069,1269.000,0.0015353030246706165
1070,1270.000,0.00036036657148675753
1071,1271.000,-0.00046006426830487196
1072,1272.000,-0.0006539460595382747
1073,1273.000,0.0007844220529772382
1074,1274.000,-0.00046192701437596624
1075,1275.000,0.00038265370626231263
1076,1276.000,-0.001312038972882833
1077,1277.000,0.0018754190427582797
1078,1278.000,0.000592383482834979
1079,1279.000,-0.001027693225752796
1080,1280.000,-0.0008690776422575986
1081,1281.000,-0.00019258621433797048
1082,1282.000,-0.00012529557537142332
1083,1283.000,0.0017307329578626835
1084,1284.000,-0.0005934538926229164
1085,1285.000,0.0017854554932026374
1086,1286.000,2.2749750832771887e-05
1087,1287.000,-0.0018536020820966966
1088,1288.000,0.0006689204594842645
1089,1289.000,-0.00020776940560181918
1090,1290.000,0.0035822688561939616
1091,1291.000,0.0012694458589586467
1092,1292.000,-0.0020972823346941225
1093,1293.000,-0.0009155848848238189
1094,1294.000,0.00021026073005971034
1095,1295.000,0.00027090846697661063
1096,1296.000,0.0024140360844328215
1097,1297.000,0.00020168202072367024
1098,1298.000,-0.0007991567995402857
1099,1299.000,0.0029488215062515727
1100,1300.000,0.0005437325864216011
1101,1301.000,0.0031592601655640587
1102,1302.000,0.0018815634279811231
1103,1303.000,-0.0019454901018535996
1104,1304.000,0.0002549260112109129
1105,1305.000,0.0025308845866233555
1106,1306.000,-0.0018158788760750293
1107,1307.000,0.0035958384023406023
1108,1308.000,0.0017663392781548672
1109,1309.000,-0.0028094783376437504
1110,1310.000,0.003323611684298294
1111,1311.000,-0.0010745944320273745
1112,1312.000,0.002221896110362432
1113,1313.000,-0.0015207326658419917
1114,1314.000,0.004469369629541128
1115,1315.000,0.0003535057454673394
1116,1316.000,-0.001098801943056781
1117,1317.000,0.0037676840492665243
1118,1318.000,0.0014195935846168784
1119,1319.000,0.0003066023347595406
1120,1320.000,0.00039651707186530655
1121,1321.000,0.00017301336669458124
1122,1322.000,0.0023507792433402636
1123,1323.000,-0.00030988725517671457
1124,1324.000,0.0040833453448850835
1125,1325.000,-0.0006006680577956342
1126,1326.000,-0.003609888829848284
1127,1327.000,0.0019389596258981843
1128,1328.000,-0.00014354702275880049
1129,1329.000,0.001643194599768325
1130,1330.000,-0.0004456838056522184
1131,1331.000,0.0005769417430463006
1132,1332.000,-0.0021322402367005273
1133,1333.000,-0.0005411316701407613
1134,1334.000,-0.002119719370928653
1135,1335.000,-0.0005970269639538774
1136,1336.000,-0.005132241439188113
1137,1337.000,0.0025048940040378145
1138,1338.000,-0.0010392022566765844
1139,1339.000,0.0019049184531923639
1140,1340.000,0.001954213673944112
1141,1341.000,0.0016333077167755942
1142,1342.000,0.0016417695911509623
1143,1343.000,0.0015822820159459659
1144,1344.000,-0.0006634024482149977
1145,1345.000,0.0026842766081437027
1146,1346.000,0.002068278291896527
1147,1347.000,0.0007049314507318761
1148,1348.000,0.0009001749518573179
1149,1349.000,-0.0003623908710209915
1150,1350.000,0.003731580786742695
1151,1351.000,0.0028633540557081046
1152,1352.000,-0.00032133361721324225
1153,1353.000,0.0013035544243371999
1154,1354.000,-0.00128285007261377
1155,1355.000,0.002152174926311066
1156,1356.000,-0.0015056537127775564
1157,1357.000,0.002406963947743293
1158,1358.000,-0.00021360705968801925
1159,1359.000,0.0014803805157456843
1160,1360.000,-6.306631507852387e-05
1161,1361.000,0.003106837483910868
1162,1362.000,-0.001822109549112493
1163,1363.000,-0.005260265158129087
1164,1364.000,0.002366331204789954
1165,1365.000,0.00052026545003516
1166,1366.000,0.0026907919679856076
1167,1367.000,-0.0006204122213921384
1168,1368.000,0.0003944486836666681
1169,1369.000,0.0024912375402384905
1170,1370.000,-0.0010043561509263485
1171,1371.000,0.0019870357950791456
1172,1372.000,-0.0010152334542730254
1173,1373.000,0.001354906696202454
1174,1374.000,0.0028210475181025484
1175,1375.000,0.00020251970534735758
1176,1376.000,0.0017282356499431944
1177,1377.000,0.0036457140188673335
1178,1378.000,0.00041725984371057494
1179,1379.000,0.0004530434634174715
1180,1380.000,0.0005970934118695159
1181,1381.000,-0.00045799399059204477
1182,1382.000,0.00096192207111305
1183,1383.000,0.0018053253094926947
1184,1384.000,4.423667634938355e-06
1185,1385.000,-0.0011845351852628025
1186,1386.000,0.00028102964972874874
1187,1387.000,0.0009675899838412923
1188,1388.000,0.0026453063227574484
1189,1389.000,0.0008096722609198135
1190,1390.000,0.003205559876488546
1191,1391.000,-0.0009529009005378067
1192,1392.000,0.0008816835361679672
1193,1393.000,0.00468268412944892
1194,1394.000,0.00032956812004789505
1195,1395.000,-0.002297868437188307
1196,1396.000,-0.0005238208859003593
1197,1397.000,-0.00023911550123639303
1198,1398.000,-0.0002476409892561162
1199,1399.000,0.001301523196584274
1200,1400.000,0.003515764884968005
1201,1401.000,0.0013100030213444352
1202,1402.000,0.0014226464097078651
1203,1403.000,0.0027352648336085874
1204,1404.000,0.0022212467473195587
1205,1405.000,0.002034549203950885
1206,1406.000,-0.001868881953503204
1207,1407.000,0.0006944994428956856
1208,1408.000,0.0038619116025081545
1209,1409.000,0.0037601518158720303
1210,1410.000,0.002649221711075608
1211,1411.000,0.0007539640290113854
1212,1412.000,0.0033159566324815304
1213,1413.000,0.002672631532198323
1214,1414.000,-7.92774020610626e-05
1215,1415.000,0.003997651467557995
1216,1416.000,0.0030071974172755102
1217,1417.000,0.0017118466337078802
1218,1418.000,0.006152981567645273
1219,1419.000,0.003696966146480583
1220,1420.000,0.002770442234179921
1221,1421.000,0.003116765306377688
1222,1422.000,0.005393763744432017
1223,1423.000,0.005786844104906985
1224,1424.000,0.0043523145404659545
1225,1425.000,0.006927394549045573
1226,1426.000,0.0058379353088951575
1227,1427.000,0.006457022036083874
1228,1428.000,0.008829528488161755
1229,1429.000,0.006621532903848029
1230,1430.000,0.006316642154024482
1231,1431.000,0.006071192686308306
1232,1432.000,0.006014681725788682
1233,1433.000,0.006854258383017039
1234,1434.000,0.0099190330766527
1235,1435.000,0.015783203975139874
1236,1436.000,0.014542531638247796
1237,1437.000,0.017043873355610726
1238,1438.000,0.018292612658412723
1239,1439.000,0.019945017065256136
1240,1440.000,0.02630372736317936
1241,1441.000,0.027988776906662124
1242,1442.000,0.03383154559285215
1243,1443.000,0.03711538867201944
1244,1444.000,0.04050849322407128
1245,1445.000,0.04534751985144632
1246,1446.000,0.05130820650485772
1247,1447.000,0.06024262224055704
1248,1448.000,0.06565942325689755
1249,1449.000,0.0661345419145824
1250,1450.000,0.06852076088604721
1251,1451.000,0.07420454490363716
1252,1452.000,0.061002780097079205
1253,1453.000,0.05203412541952231
1254,1454.000,0.050970001730372
1255,1455.000,0.0490930269875983
1256,1456.000,0.042623421731774316
1257,1457.000,0.03300029917384401
1258,1458.000,0.027548473807581457
1259,1459.000,0.030919370899372713
1260,1460.000,0.020426547789340572
1261,1461.000,0.021354895712671462
1262,1462.000,0.014772320497448428
1263,1463.000,0.018430813930612466
1264,1464.000,0.015791769142957563
1265,1465.000,0.010822445711072473
1266,1466.000,0.012744549295811688
1267,1467.000,0.009181517898492607
1268,1468.000,0.010126892234178488
1269,1469.000,0.009689044873705154
1270,1470.000,0.010134708209620329
1271,1471.000,0.004821166624343758
1272,1472.000,0.010010124036340976
1273,1473.000,0.0046641678351560835
1274,1474.000,0.005861160587465436
1275,1475.000,0.00660822222114525
1276,1476.000,0.00566544848682118
1277,1477.000,0.0033660545818444735
1278,1478.000,0.004004089357318161
1279,1479.000,0.002786598525250985
1280,1480.000,0.007405626181356421
1281,1481.000,0.007131514987829849
1282,1482.000,0.005147325116038021
1283,1483.000,0.002345773290416153
1284,1484.000,0.0032734967293076515
1285,1485.000,0.004234866117520487
1286,1486.000,0.005334830741641424
1287,1487.000,0.0036961564896506953
1288,1488.000,-0.0004087822233836339
1289,1489.000,0.0003009237147842286
1290,1490.000,0.00524476767767184
1291,1491.000,0.0033699054117611836
1292,1492.000,0.0021058267178557335
1293,1493.000,0.0029370715622687163
1294,1494.000,0.0025868126320157435
1295,1495.000,-0.0007062881219194119
1296,1496.000,0.0054929654437755795
1297,1497.000,-0.0009949602267036659
1298,1498.000,0.0004212766359568652
1299,1499.000,0.001429251206554705
1300,1500.000,0.00018617918664288818
1301,1501.000,0.002502882931102902
1302,1502.000,0.0011278000023927787
1303,1503.000,0.0022112405100139037
1304,1504.000,-0.0023725080266730376
1305,1505.000,0.0010500880628371108
1306,1506.000,0.0015404910007949116
1307,1507.000,0.002559599848669101
1308,1508.000,0.0037865470694129996
1309,1509.000,0.0038388891317941366
1310,1510.000,0.006153723516883395
1311,1511.000,-0.0005853229981496144
1312,1512.000,-0.00083404132541236
1313,1513.000,0.0018528673759962973
1314,1514.000,0.0024415288307984336
1315,1515.000,0.0004975875007415614
1316,1516.000,0.001148522304501002
1317,1517.000,0.0009639098400396343
1318,1518.000,0.0029244423643500195
1319,1519.000,0.0024338781878481103
1320,1520.000,0.0013302856964847384
1321,1521.000,0.002160611292244885
1322,1522.000,0.0009060859820778486
1323,1523.000,0.0027791661211894643
1324,1524.000,0.0023894487810514724
1325,1525.000,0.002786483894723533
1326,1526.000,0.0024382360374054736
1327,1527.000,0.0017148931604182376
1328,1528.000,0.0021041374921709744
1329,1529.000,0.0006959153188611361
1330,1530.000,0.0014020651913257364
1331,1531.000,0.0032258431814669117
1332,1532.000,0.004838332860748719
1333,1533.000,-0.0008784231794352473
1334,1534.000,0.004258937898447334
1335,1535.000,0.0007446625804981413
1336,1536.000,0.0024719219814438058
1337,1537.000,-0.0022082553925146815
1338,1538.000,0.0045596402251524455
1339,1539.000,0.0004745395215859955
1340,1540.000,0.0018416742088610643
1341,1541.000,0.0030890823489170736
1342,1542.000,-0.0005323630646287499
1343,1543.000,-0.001943490051084788
1344,1544.000,-0.0010991814204896922
1345,1545.000,0.0009028999462365535
1346,1546.000,8.815056069151916e-05
1347,1547.000,0.0027275867927025266
1348,1548.000,0.005504702161159115
1349,1549.000,0.002626985908102181
1350,1550.000,0.004252493395387508
1351,1551.000,0.007073418409986818
1352,1552.000,0.002828279948579091
1353,1553.000,0.0007391392156053398
1354,1554.000,0.0027887251734704434
1355,1555.000,0.0009573321262295
1356,1556.000,0.003835248667790443
1357,1557.000,0.003197728784933195
1358,1558.000,0.0030302592528684605
1359,1559.000,0.003688679052167676
1360,1560.000,0.008814308451371225
1361,1561.000,0.0006737976105245073
1362,1562.000,0.0055622318847455155
1363,1563.000,0.007190456493434291
1364,1564.000,0.004492593963354312
1365,1565.000,0.008721976710698994
1366,1566.000,0.009154062942410772
1367,1567.000,0.005968528452213824
1368,1568.000,0.0075396862682924485
1369,1569.000,0.010678349784441836
1370,1570.000,0.0111651588664126
1371,1571.000,0.01636256177699555
1372,1572.000,0.016058098687216724
1373,1573.000,0.018726053041959782
1374,1574.000,0.01729369295472649
1375,1575.000,0.01919378968262815
1376,1576.000,0.025145005776006417
1377,1577.000,0.032048329488882234
1378,1578.000,0.03606274063237557
1379,1579.000,0.042279384026987867
1380,1580.000,0.053611217884748825
1381,1581.000,0.059956269514439504
1382,1582.000,0.06890385925798195
1383,1583.000,0.07342309883550724
1384,1584.000,0.070302664407494
1385,1585.000,0.06362820999024695
1386,1586.000,0.057475550269851815
1387,1587.000,0.05248855295208305
1388,1588.000,0.04529191270854699
1389,1589.000,0.046007442759282695
1390,1590.000,0.038648800607906125
1391,1591.000,0.0395870990278741
1392,1592.000,0.04382842822867727
1393,1593.000,0.04536856085161438
1394,1594.000,0.04824342141889402
1395,1595.000,0.055746954037617605
1396,1596.000,0.06742225780115128
1397,1597.000,0.08514103098389662
1398,1598.000,0.09912060265425696
1399,1599.000,0.13331659805875778
1400,1600.000,0.16303974082922953
1401,1601.000,0.18521836017508558
1402,1602.000,0.19675017108193388
1403,1603.000,0.18456344920363493
1404,1604.000,0.1644792325728493
1405,1605.000,0.12606378161363255
1406,1606.000,0.09970787531613035
1407,1607.000,0.0818425312580861
1408,1608.000,0.06183838153137343
1409,1609.000,0.05364210419859746
1410,1610.000,0.04207195158474971
1411,1611.000,0.033455347726734794
1412,1612.000,0.032900582266964976
1413,1613.000,0.026326315560548992
1414,1614.000,0.021904088050341507
1415,1615.000,0.019882285194189026
1416,1616.000,0.019046097695577253
1417,1617.000,0.015178025332056621
1418,1618.000,0.012117586128727088
1419,1619.000,0.012353769418861545
1420,1620.000,0.012282103924709934
1421,1621.000,0.011294395653462762
1422,1622.000,0.007787006040136473
1423,1623.000,0.005969488955259782
1424,1624.000,0.009212899579977736
1425,1625.000,0.005830530302789375
1426,1626.000,0.004405903997130711
1427,1627.000,0.00461620535174548
1428,1628.000,0.009250538387698973
1429,1629.000,0.006994315787988216
1430,1630.000,-0.00038358870086672157
1431,1631.000,0.0040665544919656245
1432,1632.000,0.006951759204671679
1433,1633.000,0.007245684158900709
1434,1634.000,0.006508759139005575
1435,1635.000,0.0016587282959141904
1436,1636.000,0.007099999465756349
1437,1637.000,0.005378311927234332
1438,1638.000,0.0032559790432635793
1439,1639.000,0.0010884222117798132
1440,1640.000,0.003640527617338196
1441,1641.000,0.00041166719663085185
1442,1642.000,0.0010067813423876328
1443,1643.000,0.00047182680904898694
1444,1644.000,0.001403950611567096
1445,1645.000,0.0020088609436355468
1446,1646.000,-0.0006753646476250593
1447,1647.000,0.002461272364556875
1448,1648.000,0.0022248311557356523
1449,1649.000,-0.00019795463906729303
1450,1650.000,0.0009137048182059943
1451,1651.000,0.004312798500398178
1452,1652.000,-0.0009669384163651987
1453,1653.000,0.0023541576947097814
1454,1654.000,0.001601180621942996
1455,1655.000,0.00160364234401193
1456,1656.000,0.004596245468612425
1457,1657.000,0.0014736088118121697
1458,1658.000,-0.0011468995267318815
1459,1659.000,0.002376445774242431
1460,1660.000,0.00010741667719826497
1461,1661.000,0.0024994858995105278
1462,1662.000,0.0005844550812989067
1463,1663.000,0.0032971455739752463
1464,1664.000,0.0014028641409085541
1465,1665.000,0.0005920424255239063
1466,1666.000,-5.591513371209828e-05
1467,1667.000,0.00026398087812252264
1468,1668.000,0.0005770774731488603
1469,1669.000,0.000754203997313359
1470,1670.000,0.0054859950259332135
1471,1671.000,0.0017688463485643314
1472,1672.000,0.002749581367697854
1473,1673.000,0.0019258007341685696
1474,1674.000,-0.0010301719534494284
1475,1675.000,0.0016590879334481194
1476,1676.000,0.0011107106062314943
1477,1677.000,3.1875789445491944e-05
1478,1678.000,-0.001359097323754111
1479,1679.000,-9.921114691450661e-05
1480,1680.000,0.003666836268145513
1481,1681.000,0.0008858464508448554
1482,1682.000,-5.038389584351017e-06
1483,1683.000,0.002914919527757658
1484,1684.000,-0.0022895063921459127
1485,1685.000,0.0017687329777130052
1486,1686.000,-0.0025863937897039
1487,1687.000,8.686726563831391e-05
1488,1688.000,-4.244163787005353e-06
1489,1689.000,0.0004268755814172175
1490,1690.000,-0.0023365316765188867
1491,1691.000,0.0016005589717748914
1492,1692.000,-0.00035884677224092476
1493,1693.000,-0.0022506205050600897
1494,1694.000,-0.000543067162508123
1495,1695.000,-0.00031633207315557216
1496,1696.000,0.0020226893532260485
1497,1697.000,0.0010465593950895857
1498,1698.000,0.00046887129393872166
1499,1699.000,-0.002604152703726072
1500,1700.000,-0.0005162177957237866
1501,1701.000,-0.0015383240429394257
1502,1702.000,0.0025553550550440327
1503,1703.000,0.002500755338126349
1504,1704.000,-0.0013202621386323534
1505,1705.000,-0.002386524442925322
1506,1706.000,0.0005131467053289749
1507,1707.000,0.0009902956460096598
1508,1708.000,-0.00031024815238676933
1509,1709.000,0.0037945479023263084
1510,1710.000,-0.00014197620662987102
1511,1711.000,0.0023527871670848614
1512,1712.000,0.001062545629883661
1513,1713.000,0.0022692766234028946
1514,1714.000,0.0005435420604075668
1515,1715.000,-0.002263952287337977
1516,1716.000,-0.0013379057922890101
1517,1717.000,-0.0003220919422410013
1518,1718.000,0.0036140640263673997
1519,1719.000,0.00028178640016135047
1520,1720.000,-0.0009754198157205173
1521,1721.000,0.0008386860662073842
1522,1722.000,-0.0026902594399034066
1523,1723.000,-0.0016590765963629868
1524,1724.000,-0.0011414939415568465
1525,1725.000,0.0038639708580548806
1526,1726.000,-0.002797110837440198
1527,1727.000,0.0014245560787146472
1528,1728.000,-0.0002437725238736443
1529,1729.000,0.0016060524193597043
1530,1730.000,0.0026754922566801184
1531,1731.000,-0.0016568327982638242
1532,1732.000,0.003018149986270707
1533,1733.000,-0.004159195798045783
1534,1734.000,-0.002133505896287971
1535,1735.000,-0.0005608896901746498
1536,1736.000,-0.0032474271020452136
1537,1737.000,0.0005296752306952268
1538,1738.000,0.0009035814310206359
1539,1739.000,-0.0012195091481398117
1540,1740.000,0.0015749503859745129
1541,1741.000,0.0021112760767761415
1542,1742.000,0.0025624564792034875
1543,1743.000,-0.000637121510282449
1544,1744.000,0.0017710419640516804
1545,1745.000,0.0018729903871876495
1546,1746.000,0.00013318555678565737
1547,1747.000,5.705293617276834e-05
1548,1748.000,-0.001245587278216099
1549,1749.000,0.0026325291128939648
1550,1750.000,0.0014182384880244998
1551,1751.000,0.0026522997296891115
1552,1752.000,-0.0001907574795222741
1553,1753.000,-2.2974917940266795e-05
1554,1754.000,0.0031987815592553707
1555,1755.000,-0.0002966219208144658
1556,1756.000,-0.0006909043272325222
1557,1757.000,-0.0008978023518742878
1558,1758.000,0.003454881903534603
1559,1759.000,-0.0021821054608992204
1560,1760.000,0.004006586665237649
1561,1761.000,0.00222375539232418
1562,1762.000,0.004110072523085213
1563,1763.000,-0.0026579150509391
1564,1764.000,0.001079041403670641
1565,1765.000,-0.0015710910532439532
1566,1766.000,-0.00010661741269641593
1567,1767.000,0.0016678297708424563
1568,1768.000,0.0027946730492176557
1569,1769.000,0.0017185893650905001
1570,1770.000,0.0035156329338938224
1571,1771.000,0.0012189791394098622
1572,1772.000,0.0022200311598581175
1573,1773.000,0.0019767495947545215
1574,1774.000,0.002984407671725743
1575,1775.000,-0.0005528885423423098
1576,1776.000,0.0017712557940740426
1577,1777.000,0.00020587264827532712
1578,1778.000,-0.00242212950354138
1579,1779.000,0.0015216490802235443
1580,1780.000,-3.366673397741295e-05
1581,1781.000,0.0005663434579614984
1582,1782.000,0.00013872655714422077
1583,1783.000,0.00217766415779852
1584,1784.000,-0.0003951175716894921
1585,1785.000,0.0025906971582688202
1586,1786.000,-0.00036897740256400675
1587,1787.000,0.0006817074318377234
1588,1788.000,-0.00028537836663419927
1589,1789.000,0.0033660841842334307
1590,1790.000,0.0006401721309402158
1591,1791.000,0.0015290257436164963
1592,1792.000,0.0023373989635315316
1593,1793.000,0.0018617792696676233
1594,1794.000,-0.0010366668435542886
1595,1795.000,0.0023330921308572653
1596,1796.000,0.0030265334458072406
1597,1797.000,0.0022744630249320326
1598,1798.000,-6.689573050109455e-05
1599,1799.000,0.002701021167965537
1600,1800.000,-0.002615558441207541
1601,1801.000,-0.00017545808313581613
1602,1802.000,-9.143170208031551e-05
1603,1803.000,-5.3309178726755164e-05
1604,1804.000,0.00016347478415064675
1605,1805.000,-0.00014342420433653054
1606,1806.000,0.000914266948677153
1607,1807.000,0.003951538503619165
1608,1808.000,0.0015590523285092467
1609,1809.000,-0.004300711278132626
1610,1810.000,0.0007679105332386852
1611,1811.000,0.0023015073265968437
1612,1812.000,0.0024247801770291904
1613,1813.000,0.00047457006873204724
1614,1814.000,0.0026217576223418588
1615,1815.000,6.853708849307139e-05
1616,1816.000,0.0007949847522114851
1617,1817.000,0.000776299976236817
1618,1818.000,0.000177768329150617
1619,1819.000,0.001219959797273833
1620,1820.000,0.0018771359813178074
1621,1821.000,0.0010445042334902687
1622,1822.000,0.0012303773188345763
1623,1823.000,0.0004061885502405178
1624,1824.000,-0.0005117799567324325
1625,1825.000,0.0001209074935870401
1626,1826.000,0.00313784063272018
1627,1827.000,0.0012955472930432624
1628,1828.000,0.0001776269305054908
1629,1829.000,0.0010561732432820396
1630,1830.000,-0.0010763611277938728
1631,1831.000,-0.0011475384974467167
1632,1832.000,0.0019528781023316843
1633,1833.000,0.005859454356152978
1634,1834.000,4.973705215288844e-05
1635,1835.000,-0.004696127707982976
1636,1836.000,0.0014060955250903794
1637,1837.000,0.0015841047673000644
1638,1838.000,0.0009365314092824427
1639,1839.000,0.004838023295340792
1640,1840.000,0.0018692576519077375
1641,1841.000,-0.0012698965080926682
1642,1842.000,0.001141804136802836
1643,1843.000,0.0006373983241111038
1644,1844.000,-0.0017170793283346427
1645,1845.000,0.00031222962293272447
1646,1846.000,-5.6084560151024517e-05
1647,1847.000,-0.0007758414541270092
1648,1848.000,-0.0028617593057327843
1649,1849.000,-0.00023834520928543845
1650,1850.000,0.0005155426093203334
1651,1851.000,0.0015210214465938418
1652,1852.000,0.0007713513385764325
1653,1853.000,-0.0021282524170051316
1654,1854.000,-0.00011784616568220379
1655,1855.000,-0.0013530505634310205
1656,1856.000,0.004871866069056792
1657,1857.000,0.00012364886375591162
1658,1858.000,-0.0008328691967772607
1659,1859.000,0.00145412414149759
1660,1860.000,0.0030831070752141247
1661,1861.000,0.0008876112570971652
1662,1862.000,-0.0007361248106361913
1663,1863.000,0.003345833945753368
1664,1864.000,-0.0031514983561956294
1665,1865.000,-0.00011747928501055124
1666,1866.000,-0.0001359398386348188
1667,1867.000,0.0015615316860439423
1668,1868.000,0.0005255995485900532
1669,1869.000,-0.0014223673914459905
1670,1870.000,0.000980994512415447
1671,1871.000,0.00013982310521176938
1672,1872.000,-0.0015179972791347178
1673,1873.000,0.00024204991677155042
1674,1874.000,0.003100868823507579
1675,1875.000,0.0029363885028894764
1676,1876.000,0.0022452366492982253
1677,1877.000,0.002590192657980419
1678,1878.000,0.0017371673835135028
1679,1879.000,0.0004256332258381022
1680,1880.000,-0.00022375249120557987
1681,1881.000,0.0004488279572623291
1682,1882.000,-0.0011742127692495605
1683,1883.000,-0.00011166399017558495
1684,1884.000,-0.0009560034828357644
1685,1885.000,0.000248915151657409
1686,1886.000,-0.0005573115801391853
1687,1887.000,0.0025315159992814356
1688,1888.000,0.0012919408402949663
1689,1889.000,0.00012606933143172397
1690,1890.000,0.00016033661600213384
1691,1891.000,0.00041786385841291793
1692,1892.000,0.0007008356138086891
1693,1893.000,-0.0002863108418863565
1694,1894.000,-0.004262573323746525
1695,1895.000,-0.00021655848085087555
1696,1896.000,-8.300478371743979e-05
1697,1897.000,0.0013962612335759027
1698,1898.000,-0.0024554929704914954
1699,1899.000,0.001591440176299895
1700,1900.000,0.00033826775829201637
1701,1901.000,0.0032821714889482876
1702,1902.000,-0.0015519846006861583
1703,1903.000,0.0017774483619086995
1704,1904.000,-0.0027669752905625624
1705,1905.000,-0.001535338925440203
1706,1906.000,0.0007274072220072767
1707,1907.000,-0.0019579747519368556
1708,1908.000,0.0009043936072027749
1709,1909.000,0.001598930840382236
1710,1910.000,0.000672649415735799
1711,1911.000,-0.002737821346305991
1712,1912.000,0.0020136480278327915
1713,1913.000,-0.0005169918667031187
1714,1914.000,0.001453114826001756
1715,1915.000,-0.0022827740530913304
1716,1916.000,-0.0033700379926734285
1717,1917.000,0.0027111048753529314
1718,1918.000,-0.0013539084028727213
1719,1919.000,0.0037163938164504686
1720,1920.000,-0.0012108923336009649
1721,1921.000,-0.002055959919061883
1722,1922.000,-0.0022965766393212524
1723,1923.000,0.0011520525468436842
1724,1924.000,-0.0003038014448937229
1725,1925.000,-0.0003754143475670779
1726,1926.000,0.0038977037250289004
1727,1927.000,-0.001612336943551548
1728,1928.000,0.0020859701281649976
1729,1929.000,-0.002864441471123741
1730,1930.000,-0.0004473509870047751
1731,1931.000,0.001394408249994784
1732,1932.000,-0.0006472530853626255
1733,1933.000,0.0027049863134906674
1734,1934.000,-0.0003125221827129521
1735,1935.000,-0.00045993452166390994
1736,1936.000,-0.0016161553368080174
1737,1937.000,-0.00022609674847577857
1738,1938.000,7.958948682124086e-06
1739,1939.000,0.0008588358455164109
1740,1940.000,0.0035622296134649777
1741,1941.000,0.0004350408020649488
1742,1942.000,0.0014110211736614675
1743,1943.000,-0.002091766527858076
1744,1944.000,0.0016413198867740353
1745,1945.000,0.0016686057313359775
1746,1946.000,-0.002674903673010317
1747,1947.000,0.0006356590263003423
1748,1948.000,0.00029522021620543106
1749,1949.000,0.0007680938161149958
1750,1950.000,0.0009858767021601932
1751,1951.000,-0.002155552118004458
1752,1952.000,0.00047184601910990604
1753,1953.000,0.002357691716080841
1754,1954.000,-0.0030744672715859807
1755,1955.000,-0.0016929590498769506
1756,1956.000,-0.0015421446406291156
1757,1957.000,0.004153714317384166
1758,1958.000,-0.003745059006370211
1759,1959.000,0.0002806863879844558
1760,1960.000,-0.004298546839629392
1761,1961.000,0.0011995001376378484
1762,1962.000,-0.0007331418975701888
1763,1963.000,-0.0008702658317633025
1764,1964.000,-0.00031856610876475946
1765,1965.000,-0.0017583541911931316
1766,1966.000,0.0037308199423626838
1767,1967.000,-0.0025035870900572497
1768,1968.000,9.998112394642974e-05
1769,1969.000,-0.00356745569479208
1770,1970.000,0.00045172174824242796
1771,1971.000,-0.002237269827640315
1772,1972.000,0.0022289304567681854
1773,1973.000,0.0005275488973947994
1774,1974.000,-0.002592621313551049
1775,1975.000,0.0006687012758383673
1776,1976.000,0.0009490072416328178
1777,1977.000,-0.0013039269735514187
1778,1978.000,0.00042978165423954336
1779,1979.000,0.0003072661840778613
1780,1980.000,-0.0032529989644688607
1781,1981.000,-0.0010802349467998796
1782,1982.000,0.0020796922172728145
1783,1983.000,-0.0005095374183093958
1784,1984.000,-0.0033320146688147786
1785,1985.000,-0.0032022711770429944
1786,1986.000,-5.351734020655114e-06
1787,1987.000,-0.0013461761958932495
1788,1988.000,-0.0013873131242159583
1789,1989.000,-0.0010299392282851786
1790,1990.000,-0.002866852806147641
1791,1991.000,-0.0002612738341280804
1792,1992.000,-0.0019033451177111827
1793,1993.000,0.0012226199183325876
1794,1994.000,0.0015247907124814031
1795,1995.000,0.0017973021173281526
1796,1996.000,0.00021305752597811908
1797,1997.000,-0.0016451549707391724
1798,1998.000,-0.0005061992765759049
1799,1999.000,0.0005592643930532774
1800,2000.000,0.002328606424173129
