pixel_index,raman_shift_cm-1,intensity
0,200.000,-1.6895454545454631
1,201.000,-2.8267504335664415
2,202.000,-3.3072933100233186
3,203.000,-3.362483472027982
4,204.000,-3.2236303076923196
5,205.000,-3.1220432051282136
6,206.000,-7.046513149184168
7,207.000,-7.244518545454568
8,208.000,0.5507611188811206
9,209.000,0.1685959860139885
10,210.000,0.14225828671328955
11,211.000,-7.85224455944058
12,212.000,-9.011230307692331
13,213.000,-11.385306424242454
14,214.000,-14.326134981352023
15,215.000,-7.995275755244777
16,216.000,-7.3176434592074795
17,217.000,-5.674635263403279
18,218.000,1.4067156969697008
19,219.000,8.100120897435922
20,220.000,4.072569466200478
21,221.000,-4.760311801864816
22,222.000,-9.487128498834526
23,223.000,-10.658042293706323
24,224.000,-8.44944446620049
25,225.000,-2.2791148648018695
26,226.000,-0.5156744125874133
27,227.000,-1.2924198787878813
28,228.000,-1.913463627039632
29,229.000,5.303523948717965
30,230.000,2.1405806433566483
31,231.000,1.827372228438231
32,232.000,8.781763072261096
33,233.000,9.42092028205131
34,234.000,5.050221065268078
35,235.000,3.500828484848494
36,236.000,5.4919786969697135
37,237.000,4.978567599067613
38,238.000,-6.769405356643375
39,239.000,-9.10655158741261
40,240.000,-17.29656889976695
41,241.000,-13.533866337995374
42,242.000,-9.670667848484873
43,243.000,-8.44998834731937
44,244.000,-6.177772890442909
45,245.000,0.6196373053613071
46,246.000,14.013017065268105
47,247.000,16.857704752913797
48,248.000,10.007677296037324
49,249.000,5.265151142191157
50,250.000,-0.3428671841491857
51,251.000,-6.429500596736617
52,252.000,-10.00672575990679
53,253.000,-3.7258013403263512
54,254.000,4.2882336829836945
55,255.000,14.027599111888152
56,256.000,18.04698827039632
57,257.000,11.091924268065299
58,258.000,9.951567983683011
59,259.000,8.502139270396295
60,260.000,0.9371846293706303
61,261.000,-5.282793498834516
62,262.000,-4.910177648018662
63,263.000,-3.025129575757584
64,264.000,2.572088025641033
65,265.000,6.198695773892791
66,266.000,4.244707906759918
67,267.000,4.438021153846165
68,268.000,8.069298037296061
69,269.000,4.082534503496513
70,270.000,0.6423797599067602
71,271.000,8.230132680652703
72,272.000,4.385578659673672
73,273.000,3.7282248368298454
74,274.000,5.000655594405609
75,275.000,-0.42479964801865
76,276.000,5.471014769230784
77,277.000,4.06929706060607
78,278.000,1.350619055944058
79,279.000,-3.159867706293719
80,280.000,4.195780142191152
81,281.000,3.2911848181818253
82,282.000,8.272632696969717
83,283.000,16.734552440559483
84,284.000,18.681534965035013
85,285.000,19.597142002331054
86,286.000,24.253066578088642
87,287.000,19.38280072027977
88,288.000,15.623063575757616
89,289.000,8.47315969696972
90,290.000,5.828507829836844
91,291.000,0.08387737762237657
92,292.000,7.136814235431256
93,293.000,7.171405107226127
94,294.000,1.4645113682983724
95,295.000,-0.6569318461538476
96,296.000,-3.0895886526806615
97,297.000,-5.698774006993023
98,298.000,-3.5537523263403363
99,299.000,-10.817641286713316
100,300.000,-10.340772363636392
101,301.000,-2.87696392307693
102,302.000,0.027672146853148227
103,303.000,2.6884829860139945
104,304.000,-1.7032709720279762
105,305.000,-6.9582518065268255
106,306.000,-11.438193375291407
107,307.000,-13.740899237762273
108,308.000,-15.729748410256452
109,309.000,-19.430286554778608
110,310.000,-13.02532769696973
111,311.000,-10.43391774358977
112,312.000,-9.345741372960399
113,313.000,-3.153796787878795
114,314.000,1.0275251398601437
115,315.000,4.074226794871807
116,316.000,2.1808361212121277
117,317.000,-0.762426811188814
118,318.000,0.14250189277389325
119,319.000,2.778645004662013
120,320.000,4.8892141165501295
121,321.000,4.816509552447567
122,322.000,1.7387134708624754
123,323.000,4.991848321678335
124,324.000,11.414993820512853
125,325.000,10.577438706293735
126,326.000,5.573525307692321
127,327.000,3.3939510326340416
128,328.000,7.233520717948737
129,329.000,5.818170573426588
130,330.000,5.06223374592076
131,331.000,2.854723403263411
132,332.000,-2.951414072261082
133,333.000,0.40232196969696987
134,334.000,5.5082178181818335
135,335.000,4.557111911421923
136,336.000,1.8934055641025682
137,337.000,6.1850199743589895
138,338.000,8.405475881118903
139,339.000,5.625089424242439
140,340.000,2.831217990675997
141,341.000,2.0817805734265793
142,342.000,0.1737732773892775
143,343.000,-0.13834439860139908
144,344.000,1.5675828368298421
145,345.000,0.48363171561771834
146,346.000,-5.654918372960389
147,347.000,-9.13695422610725
148,348.000,-12.633984030303065
149,349.000,-13.621551370629408
150,350.000,-14.567043361305402
151,351.000,-7.530358874125895
152,352.000,-5.527497906759922
153,353.000,0.13914075524475616
154,354.000,5.52433402331004
155,355.000,6.281989561771581
156,356.000,2.745251699300708
157,357.000,-6.249793811188828
158,358.000,-10.8561501701632
159,359.000,-13.953816365967404
160,360.000,-12.447132550116585
161,361.000,-2.37971648484849
162,362.000,-1.9120514312354353
163,363.000,1.4713772657342705
164,364.000,4.687764750582764
165,365.000,3.3134536107226205
166,366.000,-0.9870259906759937
167,367.000,-4.242952804195816
168,368.000,-4.311894321678335
169,369.000,-3.2835222261072348
170,370.000,8.04374738694641
171,371.000,9.544593759906785
172,372.000,6.788313557109575
173,373.000,7.0162478787878975
174,374.000,5.3880218857808995
175,375.000,6.8951426503496664
176,376.000,8.541985109557135
177,377.000,9.654677419580445
178,378.000,8.349704268065292
179,379.000,5.993024671328689
180,380.000,9.343156689976716
181,381.000,3.6197225198135285
182,382.000,2.4751195850815915
183,383.000,-5.005423312354327
184,384.000,-3.8675059254079374
185,385.000,1.597958529137534
186,386.000,1.1807802121212152
187,387.000,1.633883405594411
188,388.000,-2.526203582750589
189,389.000,-4.748638631701646
190,390.000,-0.972562743589747
191,391.000,2.854321536130543
192,392.000,6.586606515151533
193,393.000,3.4175580536130625
194,394.000,9.252205480186506
195,395.000,5.054232501165515
196,396.000,-3.4453868927739015
197,397.000,-5.159597256410271
198,398.000,-7.805432254079276
199,399.000,-9.801277209790237
200,400.000,-4.81621210722612
201,401.000,0.06900899533799576
202,402.000,3.4180508018648124
203,403.000,0.973059389277394
204,404.000,-2.5633953986014038
205,405.000,-11.233693624708657
206,406.000,-15.418829023310067
207,407.000,-15.179363974359015
208,408.000,-18.666425505827554
209,409.000,-17.72252367832173
210,410.000,-17.051236149184195
211,411.000,-16.039445193473238
212,412.000,-10.4651325710956
213,413.000,-3.0538135524475596
214,414.000,-1.1684483170163213
215,415.000,8.335034979021003
216,416.000,12.65692043356647
217,417.000,20.071016177156235
218,418.000,18.460708412587465
219,419.000,18.834331592074648
220,420.000,11.508159603729636
221,421.000,-0.598756827505829
222,422.000,-1.7786798018648078
223,423.000,-2.107379195804202
224,424.000,-8.616468333333358
225,425.000,-5.5317466363636525
226,426.000,-7.720487682983705
227,427.000,0.14515140326340337
228,428.000,5.289572291375308
229,429.000,0.36182686247086515
230,430.000,-3.0634893310023386
231,431.000,-14.137380342657384
232,432.000,-8.755644792540817
233,433.000,-4.767998920745933
234,434.000,-4.068047002331011
235,435.000,-3.987461748251758
236,436.000,-5.058499622377635
237,437.000,-6.389718524475539
238,438.000,-6.653785538461554
239,439.000,-16.188241501165543
240,440.000,-21.390317419580477
241,441.000,-25.72393134965042
242,442.000,-22.82045530769237
243,443.000,-18.102687090909136
244,444.000,-16.82029364568769
245,445.000,-16.289021682983726
246,446.000,-14.006943431235468
247,447.000,-14.579895983683024
248,448.000,-12.356177862470897
249,449.000,-8.289370923076945
250,450.000,-10.658569354312384
251,451.000,-4.070226867132878
252,452.000,-3.7383157132867226
253,453.000,3.614041729603741
254,454.000,4.39310892540794
255,455.000,-0.19576817482517495
256,456.000,0.9691112820512853
257,457.000,-2.122760804195809
258,458.000,-2.2700189510489572
259,459.000,-2.9787857016317116
260,460.000,-6.833591202797223
261,461.000,1.1995112610722636
262,462.000,4.0799744801864914
263,463.000,5.885668242424259
264,464.000,6.156241081585099
265,465.000,1.2859849860139891
266,466.000,2.300142696969703
267,467.000,-3.1045881212121307
268,468.000,-2.8006650303030387
269,469.000,-2.7223354382284457
270,470.000,0.490835724941725
271,471.000,12.055071013986048
272,472.000,13.00414295337999
273,473.000,11.19536735897439
274,474.000,11.506940379953413
275,475.000,7.623004531468553
276,476.000,-1.556424680652686
277,477.000,-6.312660703962721
278,478.000,-7.838702762237783
279,479.000,-11.955123974359006
280,480.000,-13.471086962704
281,481.000,-5.4391023986014115
282,482.000,-6.694337414918433
283,483.000,-4.113724484848495
284,484.000,-5.421061004662018
285,485.000,-9.389038687645712
286,486.000,-10.084660526806555
287,487.000,-2.251150491841498
288,488.000,-1.2255757086247128
289,489.000,0.7572925757575768
290,490.000,3.9120938414918527
291,491.000,7.573518986014006
292,492.000,12.986983130536164
293,493.000,12.935222016317054
294,494.000,3.1725075664335747
295,495.000,-3.3623734778554866
296,496.000,-10.640788897435925
297,497.000,-12.638359498834536
298,498.000,-15.563759680652723
299,499.000,-18.964138834498883
300,500.000,-18.149523536130587
301,501.000,-12.90057373659677
302,502.000,-10.03857144289047
303,503.000,-12.843751230769266
304,504.000,-14.187993594405633
305,505.000,-6.25367089510491
306,506.000,-9.966997270396298
307,507.000,-9.49084903496506
308,508.000,-10.253955254079282
309,509.000,-11.830724072261106
310,510.000,-5.089096524475538
311,511.000,-0.9537319813519849
312,512.000,-9.797503076923107
313,513.000,-3.8126655571095696
314,514.000,5.861902566433582
315,515.000,14.788796944055985
316,516.000,12.566875848484884
317,517.000,9.030329428904452
318,518.000,14.454506552447592
319,519.000,12.585614729603765
320,520.000,9.179310668997694
321,521.000,2.8414900722610796
322,522.000,-4.647502554778569
323,523.000,-0.6027738694638716
324,524.000,-5.181459447552461
325,525.000,-9.080849696969722
326,526.000,-11.066759351981382
327,527.000,-16.740645780885828
328,528.000,-12.223092892773925
329,529.000,-18.75617618648024
330,530.000,-20.803034375291432
331,531.000,-16.318801477855523
332,532.000,-10.536736867132895
333,533.000,-3.3593503286713378
334,534.000,2.8642281911421983
335,535.000,9.602457603729631
336,536.000,13.927899284382324
337,537.000,7.1857199067599264
338,538.000,7.629020589743611
339,539.000,5.384126818181834
340,540.000,-2.888607724941733
341,541.000,-5.35941221445223
342,542.000,-7.056122226107247
343,543.000,-4.115268284382296
344,544.000,-0.15541483216783392
345,545.000,1.9960387692307737
346,546.000,8.87171662470865
347,547.000,8.586857212121236
348,548.000,5.176162804195819
349,549.000,4.790932109557122
350,550.000,-1.014245417249421
351,551.000,-1.3921451771561826
352,552.000,-4.854797543123557
353,553.000,-5.163170526806541
354,554.000,-4.720479944055957
355,555.000,-0.8525615547785566
356,556.000,7.643606925407948
357,557.000,5.991717277389293
358,558.000,3.249290790209799
359,559.000,2.869773790209798
360,560.000,6.950292967365987
361,561.000,5.3444430209790355
362,562.000,-0.6102990442890475
363,563.000,0.09540412820512678
364,564.000,4.68758723776225
365,565.000,4.237352603729613
366,566.000,7.174179319347338
367,567.000,6.601417041958058
368,568.000,12.581395186480218
369,569.000,15.796184251748294
370,570.000,22.984735202797264
371,571.000,22.04621272727279
372,572.000,19.989817459207515
373,573.000,20.883633510489567
374,574.000,17.86172196270401
375,575.000,8.63601559906762
376,576.000,1.096637895104896
377,577.000,-7.149764459207482
378,578.000,-3.7819919883449997
379,579.000,0.6414696433566451
380,580.000,-0.7857017412587426
381,581.000,2.364450097902105
382,582.000,3.178882438228446
383,583.000,4.6999963566433705
384,584.000,5.441526298368312
385,585.000,8.95433636363639
386,586.000,0.03468176223776265
387,587.000,-5.142481930069946
388,588.000,-5.022043095571109
389,589.000,2.8787246363636427
390,590.000,-2.100680400932408
391,591.000,2.528259911421917
392,592.000,5.952099622377638
393,593.000,8.533978074592099
394,594.000,11.89643459673663
395,595.000,13.935388186480221
396,596.000,6.639683449883465
397,597.000,6.213097254079269
398,598.000,4.118652107226117
399,599.000,11.03616200000003
400,600.000,7.061280848484866
401,601.000,8.55169114918417
402,602.000,11.52905184149187
403,603.000,15.17730475058279
404,604.000,19.266429410256457
405,605.000,24.41781825641032
406,606.000,29.105695184149262
407,607.000,30.62378694638703
408,608.000,32.27103369930078
409,609.000,36.977560636363734
410,610.000,35.18025043589753
411,611.000,39.03924527039637
412,612.000,48.12319265268078
413,613.000,54.29001232634046
414,614.000,70.52527494172512
415,615.000,86.70753092307716
416,616.000,106.005913727273
417,617.000,126.17262273892806
418,618.000,144.07713423310062
419,619.000,155.21010296736637
420,620.000,155.55657840559482
421,621.000,155.2494523822848
422,622.000,142.96678007226143
423,623.000,126.2890092703966
424,624.000,109.80068705128235
425,625.000,85.284698769231
426,626.000,65.4134615337997
427,627.000,52.79324854312368
428,628.000,39.5046334965036
429,629.000,27.180535139860204
430,630.000,16.57176679720284
431,631.000,16.888951650349696
432,632.000,15.209226771561813
433,633.000,18.898768543123595
434,634.000,13.051950685314718
435,635.000,8.065393899766919
436,636.000,8.784859939393963
437,637.000,11.800398358974391
438,638.000,13.388736247086285
439,639.000,12.946483046620084
440,640.000,5.180965988345003
441,641.000,5.644387487179504
442,642.000,0.9607680000000038
443,643.000,-6.57999360139862
444,644.000,-13.491673825174864
445,645.000,-13.104561664335701
446,646.000,-8.913148030303056
447,647.000,-2.312599724941731
448,648.000,3.8986220606060717
449,649.000,10.50311085081588
450,650.000,7.197771198135218
451,651.000,12.001310568764602
452,652.000,9.338261836829862
453,653.000,10.815569314685344
454,654.000,11.656000261072293
455,655.000,10.100589000000028
456,656.000,8.585075988345011
457,657.000,11.534248386946418
458,658.000,4.5987460885781
459,659.000,3.53654240093241
460,660.000,1.4065537202797231
461,661.000,3.0330954988345074
462,662.000,0.980413473193475
463,663.000,0.9445081678321703
464,664.000,-1.8735590699300748
465,665.000,-6.588323762237781
466,666.000,-4.363954773892786
467,667.000,1.5041720629370676
468,668.000,-2.3212970792540863
469,669.000,-3.5856120582750686
470,670.000,-3.6122773519813607
471,671.000,-3.0889996666666746
472,672.000,-4.43003050815852
473,673.000,-5.003837801864815
474,674.000,-2.5849415757575827
475,675.000,-4.152270543123554
476,676.000,3.9870026247086354
477,677.000,12.150144298368334
478,678.000,9.043982275058301
479,679.000,6.103810547785564
480,680.000,4.40488742657344
481,681.000,3.2098795850815938
482,682.000,1.0849501771561798
483,683.000,1.4130647226107262
484,684.000,3.821540118881128
485,685.000,3.884426888111898
486,686.000,10.638831368298398
487,687.000,7.522983701631723
488,688.000,2.8245970256410327
489,689.000,1.693368083916088
490,690.000,1.7389029603729655
491,691.000,-5.020789778554795
492,692.000,-8.348830762237785
493,693.000,-7.693184149184171
494,694.000,0.5834071841491859
495,695.000,3.2916228321678416
496,696.000,8.782359435897462
497,697.000,7.044697547785568
498,698.000,7.940216547785569
499,699.000,3.9033502470862578
500,700.000,2.9840768974359038
501,701.000,1.417650223776226
502,702.000,0.23577789510489477
503,703.000,0.7318833030303042
504,704.000,6.30171856177158
505,705.000,5.475568512820528
506,706.000,5.260167247086262
507,707.000,2.019867116550121
508,708.000,-2.2073451421911496
509,709.000,-6.611592876456896
510,710.000,-1.795904820512826
511,711.000,1.0339078508158537
512,712.000,-6.155347680652698
513,713.000,-3.2737991701631812
514,714.000,5.44375394405596
515,715.000,5.845202121212136
516,716.000,9.428339405594432
517,717.000,6.939646125874146
518,718.000,6.624666438228454
519,719.000,8.204203799533822
520,720.000,11.76987311888115
521,721.000,6.0324895314685465
522,722.000,3.3482293333333413
523,723.000,3.0768373916083998
524,724.000,5.520204195804212
525,725.000,0.39046743356643354
526,726.000,2.194839368298374
527,727.000,-1.1380252144522185
528,728.000,-0.6761256550116572
529,729.000,-2.247347237762244
530,730.000,-6.128811741258758
531,731.000,-4.936392783216796
532,732.000,-2.9386951561771624
533,733.000,-7.897040815850837
534,734.000,-7.419324601398621
535,735.000,-11.030102540792571
536,736.000,-11.88205330303034
537,737.000,-2.134185428904436
538,738.000,4.965861825174837
539,739.000,10.996524496503525
540,740.000,17.0613887505828
541,741.000,24.268953102564172
542,742.000,26.55549366666674
543,743.000,23.681399899766966
544,744.000,20.072907286713342
545,745.000,7.070214699300717
546,746.000,-0.03373676456876584
547,747.000,-2.4429487435897514
548,748.000,-2.6482024498834598
549,749.000,0.559704074592076
550,750.000,3.6336632167832272
551,751.000,3.156178620046628
552,752.000,5.406642713286727
553,753.000,6.612838095571113
554,754.000,6.508271983683001
555,755.000,0.6689980372960367
556,756.000,5.02869772727274
557,757.000,2.2284709114219163
558,758.000,7.963792655011676
559,759.000,12.345030634032668
560,760.000,14.109443689976729
561,761.000,16.150165062937106
562,762.000,16.7706672564103
563,763.000,22.536454386946446
564,764.000,20.714878687645744
565,765.000,19.848770263403317
566,766.000,18.418192300699353
567,767.000,14.135093391608432
568,768.000,7.746650939393961
569,769.000,-1.4520437109557158
570,770.000,-4.743226396270412
571,771.000,-6.04271153146855
572,772.000,-7.084018293706313
573,773.000,-1.0424841235431268
574,774.000,-0.22597380652680776
575,775.000,5.650689571095586
576,776.000,6.548171916083934
577,777.000,12.786621759906794
578,778.000,15.077875174825216
579,779.000,14.426145962704
580,780.000,19.346290853146904
581,781.000,21.22829567365973
582,782.000,20.97355121212127
583,783.000,25.188093319347388
584,784.000,26.10736477156184
585,785.000,27.6299913263404
586,786.000,32.39724586480195
587,787.000,41.57134521678333
588,788.000,45.59385742890454
589,789.000,48.24762370629384
590,790.000,56.83179044289059
591,791.000,67.9717693310025
592,792.000,74.92778348951069
593,793.000,87.4734476713289
594,794.000,90.18598604428928
595,795.000,92.46792202797228
596,796.000,97.72269140792568
597,797.000,93.33552164568789
598,798.000,85.58708728671351
599,799.000,76.9626941981354
600,800.000,68.0827435291377
601,801.000,60.02024146153862
602,802.000,45.80492941491853
603,803.000,39.91249662237773
604,804.000,28.96013386247094
605,805.000,20.31695139860145
606,806.000,15.893040032634072
607,807.000,13.657495876456911
608,808.000,10.886713358974387
609,809.000,12.227070867132898
610,810.000,10.91729590209793
611,811.000,17.419487606060652
612,812.000,15.477117321678364
613,813.000,21.57059117482523
614,814.000,23.819171270396332
615,815.000,20.57443458741264
616,816.000,18.609346666666717
617,817.000,13.696934885780921
618,818.000,7.928449664335684
619,819.000,11.428943093240123
620,820.000,6.932807291375309
621,821.000,9.62622923310026
622,822.000,4.01157555710957
623,823.000,3.4354521165501266
624,824.000,3.6804226526806634
625,825.000,3.5079495524475632
626,826.000,-1.5491879813519858
627,827.000,-7.949805419580442
628,828.000,-2.1300568205128263
629,829.000,-1.9107297832167875
630,830.000,-5.472698333333347
631,831.000,-5.1283538321678455
632,832.000,-9.506153818181843
633,833.000,-8.010866911421934
634,834.000,-5.665083787878804
635,835.000,1.0678828717948754
636,836.000,-0.9767722703962738
637,837.000,-0.13487357808857858
638,838.000,6.9519834522144714
639,839.000,9.344091027972055
640,840.000,2.390544386946394
641,841.000,-1.0416822051282106
642,842.000,1.441280466200468
643,843.000,4.0730456200466305
644,844.000,5.364328920745933
645,845.000,7.208228300699319
646,846.000,7.172468188811208
647,847.000,9.705319743589769
648,848.000,12.159262503496537
649,849.000,12.51039950582754
650,850.000,-0.37899762237762435
651,851.000,0.6074679860139862
652,852.000,4.106792361305373
653,853.000,-1.8400421538461598
654,854.000,-0.47652425174825375
655,855.000,-0.4457866223776237
656,856.000,2.259880582750589
657,857.000,4.572472491841506
658,858.000,5.035591815850829
659,859.000,6.195679389277407
660,860.000,5.132744708624724
661,861.000,7.933507787878811
662,862.000,-0.3222565058275064
663,863.000,-7.54553719813522
664,864.000,-12.461221668997705
665,865.000,-11.401413864801896
666,866.000,-14.69328263869468
667,867.000,-12.916214666666704
668,868.000,-9.23565349417252
669,869.000,-2.6500711631701686
670,870.000,3.81597857808859
671,871.000,5.202849655011671
672,872.000,5.348173000000015
673,873.000,1.8481802587412637
674,874.000,1.0542851724941742
675,875.000,5.058646480186494
676,876.000,3.038078433566442
677,877.000,1.5519084312354332
678,878.000,4.9883518461538605
679,879.000,7.243036808857829
680,880.000,7.729866659673682
681,881.000,3.3502741002331105
682,882.000,3.1940443589743692
683,883.000,-2.0787319393939447
684,884.000,-5.212870097902112
685,885.000,-8.932917671328696
686,886.000,-15.261465822843867
687,887.000,-18.686087692307744
688,888.000,-15.317540666666707
689,889.000,-15.644634242424285
690,890.000,-9.092873172494196
691,891.000,-6.845328601398619
692,892.000,0.7325449580419601
693,893.000,5.81468461305363
694,894.000,11.608505536130568
695,895.000,13.243264118881154
696,896.000,13.41751218181822
697,897.000,11.147864836829866
698,898.000,11.417352333333364
699,899.000,9.299963993007017
700,900.000,9.478076375291401
701,901.000,3.381965883449892
702,902.000,-0.2544804755244776
703,903.000,-0.5238169860139887
704,904.000,2.91828334265735
705,905.000,6.019407524475541
706,906.000,9.195882034965061
707,907.000,-0.9459233356643386
708,908.000,1.9900657319347363
709,909.000,0.23738646153846332
710,910.000,-0.2231706969696985
711,911.000,-0.7392687878787907
712,912.000,-2.363982009324017
713,913.000,5.02236103496505
714,914.000,12.274636062937097
715,915.000,21.959675680652744
716,916.000,19.92284038927744
717,917.000,14.888076277389317
718,918.000,19.472225962704016
719,919.000,10.634772272727302
720,920.000,4.786715358974371
721,921.000,-2.448521902097909
722,922.000,-8.187638582750608
723,923.000,-7.469199149184172
724,924.000,-5.122116200466216
725,925.000,-4.1046462051282155
726,926.000,-0.7464905198135205
727,927.000,2.163708815850823
728,928.000,2.474476086247094
729,929.000,-0.5623375221445244
730,930.000,-2.2045248741258807
731,931.000,-5.829296025641042
732,932.000,-3.2515241002331106
733,933.000,1.0129230233100261
734,934.000,2.9812671678321747
735,935.000,4.8472602773892906
736,936.000,6.2146954848485025
737,937.000,6.891791093240112
738,938.000,7.875765925407945
739,939.000,10.945139296037327
740,940.000,6.729794564102582
741,941.000,5.25399265734267
742,942.000,6.9038828344988525
743,943.000,7.262427631701652
744,944.000,4.40924270862472
745,945.000,4.850259291375304
746,946.000,2.14200657575758
747,947.000,0.8010954382284386
748,948.000,2.688049319347325
749,949.000,7.168314219114238
750,950.000,8.972373062937084
751,951.000,17.091164403263452
752,952.000,17.388220027972075
753,953.000,17.102208829836876
754,954.000,12.55288034731938
755,955.000,6.616336650349668
756,956.000,2.386799543123548
757,957.000,-5.081637424242438
758,958.000,-6.932443734265754
759,959.000,-4.134828109557121
760,960.000,-3.749659972027982
761,961.000,0.3374908041958049
762,962.000,0.7756029930069936
763,963.000,5.980842878787895
764,964.000,8.33058030769233
765,965.000,14.254101006993046
766,966.000,22.098073524475588
767,967.000,22.802991641025706
768,968.000,21.632102792540852
769,969.000,19.096597282051334
770,970.000,14.548612466200504
771,971.000,11.368117902097932
772,972.000,8.954824379953402
773,973.000,8.052626102564123
774,974.000,3.349093911421918
775,975.000,10.449632177156204
776,976.000,12.384492685314719
777,977.000,13.533435675990708
778,978.000,20.531629904428957
779,979.000,20.188381212121268
780,980.000,26.686840652680722
781,981.000,25.390564806526875
782,982.000,24.700398512820577
783,983.000,29.081894620046697
784,984.000,29.54674403729611
785,985.000,32.27888022843831
786,986.000,33.293244107226194
787,987.000,37.086946911422004
788,988.000,44.32675182284393
789,989.000,53.007934400932534
790,990.000,75.0819106013988
791,991.000,87.55900456177179
792,992.000,118.62218274825206
793,993.000,149.45826010023347
794,994.000,179.81567059673705
795,995.000,217.21517969230825
796,996.000,292.55205111421986
797,997.000,416.72815951981454
798,998.000,565.9835079254094
799,999.000,709.8115666293725
800,1000.000,813.8888301631723
801,1001.000,855.1627633566457
802,1002.000,832.772539920748
803,1003.000,729.5563151608411
804,1004.000,579.9616083822859
805,1005.000,420.3252772960384
806,1006.000,285.69589371328743
807,1007.000,202.45142366433618
808,1008.000,146.81026627738964
809,1009.000,118.64719698601428
810,1010.000,98.9029195407928
811,1011.000,88.3818962680655
812,1012.000,76.28106074825195
813,1013.000,64.18432206293723
814,1014.000,56.27504733100247
815,1015.000,52.63342827505841
816,1016.000,50.6130856736598
817,1017.000,52.272438349650486
818,1018.000,48.64884365501178
819,1019.000,58.80054398834514
820,1020.000,62.1074421351983
821,1021.000,66.85738785314703
822,1022.000,74.6265990955713
823,1023.000,89.92269948951072
824,1024.000,102.22837360372986
825,1025.000,120.81636884149215
826,1026.000,162.41331808857848
827,1027.000,221.26377847552504
828,1028.000,283.8358179533807
829,1029.000,342.89176412820603
830,1030.000,377.985346002332
831,1031.000,387.11863651515256
832,1032.000,373.78284841258846
833,1033.000,332.3913650186489
834,1034.000,272.11392817249487
835,1035.000,203.67572793706347
836,1036.000,151.66135037296075
837,1037.000,119.15219432634063
838,1038.000,98.52966074592099
839,1039.000,81.90710720979042
840,1040.000,66.76535073426591
841,1041.000,54.16426920046634
842,1042.000,47.91910755710968
843,1043.000,34.5142934079255
844,1044.000,27.025040076923148
845,1045.000,18.531961766899812
846,1046.000,13.016634349650381
847,1047.000,9.93204388811191
848,1048.000,13.81718602331006
849,1049.000,14.270896501165536
850,1050.000,19.832006151515202
851,1051.000,22.214896088578147
852,1052.000,23.479560512820576
853,1053.000,19.54716333100238
854,1054.000,19.528310741258796
855,1055.000,20.832819941725
856,1056.000,17.51580969463874
857,1057.000,12.87119561771565
858,1058.000,12.933668729603763
859,1059.000,11.876850806526837
860,1060.000,15.873337510489554
861,1061.000,11.826162202797235
862,1062.000,3.397829060606068
863,1063.000,4.514007391608402
864,1064.000,6.747050261072278
865,1065.000,14.786741543123584
866,1066.000,10.347093634032664
867,1067.000,9.875383303030329
868,1068.000,18.211249044289097
869,1069.000,18.26178086946392
870,1070.000,18.977504016317067
871,1071.000,12.427875780885813
872,1072.000,9.368687918414942
873,1073.000,11.381807370629403
874,1074.000,7.12680103030305
875,1075.000,2.6573812564102646
876,1076.000,-8.883905543123568
877,1077.000,-2.8171530489510563
878,1078.000,-2.4816187855477922
879,1079.000,-3.769914104895116
880,1080.000,-1.8864979324009383
881,1081.000,3.006080090909098
882,1082.000,6.35574270396272
883,1083.000,11.552197324009356
884,1084.000,11.11031544055947
885,1085.000,11.358506055944087
886,1086.000,6.919552559440579
887,1087.000,9.078670179487206
888,1088.000,2.9232802121212202
889,1089.000,6.949999678321697
890,1090.000,5.283676941724956
891,1091.000,3.117684363636374
892,1092.000,-4.011012300699311
893,1093.000,-4.648721713286726
894,1094.000,-7.256817682983704
895,1095.000,-2.359018881118888
896,1096.000,-4.121314398601409
897,1097.000,-1.6182884918414961
898,1098.000,0.33437666200466465
899,1099.000,0.05311309090909361
900,1100.000,-4.848882223776235
901,1101.000,-19.714727342657394
902,1102.000,-25.580236372960442
903,1103.000,-25.465003906759975
904,1104.000,-24.29127500000007
905,1105.000,-17.745315354312407
906,1106.000,-10.92807565268068
907,1107.000,0.2557824568764602
908,1108.000,3.246823878787888
909,1109.000,8.456253445221469
910,1110.000,5.697607930069944
911,1111.000,1.278246487179489
912,1112.000,5.351118750582765
913,1113.000,11.040728962703994
914,1114.000,6.815330470862488
915,1115.000,3.8861958671328773
916,1116.000,5.412713776223791
917,1117.000,7.534766501165522
918,1118.000,0.7584643496503514
919,1119.000,0.31109878554778714
920,1120.000,-10.967249620046653
921,1121.000,-10.492286298368327
922,1122.000,-8.487572039627064
923,1123.000,-3.7113978811188915
924,1124.000,-2.774797335664344
925,1125.000,1.2324047785547818
926,1126.000,3.7870824009324098
927,1127.000,14.240153002331041
928,1128.000,21.076332195804255
929,1129.000,24.189642941725005
930,1130.000,21.502129839160897
931,1131.000,20.985789410256466
932,1132.000,16.025035163170205
933,1133.000,9.466625538461562
934,1134.000,8.476300934731954
935,1135.000,6.4930070932401085
936,1136.000,1.065320678321679
937,1137.000,5.063572102564114
938,1138.000,5.76682596736598
939,1139.000,17.004744734265778
940,1140.000,17.421524867132913
941,1141.000,26.27764134265741
942,1142.000,33.54090789044298
943,1143.000,39.65216181585093
944,1144.000,48.48175346620059
945,1145.000,45.899051897436024
946,1146.000,46.80113095571107
947,1147.000,41.9908317948719
948,1148.000,43.149077487179596
949,1149.000,55.1031286550118
950,1150.000,63.667570561771726
951,1151.000,82.89240773193495
952,1152.000,102.09631819580446
953,1153.000,123.77412867599101
954,1154.000,134.69082931235468
955,1155.000,140.61013927738964
956,1156.000,135.4796638438232
957,1157.000,117.60209985314717
958,1158.000,104.79783394172522
959,1159.000,88.08076991841514
960,1160.000,80.93476832400953
961,1161.000,67.09439884848503
962,1162.000,60.54208090676006
963,1163.000,55.04171499067613
964,1164.000,47.24772946386959
965,1165.000,45.85332129137541
966,1166.000,34.58857739160848
967,1167.000,24.331801608391668
968,1168.000,20.02505525641031
969,1169.000,20.289928184149236
970,1170.000,31.01706925174833
971,1171.000,33.47848263869473
972,1172.000,31.69493248717957
973,1173.000,29.905844741258818
974,1174.000,36.171333445221535
975,1175.000,39.33163113752924
976,1176.000,46.86937622843835
977,1177.000,51.986272489510625
978,1178.000,64.98819607925425
979,1179.000,81.25531902331024
980,1180.000,102.45801968764596
981,1181.000,118.83922878787911
982,1182.000,123.04810209324043
983,1183.000,124.33597151748285
984,1184.000,122.25280979487212
985,1185.000,105.35683450815878
986,1186.000,88.0462108694641
987,1187.000,67.77281160139879
988,1188.000,48.86776107459221
989,1189.000,29.93114440326348
990,1190.000,23.84610328205134
991,1191.000,13.800969324009356
992,1192.000,12.914290445221477
993,1193.000,16.428648662004704
994,1194.000,14.085075319347357
995,1195.000,10.088191100233125
996,1196.000,15.178419326340366
997,1197.000,18.48532361072266
998,1198.000,19.263893088578136
999,1199.000,15.643807417249459
1000,1200.000,15.168045741258782
1001,1201.000,14.72897753379957
1002,1202.000,21.972655144522204
1003,1203.000,23.24158885780892
1004,1204.000,15.814759895104936
1005,1205.000,15.272044801864842
1006,1206.000,19.685990650349705
1007,1207.000,16.660544121212165
1008,1208.000,7.26527800000002
1009,1209.000,-0.5981414685314718
1010,1210.000,-4.650743167832183
1011,1211.000,-2.8169007995338062
1012,1212.000,-4.293125552447565
1013,1213.000,-2.991574202797211
1014,1214.000,-1.699588167832173
1015,1215.000,2.2177369860139917
1016,1216.000,7.308320463869485
1017,1217.000,6.254786599067616
1018,1218.000,4.644270871794886
1019,1219.000,1.826370435897442
1020,1220.000,-1.7382489254079292
1021,1221.000,-4.077558317016328
1022,1222.000,-7.84868062004664
1023,1223.000,-11.49599330769234
1024,1224.000,-15.836983986014028
1025,1225.000,-13.372315995338031
1026,1226.000,-8.564303363636386
1027,1227.000,-12.101522631701664
1028,1228.000,-10.851771097902127
1029,1229.000,-12.385076354312385
1030,1230.000,-8.028658811188832
1031,1231.000,-9.656708510489535
1032,1232.000,-13.491765046620083
1033,1233.000,-16.143279503496544
1034,1234.000,-18.501348664335715
1035,1235.000,-17.0131630512821
1036,1236.000,-10.363996069930097
1037,1237.000,-10.564618165501193
1038,1238.000,-10.623566587412618
1039,1239.000,-6.374406347319365
1040,1240.000,0.26816128671328787
1041,1241.000,-1.8391109370629444
1042,1242.000,2.717985899766907
1043,1243.000,10.788302247086278
1044,1244.000,8.314860622377644
1045,1245.000,8.628083069930094
1046,1246.000,14.636685841491886
1047,1247.000,7.950955673659696
1048,1248.000,0.6500381911421926
1049,1249.000,-1.1169333193473214
1050,1250.000,-6.475709808857825
1051,1251.000,-13.582410717948754
1052,1252.000,-13.28523930536134
1053,1253.000,-12.223866314685349
1054,1254.000,-10.84353453146856
1055,1255.000,-3.4383301794871883
1056,1256.000,3.513394545454556
1057,1257.000,3.832401470862481
1058,1258.000,11.215954121212153
1059,1259.000,14.556570631701671
1060,1260.000,9.995011081585107
1061,1261.000,11.65923104895108
1062,1262.000,9.977500081585108
1063,1263.000,11.151969958041988
1064,1264.000,11.310252118881149
1065,1265.000,13.37912955477859
1066,1266.000,15.156129337995377
1067,1267.000,12.254583156177189
1068,1268.000,17.68019706526811
1069,1269.000,13.99420660139864
1070,1270.000,12.57679112587416
1071,1271.000,14.188821792540832
1072,1272.000,6.229508585081602
1073,1273.000,2.3137571585081638
1074,1274.000,-1.1792504475524508
1075,1275.000,-4.307695069930082
1076,1276.000,-4.8262352540792675
1077,1277.000,-8.010573312354333
1078,1278.000,-3.264715233100241
1079,1279.000,-8.35849824708627
1080,1280.000,-6.362386132867149
1081,1281.000,-8.675061067599092
1082,1282.000,-16.26702387179492
1083,1283.000,-11.639003160839193
1084,1284.000,-0.817042538461541
1085,1285.000,0.6596667365967369
1086,1286.000,6.7368781981352175
1087,1287.000,10.763710424242456
1088,1288.000,13.395140004662043
1089,1289.000,4.229531671328685
1090,1290.000,-1.488597575757579
1091,1291.000,-9.888439153846182
1092,1292.000,-13.42063294172498
1093,1293.000,-7.562075755244775
1094,1294.000,-7.36789672027974
1095,1295.000,-10.837007107226139
1096,1296.000,-2.924022958041967
1097,1297.000,7.965291904428925
1098,1298.000,12.484960023310057
1099,1299.000,9.898927580419608
1100,1300.000,11.424141927738958
1101,1301.000,13.247773538461576
1102,1302.000,13.43574524242428
1103,1303.000,9.094179393939418
1104,1304.000,1.8113025944055974
1105,1305.000,-1.8838865198135273
1106,1306.000,3.742537871794881
1107,1307.000,6.055898671328689
1108,1308.000,2.967565160839168
1109,1309.000,4.473655004662016
1110,1310.000,6.589482988345005
1111,1311.000,5.5856580815850965
1112,1312.000,4.433177037296049
1113,1313.000,3.4722966386946497
1114,1314.000,5.202549687645702
1115,1315.000,3.6530552237762324
1116,1316.000,5.4942602657342805
1117,1317.000,1.8767265221445257
1118,1318.000,0.6836311911421915
1119,1319.000,4.621265135198147
1120,1320.000,4.75315865734267
1121,1321.000,7.069436193473211
1122,1322.000,9.497093603729628
1123,1323.000,14.670884205128242
1124,1324.000,21.55221120979027
1125,1325.000,25.466436967366036
1126,1326.000,24.959396638694706
1127,1327.000,27.955763909090983
1128,1328.000,21.946808275058334
1129,1329.000,18.78951457575763
1130,1330.000,5.598736130536144
1131,1331.000,1.2524090862470887
1132,1332.000,2.374024988344992
1133,1333.000,-0.32182074125874216
1134,1334.000,-0.4439917062937102
1135,1335.000,-6.108736137529155
1136,1336.000,-5.8983672097902256
1137,1337.000,-1.1565029580419606
1138,1338.000,-5.574397317016333
1139,1339.000,0.749399093240096
1140,1340.000,0.01431127039627178
1141,1341.000,-1.4727157995338045
1142,1342.000,6.87518081118883
1143,1343.000,2.5942338205128284
1144,1344.000,4.292031060606073
1145,1345.000,0.031546372960373326
1146,1346.000,2.23199840326341
1147,1347.000,-2.3752483170163234
1148,1348.000,-3.4348118648018753
1149,1349.000,-0.11474275757575769
1150,1350.000,3.227015030303039
1151,1351.000,-2.3811158018648095
1152,1352.000,6.296630174825194
1153,1353.000,0.0830211305361317
1154,1354.000,-4.656989403263413
1155,1355.000,-4.100029869463879
1156,1356.000,-11.149915132867163
1157,1357.000,-16.588397020979066
1158,1358.000,-16.59819764568769
1159,1359.000,-16.162879545454587
1160,1360.000,-13.839893307692346
1161,1361.000,-9.302120473193497
1162,1362.000,1.7926980536130588
1163,1363.000,5.104270102564116
1164,1364.000,5.079310137529152
1165,1365.000,10.77122458041961
1166,1366.000,11.76959550815854
1167,1367.000,15.348855496503537
1168,1368.000,21.356447179487237
1169,1369.000,14.82836763170167
1170,1370.000,9.09455364568767
1171,1371.000,9.255006927738952
1172,1372.000,14.576764662004702
1173,1373.000,12.81368182517486
1174,1374.000,5.150165601398613
1175,1375.000,-0.4138081212121225
1176,1376.000,1.0980243030303045
1177,1377.000,5.022823198135212
1178,1378.000,4.744794468531481
1179,1379.000,-0.5411922517482566
1180,1380.000,-0.3361973566433586
1181,1381.000,2.0688477622377675
1182,1382.000,9.29128641258744
1183,1383.000,6.72653240326342
1184,1384.000,10.062137855477882
1185,1385.000,6.1726305617715775
1186,1386.000,5.084870149184162
1187,1387.000,13.449625191142228
1188,1388.000,9.63117620512823
1189,1389.000,15.333977685314725
1190,1390.000,19.062574372960427
1191,1391.000,16.46698788344993
1192,1392.000,13.030236181818216
1193,1393.000,5.75629840326342
1194,1394.000,-0.5543793892773912
1195,1395.000,-8.165739939393964
1196,1396.000,-10.18237444289047
1197,1397.000,-4.949760354312367
1198,1398.000,-1.4466183006993036
1199,1399.000,1.4989680372960432
1200,1400.000,3.00061956177157
1201,1401.000,0.8373032354312366
1202,1402.000,1.7250707505827547
1203,1403.000,3.256534186480195
1204,1404.000,2.9957968321678403
1205,1405.000,2.9636490722610804
1206,1406.000,4.589892093240105
1207,1407.000,3.767884738927748
1208,1408.000,4.993641123543137
1209,1409.000,1.6937770209790217
1210,1410.000,8.033346034965057
1211,1411.000,13.319783090909127
1212,1412.000,15.003588867132908
1213,1413.000,15.044760687645727
1214,1414.000,14.903386902097944
1215,1415.000,7.167249806526826
1216,1416.000,4.3627940675990775
1217,1417.000,0.39968314685314604
1218,1418.000,-1.844232195804204
1219,1419.000,5.759330855477869
1220,1420.000,15.950758011655056
1221,1421.000,18.316319016317063
1222,1422.000,21.395632449883507
1223,1423.000,17.09645201631706
1224,1424.000,21.048753018648075
1225,1425.000,14.367466629370668
1226,1426.000,6.940751219114237
1227,1427.000,6.329924972027987
1228,1428.000,8.19170666433569
1229,1429.000,12.810397522144555
1230,1430.000,15.542792219114261
1231,1431.000,14.465877123543162
1232,1432.000,22.367212195804257
1233,1433.000,25.491338855477927
1234,1434.000,32.08321709090917
1235,1435.000,24.08225470163176
1236,1436.000,22.26512985780891
1237,1437.000,36.44590321212131
1238,1438.000,45.82254792074605
1239,1439.000,57.91435643589759
1240,1440.000,76.92803087878808
1241,1441.000,89.04327234731959
1242,1442.000,105.39484168531496
1243,1443.000,123.32618944055977
1244,1444.000,134.84030000699337
1245,1445.000,142.67210482983722
1246,1446.000,153.07639001631742
1247,1447.000,175.45696288811234
1248,1448.000,190.51134220279772
1249,1449.000,210.46040886014043
1250,1450.000,224.78925773193532
1251,1451.000,228.72453866200527
1252,1452.000,219.94696723076981
1253,1453.000,208.36192784382337
1254,1454.000,187.42159666899818
1255,1455.000,165.22290643356686
1256,1456.000,138.56474397202834
1257,1457.000,118.552923685315
1258,1458.000,99.81448360139886
1259,1459.000,83.98559000932423
1260,1460.000,76.954480806527
1261,1461.000,67.79402395804212
1262,1462.000,63.97047220279737
1263,1463.000,56.99776730536145
1264,1464.000,50.30028818181831
1265,1465.000,50.70699215151528
1266,1466.000,43.158377850815974
1267,1467.000,33.583021016317105
1268,1468.000,30.623264247086333
1269,1469.000,28.468442601398678
1270,1470.000,31.238904069930154
1271,1471.000,23.243839911421972
1272,1472.000,30.266306794871873
1273,1473.000,24.53285889277396
1274,1474.000,24.889639291375357
1275,1475.000,23.396390249417312
1276,1476.000,10.989744496503523
1277,1477.000,9.887596904428928
1278,1478.000,14.7265735617716
1279,1479.000,20.409500340326392
1280,1480.000,19.16100093939399
1281,1481.000,12.405587498834533
1282,1482.000,9.527154142191169
1283,1483.000,3.955455501165511
1284,1484.000,5.650002974358988
1285,1485.000,7.003350794871812
1286,1486.000,0.9385794102564096
1287,1487.000,10.370221820512846
1288,1488.000,17.829234396270444
1289,1489.000,20.439810918414974
1290,1490.000,14.264042599067638
1291,1491.000,9.09765940559443
1292,1492.000,1.1635090256410265
1293,1493.000,-1.239576850815856
1294,1494.000,-1.1539602051282098
1295,1495.000,1.895989976689982
1296,1496.000,-3.8496192307692407
1297,1497.000,4.6264046200466336
1298,1498.000,4.867047997669011
1299,1499.000,-0.7550427762237799
1300,1500.000,-0.9210007226107262
1301,1501.000,1.823440090909096
1302,1502.000,-3.153099123543134
1303,1503.000,-7.957775202797226
1304,1504.000,-0.18590591142191082
1305,1505.000,5.537593247086262
1306,1506.000,11.912642846153881
1307,1507.000,23.25140647319354
1308,1508.000,22.87029548484855
1309,1509.000,22.707634853146917
1310,1510.000,27.473460158508235
1311,1511.000,24.376660857808925
1312,1512.000,12.794551666666703
1313,1513.000,0.5581691934731934
1314,1514.000,2.7975976550116624
1315,1515.000,-2.485282284382293
1316,1516.000,-3.3712198997669103
1317,1517.000,4.462857610722622
1318,1518.000,6.753338095571114
1319,1519.000,9.669183468531493
1320,1520.000,20.750660219114273
1321,1521.000,19.892901116550174
1322,1522.000,14.827346573426613
1323,1523.000,9.18945242657345
1324,1524.000,4.189388132867143
1325,1525.000,1.2880780815850814
1326,1526.000,-0.10369495104895243
1327,1527.000,3.438018372960382
1328,1528.000,3.0373552960373034
1329,1529.000,0.8603262937062959
1330,1530.000,4.179972051282063
1331,1531.000,1.3740002307692347
1332,1532.000,-3.5156833216783303
1333,1533.000,-4.140183636363648
1334,1534.000,-4.612287254079266
1335,1535.000,0.676472130536133
1336,1536.000,1.98587935431236
1337,1537.000,0.21695316317016244
1338,1538.000,4.939902181818194
1339,1539.000,4.255508307692318
1340,1540.000,12.844453617715653
1341,1541.000,19.70422014918421
1342,1542.000,11.37567355944059
1343,1543.000,11.440190186480221
1344,1544.000,4.621048370629384
1345,1545.000,0.23902689044289127
1346,1546.000,-4.556883682983696
1347,1547.000,-5.951099116550134
1348,1548.000,-1.1896950372960422
1349,1549.000,-0.7655111655011664
1350,1550.000,2.291936135198142
1351,1551.000,2.016061300699306
1352,1552.000,-4.079978146853158
1353,1553.000,-5.542312212121228
1354,1554.000,-9.29584535431238
1355,1555.000,-9.071135377622403
1356,1556.000,-7.538455365967387
1357,1557.000,-2.2169081631701695
1358,1558.000,3.9149978764568876
1359,1559.000,9.341562116550142
1360,1560.000,12.571035652680687
1361,1561.000,15.576009524475566
1362,1562.000,14.845288107226148
1363,1563.000,17.70173433333338
1364,1564.000,18.986117811188862
1365,1565.000,16.88873710489515
1366,1566.000,16.440844109557155
1367,1567.000,19.71731170862476
1368,1568.000,25.159710491841558
1369,1569.000,34.78667702797212
1370,1570.000,41.72509913286724
1371,1571.000,45.89467909557121
1372,1572.000,57.109039825174975
1373,1573.000,66.59846410955728
1374,1574.000,73.4761907062939
1375,1575.000,83.4121796829839
1376,1576.000,93.3773768414921
1377,1577.000,99.58697055477882
1378,1578.000,121.23631752447584
1379,1579.000,151.82744672261114
1380,1580.000,176.14994437529185
1381,1581.000,196.6470727482523
1382,1582.000,217.57729685314743
1383,1583.000,222.11449215850874
1384,1584.000,222.72366307459265
1385,1585.000,207.41668010489568
1386,1586.000,187.94222372960422
1387,1587.000,162.45982412121253
1388,1588.000,154.1626509044293
1389,1589.000,145.0460821212125
1390,1590.000,134.74114643822878
1391,1591.000,130.80228403962738
1392,1592.000,129.99655258041992
1393,1593.000,134.58735930536167
1394,1594.000,149.82153196503535
1395,1595.000,171.55642765268112
1396,1596.000,220.48852672727332
1397,1597.000,278.4002318321686
1398,1598.000,357.05424136829936
1399,1599.000,441.82763872261194
1400,1600.000,519.5160311678335
1401,1601.000,569.0358087925423
1402,1602.000,583.1510076177171
1403,1603.000,564.2543470396286
1404,1604.000,509.2108658508173
1405,1605.000,426.83912103263515
1406,1606.000,345.1841244219124
1407,1607.000,264.9465484988352
1408,1608.000,206.11466760839215
1409,1609.000,157.6990754848489
1410,1610.000,125.7815839836833
1411,1611.000,100.64196971095598
1412,1612.000,82.2050093916086
1413,1613.000,73.71327708158528
1414,1614.000,60.03641582051298
1415,1615.000,47.37436911655024
1416,1616.000,44.467146694638814
1417,1617.000,34.60547656876466
1418,1618.000,21.18907226573432
1419,1619.000,7.888445468531486
1420,1620.000,3.707443079254086
1421,1621.000,-1.4208138997669066
1422,1622.000,2.209593953379955
1423,1623.000,18.854462671328722
1424,1624.000,23.653708752913815
1425,1625.000,31.765109951049038
1426,1626.000,32.608632874125966
1427,1627.000,26.51788227272734
1428,1628.000,15.515095473193512
1429,1629.000,12.8303935664336
1430,1630.000,8.993521102564124
1431,1631.000,6.410221172494188
1432,1632.000,9.64568890442893
1433,1633.000,12.902020920745954
1434,1634.000,10.673286109557138
1435,1635.000,10.531663722610752
1436,1636.000,6.93834687179489
1437,1637.000,4.277538363636374
1438,1638.000,0.06808200932400743
1439,1639.000,5.739390554778568
1440,1640.000,11.884324041958074
1441,1641.000,16.073976699300744
1442,1642.000,14.478666787878826
1443,1643.000,14.276342209790247
1444,1644.000,15.349911634032676
1445,1645.000,15.714309892773933
1446,1646.000,7.574022902097922
1447,1647.000,1.1970804475524495
1448,1648.000,-3.921247125874139
1449,1649.000,-2.625609144522153
1450,1650.000,3.0893513076923154
1451,1651.000,1.9467265827505882
1452,1652.000,-3.5210791561771657
1453,1653.000,-5.3097456899767055
1454,1654.000,-9.863084559440587
1455,1655.000,-6.8545173379953575
1456,1656.000,-8.361900752913776
1457,1657.000,-6.223114065268082
1458,1658.000,-7.694099603729627
1459,1659.000,-5.13597560606062
1460,1660.000,2.336337876456883
1461,1661.000,2.502825317016324
1462,1662.000,0.33124441491841594
1463,1663.000,-1.3315177132867182
1464,1664.000,-2.2887077902097968
1465,1665.000,4.227024034965047
1466,1666.000,7.524307797202818
1467,1667.000,6.035472305361321
1468,1668.000,2.1617513589743633
1469,1669.000,6.428186899766917
1470,1670.000,9.038808708624734
1471,1671.000,11.485472193473226
1472,1672.000,10.963279265734297
1473,1673.000,9.26951911421914
1474,1674.000,7.946606508158531
1475,1675.000,5.2695960326340465
1476,1676.000,-1.985218503496509
1477,1677.000,-4.611498319347334
1478,1678.000,-8.33980304662007
1479,1679.000,-1.154547191142194
1480,1680.000,-0.6616851491841511
1481,1681.000,3.146158944055954
1482,1682.000,5.357313955710971
1483,1683.000,3.038967965034974
1484,1684.000,4.832499913752927
1485,1685.000,3.1356664265734357
1486,1686.000,-3.1181510652680737
1487,1687.000,-0.48768350815851047
1488,1688.000,-0.4578360932400951
1489,1689.000,0.28207992540792626
1490,1690.000,-0.00455359207459205
1491,1691.000,-1.04815916783217
1492,1692.000,-3.475863473193483
1493,1693.000,-7.981338501165524
1494,1694.000,-5.928522004662021
1495,1695.000,-2.754915039627047
1496,1696.000,0.9990831724941764
1497,1697.000,-5.374560002331016
1498,1698.000,-2.7221526620046697
1499,1699.000,-1.2244807785547818
1500,1700.000,1.7122391794871827
1501,1701.000,0.22725983216783163
1502,1702.000,-1.1400295734265775
1503,1703.000,-2.2179154871794946
1504,1704.000,1.8725174452214508
1505,1705.000,8.511909149184174
1506,1706.000,11.8082864662005
1507,1707.000,-1.091618608391613
1508,1708.000,4.292052135198148
1509,1709.000,2.552446393939401
1510,1710.000,-1.1938874055944098
1511,1711.000,-2.055197205128211
1512,1712.000,-6.239423930069948
1513,1713.000,-8.984956160839186
1514,1714.000,-6.853601177156195
1515,1715.000,-12.115082969697003
1516,1716.000,-7.348570766899789
1517,1717.000,-1.4932794615384655
1518,1718.000,3.4420316410256517
1519,1719.000,2.3531256643356695
1520,1720.000,8.588865027972055
1521,1721.000,16.82044224475529
1522,1722.000,18.21215890909096
1523,1723.000,15.108710883449923
1524,1724.000,15.63979350815855
1525,1725.000,11.65354320979024
1526,1726.000,17.142855890442934
1527,1727.000,18.48503349184154
1528,1728.000,15.476979976690016
1529,1729.000,14.035144547785585
1530,1730.000,15.116372972028014
1531,1731.000,12.79362929603733
1532,1732.000,9.070324757575781
1533,1733.000,2.4257647995338045
1534,1734.000,5.452195125874141
1535,1735.000,4.653718808857822
1536,1736.000,0.607577575757577
1537,1737.000,-1.9715311864801923
1538,1738.000,-0.6924442494172509
1539,1739.000,-0.5378708368298386
1540,1740.000,-0.8720408811188841
1541,1741.000,-0.9870264265734299
1542,1742.000,0.19637136596736626
1543,1743.000,1.051407662004665
1544,1744.000,0.6337411118881133
1545,1745.000,1.1417268578088597
1546,1746.000,2.45880714452215
1547,1747.000,3.4325167972028057
1548,1748.000,7.802293386946407
1549,1749.000,12.96227220512824
1550,1750.000,16.50375947319352
1551,1751.000,12.338911734265768
1552,1752.000,4.412673524475537
1553,1753.000,-1.9307510512820576
1554,1754.000,-7.775212002331027
1555,1755.000,-2.387741335664343
1556,1756.000,3.174836585081594
1557,1757.000,2.5949010000000072
1558,1758.000,5.390773766899781
1559,1759.000,9.122015067599094
1560,1760.000,8.241108643356666
1561,1761.000,-1.251893475524481
1562,1762.000,-7.168821501165522
1563,1763.000,-9.826070717948745
1564,1764.000,-16.502064932400977
1565,1765.000,-19.78252990442896
1566,1766.000,-18.034010032634082
1567,1767.000,-21.91938850815857
1568,1768.000,-24.335454596736668
1569,1769.000,-17.568397554778603
1570,1770.000,-12.41754947552451
1571,1771.000,-10.046070419580445
1572,1772.000,-2.63548380419581
1573,1773.000,0.09060923776223984
1574,1774.000,-3.5344414032634126
1575,1775.000,-1.8028127226107284
1576,1776.000,1.6192188041958089
1577,1777.000,3.635256510489519
1578,1778.000,7.66179562004664
1579,1779.000,10.900244571095602
1580,1780.000,13.653040228438265
1581,1781.000,12.795186004662039
1582,1782.000,9.73443613286716
1583,1783.000,2.3585125944056005
1584,1784.000,0.1862013379953389
1585,1785.000,-2.6636466153846237
1586,1786.000,-4.440832820512834
1587,1787.000,-4.510206393939406
1588,1788.000,2.923264953379961
1589,1789.000,4.4604145850815975
1590,1790.000,8.592648883449908
1591,1791.000,10.462281480186508
1592,1792.000,4.921926988345001
1593,1793.000,0.024031533799533378
1594,1794.000,-1.1433398065268099
1595,1795.000,-7.5217791631701845
1596,1796.000,-9.966776226107253
1597,1797.000,-9.524296219114245
1598,1798.000,-5.003520191142204
1599,1799.000,-1.2505920349650375
1600,1800.000,-3.0765312144522223
1601,1801.000,2.2731475104895185
1602,1802.000,0.13106478321678416
1603,1803.000,3.864265993007005
1604,1804.000,3.557933703962715
1605,1805.000,-1.963438550116555
1606,1806.000,-7.066798286713307
1607,1807.000,-2.8212443636363718
1608,1808.000,0.7281392051282076
1609,1809.000,1.1508606340326355
1610,1810.000,-0.24009124475524635
1611,1811.000,7.027651083916105
1612,1812.000,6.414020069930087
1613,1813.000,9.896083848484878
1614,1814.000,6.723530610722632
1615,1815.000,-3.157637843822852
1616,1816.000,-9.260078589743616
1617,1817.000,-10.499954713286742
1618,1818.000,-7.903450538461561
1619,1819.000,-8.723837902097927
1620,1820.000,-3.0404331701631775
1621,1821.000,-1.891917307692312
1622,1822.000,-1.7093400722610772
1623,1823.000,3.1746691212121303
1624,1824.000,4.876742776223789
1625,1825.000,1.6750769603729652
1626,1826.000,-2.6352694172494253
1627,1827.000,-5.317673862470878
1628,1828.000,0.9302111655011674
1629,1829.000,3.6980798648018753
1630,1830.000,4.634723046620059
1631,1831.000,0.6391118484848497
1632,1832.000,2.9694120466200538
1633,1833.000,9.340402988345014
1634,1834.000,12.880897144522182
1635,1835.000,11.478623142191175
1636,1836.000,6.298234599067616
1637,1837.000,5.290947969696985
1638,1838.000,2.8277277296037386
1639,1839.000,-3.009722454545461
1640,1840.000,-13.275482107226143
1641,1841.000,-24.229468610722677
1642,1842.000,-19.46210128904434
1643,1843.000,-16.821371806526855
1644,1844.000,-12.193129764568797
1645,1845.000,-3.2014477668997756
1646,1846.000,8.187879668997693
1647,1847.000,13.740154869463908
1648,1848.000,11.983554955710991
1649,1849.000,11.96553054545458
1650,1850.000,0.06092064102564132
1651,1851.000,-8.43154172494175
1652,1852.000,-11.12822282051285
1653,1853.000,-13.550566925407963
1654,1854.000,-13.43768862703966
1655,1855.000,-12.016498328671362
1656,1856.000,1.2074330955710986
1657,1857.000,0.5296774242424274
1658,1858.000,-1.0579591655011673
1659,1859.000,-0.18683696969697028
1660,1860.000,-0.5993653216783219
1661,1861.000,1.5401438927738962
1662,1862.000,2.1666852913752974
1663,1863.000,6.174906860139876
1664,1864.000,3.776675396270406
1665,1865.000,2.11855328438229
1666,1866.000,11.823591107226143
1667,1867.000,6.019561855477871
1668,1868.000,1.0978210326340352
1669,1869.000,0.16658736130536145
1670,1870.000,1.2832007459207502
1671,1871.000,-0.6366716853146877
1672,1872.000,0.33407395104895166
1673,1873.000,-3.3448190326340415
1674,1874.000,-7.824294482517504
1675,1875.000,-8.970634193473218
1676,1876.000,-3.9050397925408027
1677,1877.000,-5.140719032634046
1678,1878.000,-1.7257164428904481
1679,1879.000,3.299025762237771
1680,1880.000,7.395581333333354
1681,1881.000,9.55879740326343
1682,1882.000,16.618872291375336
1683,1883.000,8.5433254755245
1684,1884.000,5.526325778554792
1685,1885.000,4.365218307692318
1686,1886.000,6.03771837296039
1687,1887.000,-1.6401882400932468
1688,1888.000,-1.0421738461538474
1689,1889.000,-2.364858741258746
1690,1890.000,-3.4282489277389363
1691,1891.000,-5.879476256410271
1692,1892.000,-4.435364762237772
1693,1893.000,-10.843642708624738
1694,1894.000,-7.961665456876477
1695,1895.000,-1.6718195128205173
1696,1896.000,-1.003434862470864
1697,1897.000,-6.3338315524475695
1698,1898.000,-1.8469331491841543
1699,1899.000,-2.206168566433571
1700,1900.000,-2.3269944895104953
1701,1901.000,-4.8318800233100365
1702,1902.000,-7.093969794871814
1703,1903.000,-7.187363275058296
1704,1904.000,-5.938251435897452
1705,1905.000,-0.2863760326340321
1706,1906.000,-4.107755305361316
1707,1907.000,-6.210426254079271
1708,1908.000,-2.516760282051289
1709,1909.000,-1.9690325384615432
1710,1910.000,-2.4712006293706357
1711,1911.000,-4.271828303030315
1712,1912.000,-7.211494466200486
1713,1913.000,-8.359528449883474
1714,1914.000,-6.859599620046638
1715,1915.000,-6.275717918414934
1716,1916.000,-8.022354771561794
1717,1917.000,-9.311760270396295
1718,1918.000,-5.246660314685329
1719,1919.000,0.40684170629370753
1720,1920.000,3.259401069930079
1721,1921.000,6.176555466200483
1722,1922.000,7.8748274219114425
1723,1923.000,5.706170531468547
1724,1924.000,9.334500759906785
1725,1925.000,8.944758976690002
1726,1926.000,6.04203654545456
1727,1927.000,4.618410997669008
1728,1928.000,4.776783393939406
1729,1929.000,5.907611897435913
1730,1930.000,2.342673846153852
1731,1931.000,-1.9040808298368357
1732,1932.000,-0.07689561072261175
1733,1933.000,-2.043814403263409
1734,1934.000,2.8615151538461614
1735,1935.000,9.679323622377648
1736,1936.000,7.052854055944075
1737,1937.000,8.46805319813522
1738,1938.000,14.016439013986052
1739,1939.000,16.965338881118925
1740,1940.000,14.423238121212158
1741,1941.000,12.127277659673695
1742,1942.000,12.737583659673696
1743,1943.000,9.748119519813546
1744,1944.000,8.829083442890468
1745,1945.000,13.029541037296072
1746,1946.000,8.228657524475546
1747,1947.000,5.024474790209803
1748,1948.000,10.818092491841522
1749,1949.000,8.339896440559464
1750,1950.000,3.859181825174835
1751,1951.000,0.44362901165501234
1752,1952.000,-2.961596123543132
1753,1953.000,-4.919853827505841
1754,1954.000,-9.950074158508187
1755,1955.000,-5.85640572494174
1756,1956.000,-8.661243911421936
1757,1957.000,-11.35503823776227
1758,1958.000,-3.3960865431235527
1759,1959.000,-3.729139564102573
1760,1960.000,-2.0483231934732
1761,1961.000,1.9006885151515212
1762,1962.000,4.836624440559454
1763,1963.000,5.978582783216799
1764,1964.000,6.314524925407944
1765,1965.000,4.438310720279733
1766,1966.000,-0.393684764568766
1767,1967.000,-4.534865303030316
1768,1968.000,-0.9918848205128237
1769,1969.000,-1.7529955011655067
1770,1970.000,-2.1875150559440604
1771,1971.000,-7.997996342657365
1772,1972.000,-8.484255368298392
1773,1973.000,-4.284716962703975
1774,1974.000,-2.3204659557109606
1775,1975.000,-6.39341059207461
1776,1976.000,-5.029322997669012
1777,1977.000,-4.609749272727285
1778,1978.000,3.1792464522144606
1779,1979.000,5.275331682983699
1780,1980.000,-2.4752749067599127
1781,1981.000,-8.733531650349676
1782,1982.000,-4.201822575757587
1783,1983.000,-1.366682594405599
1784,1984.000,-1.8449754289044347
1785,1985.000,0.625332449883452
1786,1986.000,6.702887303030323
1787,1987.000,9.453561958041986
1788,1988.000,6.648081750582769
1789,1989.000,2.343153811188816
1790,1990.000,-3.2435957972028078
1791,1991.000,-0.965061006993011
1792,1992.000,-0.5429612097902119
1793,1993.000,-4.090902484848497
1794,1994.000,1.7840810000000054
1795,1995.000,-1.1379364662004685
1796,1996.000,-4.381431517482417
1797,1997.000,-7.581366895104784
1798,1998.000,-9.889535927738818
1799,1999.000,-10.457731944055835
1800,2000.000,-8.4377482727272
