pixel_index,raman_shift_cm-1,intensity
0,200.0,0.06733860675829072
1,201.0,0.061988719546568996
2,202.0,0.058185937236865826
3,203.0,0.055681205646408084
4,204.0,0.05422547059242261
5,205.0,0.05356967789213625
6,206.0,0.053840019339161396
7,207.0,0.05209774425453425
8,208.0,0.05489442325069344
9,209.0,0.05552489412757025
10,210.0,0.05599953590920126
11,211.0,0.06456927470890172
12,212.0,0.06091996210641783
13,213.0,0.06931524901558675
14,214.0,0.07187349255484558
15,215.0,0.07196416882638362
16,216.0,0.07388629510690714
17,217.0,0.07111652696257029
18,218.0,0.07576945933054637
19,219.0,0.07037954805112857
20,220.0,0.06370460910190427
21,221.0,0.06009714504232597
22,222.0,0.05459763366519794
23,223.0,0.06056816077307078
24,224.0,0.06016263630462036
25,225.0,0.05610308577741424
26,226.0,0.06009960874907685
27,227.0,0.05950238781714245
28,228.0,0.06655878112350049
29,229.0,0.06562018946290937
30,230.0,0.06770315700742564
31,231.0,0.06570789740431777
32,232.0,0.06893787505354078
33,233.0,0.0746622048739583
34,234.0,0.07487952460076114
35,235.0,0.07396200960703322
36,236.0,0.08078921417369091
37,237.0,0.07973646558176746
38,238.0,0.08119696755845644
39,239.0,0.07974440998824577
40,240.0,0.08079712326625753
41,241.0,0.07372891438831398
42,242.0,0.06983447560583475
43,243.0,0.07036079965548053
44,244.0,0.07147998443620888
45,245.0,0.07361356638812627
46,246.0,0.07570022633434648
47,247.0,0.07025345312784603
48,248.0,0.07259295038287122
49,249.0,0.07134513147498878
50,250.0,0.07062407225889603
51,251.0,0.06693399953807506
52,252.0,0.06534353437185766
53,253.0,0.07000244978621897
54,254.0,0.0731608422340323
55,255.0,0.07385467511377429
56,256.0,0.07245832398143316
57,257.0,0.07219742114209467
58,258.0,0.07966313027444269
59,259.0,0.07635133883846365
60,260.0,0.0726157857693334
61,261.0,0.07118953964355028
62,262.0,0.06751636322431928
63,263.0,0.06693941808621418
64,264.0,0.06456634576529197
65,265.0,0.06324124531154801
66,266.0,0.06396699013441136
67,267.0,0.06983882703064315
68,268.0,0.07834993406136109
69,269.0,0.08276041201306593
70,270.0,0.08271792585774715
71,271.0,0.08272181753213241
72,272.0,0.07701473568294212
73,273.0,0.07193748896696592
74,274.0,0.06766028029746571
75,275.0,0.07165581879561389
76,276.0,0.07076997517536984
77,277.0,0.0716468341690684
78,278.0,0.07341561213991007
79,279.0,0.08077095939690777
80,280.0,0.0788538610095778
81,281.0,0.07609987871704244
82,282.0,0.07322435232482527
83,283.0,0.0724002816566189
84,284.0,0.07138155811226332
85,285.0,0.07804776681034664
86,286.0,0.07754360188303257
87,287.0,0.07390154947598392
88,288.0,0.07388199851861173
89,289.0,0.0725195306040203
90,290.0,0.06920855327170862
91,291.0,0.06853727412281954
92,292.0,0.07104472351322848
93,293.0,0.07112557714890376
94,294.0,0.07165387020449776
95,295.0,0.07598645368553898
96,296.0,0.07578951538855502
97,297.0,0.07453709485508381
98,298.0,0.076411499626043
99,299.0,0.06942203259306785
100,300.0,0.07093437967420363
101,301.0,0.07440843359752888
102,302.0,0.07696354337406693
103,303.0,0.07186908029962255
104,304.0,0.07015636478180079
105,305.0,0.06717568476788657
106,306.0,0.06720870416244376
107,307.0,0.07124492967273673
108,308.0,0.07334786593965244
109,309.0,0.07139195954227194
110,310.0,0.07724923466249968
111,311.0,0.0803249893776466
112,312.0,0.08211631101380482
113,313.0,0.08117074079687515
114,314.0,0.07746500098747054
115,315.0,0.07348665616900633
116,316.0,0.07081880055872111
117,317.0,0.07057592876891472
118,318.0,0.06564413416944341
119,319.0,0.06465890864293931
120,320.0,0.06988766028155288
121,321.0,0.07270491556420551
122,322.0,0.07724005363497194
123,323.0,0.07949124762036654
124,324.0,0.0764771961846265
125,325.0,0.0734453566672404
126,326.0,0.07195387214856958
127,327.0,0.07189167581411916
128,328.0,0.07107076356708145
129,329.0,0.07524694093403991
130,330.0,0.07780916465663036
131,331.0,0.0787886016395647
132,332.0,0.07953103552959122
133,333.0,0.07783947160309025
134,334.0,0.07558437122074266
135,335.0,0.0734652057301761
136,336.0,0.07310298356880565
137,337.0,0.07609967137579007
138,338.0,0.07715480024215753
139,339.0,0.07764448221246692
140,340.0,0.07584012242068337
141,341.0,0.07645222385518466
142,342.0,0.07864509670835691
143,343.0,0.07877660588676057
144,344.0,0.07948384047678193
145,345.0,0.07900686174017353
146,346.0,0.07608774955237779
147,347.0,0.0764699969086068
148,348.0,0.07398997978167776
149,349.0,0.07629034575021931
150,350.0,0.07576310144896192
151,351.0,0.07335518842504665
152,352.0,0.07378611669979782
153,353.0,0.07531776511579294
154,354.0,0.07530796368859444
155,355.0,0.07485655589455756
156,356.0,0.0724694717404016
157,357.0,0.06919342016591395
158,358.0,0.07072457299587227
159,359.0,0.07608306754286856
160,360.0,0.07766636412908333
161,361.0,0.07634164826904911
162,362.0,0.07872511743069838
163,363.0,0.08041578511058917
164,364.0,0.0791365107831003
165,365.0,0.08127816251313763
166,366.0,0.08271911645261155
167,367.0,0.07917713506376882
168,368.0,0.08170156193922329
169,369.0,0.0865272532035303
170,370.0,0.08461963468662397
171,371.0,0.08265511796501551
172,372.0,0.0813351696891691
173,373.0,0.07612124025169127
174,374.0,0.07173898551803895
175,375.0,0.06709677417981179
176,376.0,0.06544207428348223
177,377.0,0.0650986690026615
178,378.0,0.06866725965524095
179,379.0,0.07136165494245746
180,380.0,0.0700990373619148
181,381.0,0.07239885581120561
182,382.0,0.07570223052463537
183,383.0,0.07623861486166922
184,384.0,0.07791958076536422
185,385.0,0.07409429593320435
186,386.0,0.07572402927827761
187,387.0,0.07514818073103792
188,388.0,0.07370778421962279
189,389.0,0.06748975914711314
190,390.0,0.06742903773595575
191,391.0,0.06935586289484981
192,392.0,0.0746593580332875
193,393.0,0.08207679539297925
194,394.0,0.08608234078487617
195,395.0,0.08807291730542702
196,396.0,0.0872885233635359
197,397.0,0.08464449048613928
198,398.0,0.082855677991673
199,399.0,0.07666178333463115
200,400.0,0.07525308950684664
201,401.0,0.0714861066631101
202,402.0,0.06818169366739855
203,403.0,0.07152599440884205
204,404.0,0.06870131506651714
205,405.0,0.07195854929951655
206,406.0,0.06864277004234152
207,407.0,0.0719292676278061
208,408.0,0.07432262771506978
209,409.0,0.07524596651705158
210,410.0,0.07362579999990305
211,411.0,0.07218171586748191
212,412.0,0.06895802260417082
213,413.0,0.07176473780926534
214,414.0,0.07085600036092542
215,415.0,0.07394654926812454
216,416.0,0.0706582650426937
217,417.0,0.07012062124810729
218,418.0,0.06542295453123403
219,419.0,0.06597689136783917
220,420.0,0.06415808569354871
221,421.0,0.06682096855906042
222,422.0,0.06891496850788684
223,423.0,0.07185492872206041
224,424.0,0.0718535116013522
225,425.0,0.06914716117654418
226,426.0,0.06546043977218066
227,427.0,0.06618414699262606
228,428.0,0.06091996081498151
229,429.0,0.06208603763309311
230,430.0,0.06244128466483255
231,431.0,0.06148441756314101
232,432.0,0.06267532773000095
233,433.0,0.05982904271945371
234,434.0,0.05857946994881012
235,435.0,0.057760826445396554
236,436.0,0.06413268641469541
237,437.0,0.07298960356662645
238,438.0,0.07504926378156658
239,439.0,0.07948612995114251
240,440.0,0.08366839816688096
241,441.0,0.08019569296316448
242,442.0,0.08087881083542181
243,443.0,0.07788542685979977
244,444.0,0.07586782403628174
245,445.0,0.07293330357170194
246,446.0,0.07273202843482528
247,447.0,0.06826633373134453
248,448.0,0.06767662166196524
249,449.0,0.0643731186782889
250,450.0,0.06763351754732304
251,451.0,0.06761897512106285
252,452.0,0.07152728360930313
253,453.0,0.07383137126901082
254,454.0,0.07818802805267569
255,455.0,0.07867250839565776
256,456.0,0.07826560907776163
257,457.0,0.07698437827470997
258,458.0,0.07373580602290221
259,459.0,0.06850257159729635
260,460.0,0.06746543525596015
261,461.0,0.062473986107414836
262,462.0,0.05944689619384883
263,463.0,0.06335550050049217
264,464.0,0.06559745892373954
265,465.0,0.0627497359339121
266,466.0,0.06617907593897536
267,467.0,0.06816191951566122
268,468.0,0.06604503095421105
269,469.0,0.06793903257132816
270,470.0,0.06834488357101101
271,471.0,0.06606330243720993
272,472.0,0.06605561717011917
273,473.0,0.07226257730056126
274,474.0,0.06696908335499378
275,475.0,0.060787031365286875
276,476.0,0.06149714351591794
277,477.0,0.0628212422965478
278,478.0,0.06320740195239108
279,479.0,0.06434882782180024
280,480.0,0.06767410437453854
281,481.0,0.06596754642641856
282,482.0,0.06903985616001337
283,483.0,0.06913554466469268
284,484.0,0.06624076572813176
285,485.0,0.0632376007095537
286,486.0,0.06301850197970255
287,487.0,0.059609749424783434
288,488.0,0.05688753889796777
289,489.0,0.05454707103503976
290,490.0,0.05782824218941808
291,491.0,0.05615296603806158
292,492.0,0.058829122586151056
293,493.0,0.05821584993029358
294,494.0,0.06566403664971272
295,495.0,0.06741232307408575
296,496.0,0.06944282491270463
297,497.0,0.06679928079626304
298,498.0,0.06825512007552016
299,499.0,0.07064297344766367
300,500.0,0.07402437116652841
301,501.0,0.07159764638336905
302,502.0,0.06954498524628386
303,503.0,0.06874217227202414
304,504.0,0.0707482562133573
305,505.0,0.06589089691691462
306,506.0,0.06345462488525823
307,507.0,0.05938429097049555
308,508.0,0.05729776518438722
309,509.0,0.057509398942247575
310,510.0,0.05890275757866571
311,511.0,0.05997497739555269
312,512.0,0.06069613352243098
313,513.0,0.06345063794542223
314,514.0,0.06905153409017842
315,515.0,0.0640218835330078
316,516.0,0.061434374529655826
317,517.0,0.06032161598860619
318,518.0,0.05821159996185168
319,519.0,0.05729487926040928
320,520.0,0.061511642210768824
321,521.0,0.06216858737868875
322,522.0,0.06273406796895045
323,523.0,0.062610588777801
324,524.0,0.06738962535344405
325,525.0,0.06546273660474124
326,526.0,0.06543254497465648
327,527.0,0.06445280430176897
328,528.0,0.06516294208148414
329,529.0,0.060151050081056354
330,530.0,0.06207574329536735
331,531.0,0.06244954417690696
332,532.0,0.061408474570265714
333,533.0,0.06120477445757219
334,534.0,0.06597634106409618
335,535.0,0.07024951343499956
336,536.0,0.06712919070057771
337,537.0,0.06333640735029591
338,538.0,0.05876340249865103
339,539.0,0.05171959397336606
340,540.0,0.054766363906808675
341,541.0,0.05486652106579261
342,542.0,0.05295749240198157
343,543.0,0.056494903318688894
344,544.0,0.060842033857939584
345,545.0,0.06193359688338154
346,546.0,0.0640077346262417
347,547.0,0.06422221424848758
348,548.0,0.06122292085533721
349,549.0,0.061164986355034597
350,550.0,0.06298790403304699
351,551.0,0.0615756012838868
352,552.0,0.06512483110062069
353,553.0,0.0681435373977635
354,554.0,0.06704842827697202
355,555.0,0.06429153761286643
356,556.0,0.06392931742727816
357,557.0,0.06330861732788745
358,558.0,0.05741513459654916
359,559.0,0.05266612528203584
360,560.0,0.0513025451035621
361,561.0,0.05262643163061962
362,562.0,0.0546831865442654
363,563.0,0.05470766013756107
364,564.0,0.05528155521428618
365,565.0,0.05713621765386735
366,566.0,0.05861118437365025
367,567.0,0.05943865819376741
368,568.0,0.05576677761235086
369,569.0,0.05388534858166092
370,570.0,0.05589923239590829
371,571.0,0.0547369784382602
372,572.0,0.054383224846586836
373,573.0,0.056284177566676884
374,574.0,0.05881148344444259
375,575.0,0.060512363570424825
376,576.0,0.06401701217156339
377,577.0,0.0585728928527635
378,578.0,0.05766522994945241
379,579.0,0.05656974040287799
380,580.0,0.056942399170761944
381,581.0,0.05515915039291113
382,582.0,0.05934427310068443
383,583.0,0.06022338365269244
384,584.0,0.061504841987866106
385,585.0,0.06380710007077506
386,586.0,0.06186798138865099
387,587.0,0.060232861187157885
388,588.0,0.05974684088715911
389,589.0,0.05795588103735518
390,590.0,0.05860138031599698
391,591.0,0.062188586638253905
392,592.0,0.06507740454608904
393,593.0,0.06680261566013707
394,594.0,0.07215427962711321
395,595.0,0.0786485514355814
396,596.0,0.08152345757345905
397,597.0,0.08489158821258308
398,598.0,0.08361112371096285
399,599.0,0.08196009481286964
400,600.0,0.08482009694241743
401,601.0,0.08986734778257158
402,602.0,0.09137037296304722
403,603.0,0.09614322531956136
404,604.0,0.104665197227062
405,605.0,0.11279698118724751
406,606.0,0.12123826034444514
407,607.0,0.1237071322324018
408,608.0,0.12953734030780722
409,609.0,0.14175853148345718
410,610.0,0.1543230844737083
411,611.0,0.17185037376155882
412,612.0,0.19388050747336869
413,613.0,0.2222562391996021
414,614.0,0.2571196500413812
415,615.0,0.2952916263197554
416,616.0,0.34241498492493044
417,617.0,0.3821968000342617
418,618.0,0.4160024618210271
419,619.0,0.44477628003332403
420,620.0,0.44694836550835326
421,621.0,0.43820050931387855
422,622.0,0.41153962592401355
423,623.0,0.37401413538508244
424,624.0,0.3316077068514767
425,625.0,0.29130847050094144
426,626.0,0.25697680400125494
427,627.0,0.2236637446877429
428,628.0,0.19501358019936713
429,629.0,0.17593525456538733
430,630.0,0.15093014714538971
431,631.0,0.13446902715048129
432,632.0,0.12352125030101552
433,633.0,0.11358397097545232
434,634.0,0.10265289321733986
435,635.0,0.09851358500290264
436,636.0,0.09527868203876486
437,637.0,0.09714176894437117
438,638.0,0.09360440987221527
439,639.0,0.08757617093218494
440,640.0,0.08093053598836654
441,641.0,0.07600949454018197
442,642.0,0.07484739569019404
443,643.0,0.06809021781312478
444,644.0,0.061628771172394244
445,645.0,0.06273023853622572
446,646.0,0.06208576589100966
447,647.0,0.06142626180230969
448,648.0,0.057303177893114704
449,649.0,0.05320413880444526
450,650.0,0.054355558426454904
451,651.0,0.052679748545554815
452,652.0,0.05143398538422814
453,653.0,0.05238776557936282
454,654.0,0.050525573962002954
455,655.0,0.05166800574730471
456,656.0,0.05141223641829577
457,657.0,0.05100878108888866
458,658.0,0.048325758825130176
459,659.0,0.04612028680831377
460,660.0,0.04774841871749484
461,661.0,0.04479692058455083
462,662.0,0.042994737013198336
463,663.0,0.041957563220882246
464,664.0,0.040522216164712056
465,665.0,0.03724006578092457
466,666.0,0.0379990452479523
467,667.0,0.03917727692125078
468,668.0,0.037542275793871246
469,669.0,0.03885583767710929
470,670.0,0.038871168709010986
471,671.0,0.038683488854859914
472,672.0,0.04064549435099463
473,673.0,0.04172994399575744
474,674.0,0.043543736374069233
475,675.0,0.04243527623756188
476,676.0,0.0467428206698649
477,677.0,0.04877648301266134
478,678.0,0.046615578106836905
479,679.0,0.045572641904041616
480,680.0,0.04017204508978713
481,681.0,0.036249946064080954
482,682.0,0.034029990712460524
483,683.0,0.035122719161113695
484,684.0,0.03315139110348035
485,685.0,0.0359626192938184
486,686.0,0.04069187150679763
487,687.0,0.041505095033808274
488,688.0,0.03983449646393977
489,689.0,0.040827479373412294
490,690.0,0.03558131578024055
491,691.0,0.03470429785584385
492,692.0,0.0364240901499672
493,693.0,0.040018933928214324
494,694.0,0.03499288086929834
495,695.0,0.034184101341923706
496,696.0,0.035132570260120975
497,697.0,0.035637625135321815
498,698.0,0.03595274724253995
499,699.0,0.038920183978943784
500,700.0,0.03990065023806755
501,701.0,0.04267757195261282
502,702.0,0.043405796237830044
503,703.0,0.04567208432764918
504,704.0,0.03866795237676719
505,705.0,0.03285240764906411
506,706.0,0.0266772809641082
507,707.0,0.027666501397303707
508,708.0,0.028688540053025836
509,709.0,0.030138426322126773
510,710.0,0.03294238234683831
511,711.0,0.03390780610652701
512,712.0,0.03612695583331894
513,713.0,0.03833088131655604
514,714.0,0.03476905890517301
515,715.0,0.03378859490072435
516,716.0,0.028117955271264934
517,717.0,0.03188148682253806
518,718.0,0.03031869099593
519,719.0,0.03135832514059771
520,720.0,0.03185656425692521
521,721.0,0.03060250261828178
522,722.0,0.029687242973367892
523,723.0,0.03311648313216112
524,724.0,0.033397673392973413
525,725.0,0.032394465152919355
526,726.0,0.026065950148009536
527,727.0,0.026048168027512246
528,728.0,0.027020948157604505
529,729.0,0.030281369726268624
530,730.0,0.026953514143214945
531,731.0,0.027973082543618813
532,732.0,0.027515893863500288
533,733.0,0.029778742858541284
534,734.0,0.028566687719134558
535,735.0,0.025593998609394437
536,736.0,0.02028027955476931
537,737.0,0.0229527644764163
538,738.0,0.027252129453197847
539,739.0,0.027924054863183664
540,740.0,0.023847398607789012
541,741.0,0.02872919820748801
542,742.0,0.028271069758109148
543,743.0,0.02913291600229206
544,744.0,0.031204360108943976
545,745.0,0.028542722739629208
546,746.0,0.026005288001392297
547,747.0,0.02585326142523136
548,748.0,0.024387350907499793
549,749.0,0.026108672669418846
550,750.0,0.021376393462239813
551,751.0,0.02647568359408635
552,752.0,0.026032869683089873
553,753.0,0.027560805554389937
554,754.0,0.028559640165055935
555,755.0,0.026843637735269946
556,756.0,0.02481672203929359
557,757.0,0.022144476787872267
558,758.0,0.021083905457429303
559,759.0,0.025204355772996255
560,760.0,0.02377606127410425
561,761.0,0.023271704422218566
562,762.0,0.023326268733760397
563,763.0,0.020575250259404113
564,764.0,0.019274227654092545
565,765.0,0.01829180053605046
566,766.0,0.01635553755706668
567,767.0,0.018863328244511153
568,768.0,0.021242721912884805
569,769.0,0.02716882989310059
570,770.0,0.029570515145071984
571,771.0,0.02915049489944548
572,772.0,0.031984615282995316
573,773.0,0.028061611800183385
574,774.0,0.02637582640723383
575,775.0,0.02720959461920539
576,776.0,0.028405204458558563
577,777.0,0.02809445338729246
578,778.0,0.02557201733623019
579,779.0,0.025265017168736643
580,780.0,0.021331641788643982
581,781.0,0.020022760836697715
582,782.0,0.02009340119262732
583,783.0,0.019708407479663455
584,784.0,0.02276563076545381
585,785.0,0.025806921197414383
586,786.0,0.026171720355894684
587,787.0,0.023209569669613395
588,788.0,0.022772567443490106
589,789.0,0.02289645575465359
590,790.0,0.020752566785295766
591,791.0,0.024462542472746134
592,792.0,0.028188739166753362
593,793.0,0.027259997072849533
594,794.0,0.025401524223806385
595,795.0,0.021401161684301676
596,796.0,0.018773874673376878
597,797.0,0.01635100195552212
598,798.0,0.015559511067459564
599,799.0,0.014499664337958917
600,800.0,0.012774973891239506
601,801.0,0.013766224425981665
602,802.0,0.01549682639147882
603,803.0,0.016401106303857365
604,804.0,0.017590214579775474
605,805.0,0.02035024793466204
606,806.0,0.02368903051184378
607,807.0,0.022915155684249188
608,808.0,0.020599215600908573
609,809.0,0.018725890507691183
610,810.0,0.016759069754540088
611,811.0,0.017586968427527484
612,812.0,0.019723779087265594
613,813.0,0.022177258371774373
614,814.0,0.023628013833308148
615,815.0,0.02385700831660762
616,816.0,0.02633245435261883
617,817.0,0.019968748690734634
618,818.0,0.015512275464170916
619,819.0,0.012594796704609704
620,820.0,0.011585265968744752
621,821.0,0.008650441548104293
622,822.0,0.008995967902190972
623,823.0,0.013769915417958334
624,824.0,0.017569802139587528
625,825.0,0.02018973892901144
626,826.0,0.02823228771687738
627,827.0,0.02860699039023142
628,828.0,0.02971316552193091
629,829.0,0.028439145139906096
630,830.0,0.021843395132689257
631,831.0,0.017528532600475367
632,832.0,0.018050950955157408
633,833.0,0.020076790744005653
634,834.0,0.018546767401819014
635,835.0,0.017072101036368848
636,836.0,0.02129710223618851
637,837.0,0.01987398582366576
638,838.0,0.0172669438222727
639,839.0,0.01212777482720123
640,840.0,0.009034138660221616
641,841.0,0.012389302643518356
642,842.0,0.012868495255075827
643,843.0,0.013628153158166236
644,844.0,0.014530199760769462
645,845.0,0.014307865361190416
646,846.0,0.01858313157549031
647,847.0,0.019963951146878666
648,848.0,0.016547784614727747
649,849.0,0.014958291847270568
650,850.0,0.0157147350653379
651,851.0,0.015842970215806346
652,852.0,0.011696084260026027
653,853.0,0.006703924396432541
654,854.0,0.003447618471829072
655,855.0,0.000850414141801611
656,856.0,0.0035799252202909845
657,857.0,0.010136385608159038
658,858.0,0.01060220329286624
659,859.0,0.020708591816351207
660,860.0,0.026496069395758506
661,861.0,0.030377186949386972
662,862.0,0.02941487707514948
663,863.0,0.026647442354688928
664,864.0,0.02569793829297582
665,865.0,0.02285227668905017
666,866.0,0.020192406431653532
667,867.0,0.019611147192136573
668,868.0,0.019657221349379802
669,869.0,0.02229544560754195
670,870.0,0.021520076869619053
671,871.0,0.02189172354110726
672,872.0,0.021164323459644002
673,873.0,0.019011497954901625
674,874.0,0.02124252597286638
675,875.0,0.020449962951295905
676,876.0,0.019273711509472078
677,877.0,0.019605418215873634
678,878.0,0.02150943800308011
679,879.0,0.019329868983184912
680,880.0,0.020812830375570007
681,881.0,0.021122077037173507
682,882.0,0.019218640895061218
683,883.0,0.017254478039323874
684,884.0,0.01831985371591781
685,885.0,0.018092244406238883
686,886.0,0.017474153973101356
687,887.0,0.01996415944381369
688,888.0,0.021854951113817554
689,889.0,0.02235607863494787
690,890.0,0.02208449535489744
691,891.0,0.022537516436097468
692,892.0,0.021918116096862186
693,893.0,0.023688156621001474
694,894.0,0.023823229863016257
695,895.0,0.019393321173979253
696,896.0,0.01626119792562615
697,897.0,0.014287672264243396
698,898.0,0.0098593999060139
699,899.0,0.007914043872419962
700,900.0,0.006055895995243894
701,901.0,0.006925534575119687
702,902.0,0.009768436905502444
703,903.0,0.013408228348683354
704,904.0,0.01814824164282004
705,905.0,0.01739000081713577
706,906.0,0.019657063682826728
707,907.0,0.021181341479905705
708,908.0,0.018010509269670873
709,909.0,0.016881420442090612
710,910.0,0.011153068988234215
711,911.0,0.009639707522617965
712,912.0,0.012416131024411607
713,913.0,0.01167876376096308
714,914.0,0.01005579826672212
715,915.0,0.01081159265741034
716,916.0,0.014532917764956394
717,917.0,0.01736722551886403
718,918.0,0.015170238406656017
719,919.0,0.01140424521349042
720,920.0,0.009744243241138867
721,921.0,0.013805414008818606
722,922.0,0.015855955224787027
723,923.0,0.014411247457595061
724,924.0,0.011928422192460868
725,925.0,0.013100816573110996
726,926.0,0.014448181409730712
727,927.0,0.0170164220481881
728,928.0,0.01832295757152795
729,929.0,0.018985537407974158
730,930.0,0.02302760354480607
731,931.0,0.027229556508443567
732,932.0,0.027355169538988647
733,933.0,0.023530135567574433
734,934.0,0.019460512479346437
735,935.0,0.015295201163745942
736,936.0,0.011548445230217192
737,937.0,0.012428160340056902
738,938.0,0.014900797912276057
739,939.0,0.015889897719083695
740,940.0,0.021553160659476326
741,941.0,0.025213562462897035
742,942.0,0.025295008350481835
743,943.0,0.025801958226956984
744,944.0,0.02720523568446933
745,945.0,0.028892143478149737
746,946.0,0.022774181263026574
747,947.0,0.020550215402178353
748,948.0,0.024068557240861644
749,949.0,0.024896896180927646
750,950.0,0.02570305408575935
751,951.0,0.024152085058778236
752,952.0,0.026219377091571294
753,953.0,0.031067398688500527
754,954.0,0.03786025155926496
755,955.0,0.041374666809793854
756,956.0,0.03786743446195125
757,957.0,0.03638979020543748
758,958.0,0.03969929139666348
759,959.0,0.038847635591360806
760,960.0,0.03172363068189553
761,961.0,0.02949145682971933
762,962.0,0.026444129054327498
763,963.0,0.027170850254722084
764,964.0,0.03243300494934597
765,965.0,0.03520796122289858
766,966.0,0.03684013871352705
767,967.0,0.03999298529780128
768,968.0,0.04227776209852334
769,969.0,0.04593481771560021
770,970.0,0.04935740445360072
771,971.0,0.054639244071764216
772,972.0,0.053040229752570243
773,973.0,0.05748593436171314
774,974.0,0.06129091408372285
775,975.0,0.06407531081796791
776,976.0,0.06771635693865513
777,977.0,0.07445050279380551
778,978.0,0.0757661174020474
779,979.0,0.07752633025590716
780,980.0,0.08576792573889866
781,981.0,0.09178240377329022
782,982.0,0.09844705244119183
783,983.0,0.1098738162546589
784,984.0,0.1216688121296136
785,985.0,0.13818571904824706
786,986.0,0.1563269405259588
787,987.0,0.17572447826653684
788,988.0,0.19049852560022007
789,989.0,0.2103181800440992
790,990.0,0.2399689112934659
791,991.0,0.27364501243191397
792,992.0,0.31668180159279274
793,993.0,0.3716527692431196
794,994.0,0.4438731914801615
795,995.0,0.5281803016746262
796,996.0,0.6245497782824249
797,997.0,0.7280697722250564
798,998.0,0.8311895150069976
799,999.0,0.9185055345102092
800,1000.0,0.9760453007066903
801,1001.0,1.0
802,1002.0,0.9824902699926296
803,1003.0,0.9281211135055779
804,1004.0,0.8475248738213997
805,1005.0,0.7491355997031331
806,1006.0,0.652592946253752
807,1007.0,0.5601661806225273
808,1008.0,0.4807709256541376
809,1009.0,0.4091522744121278
810,1010.0,0.35681316389185985
811,1011.0,0.3146553928491084
812,1012.0,0.28019879214994303
813,1013.0,0.2528560080687396
814,1014.0,0.23256084240452177
815,1015.0,0.21852093024612324
816,1016.0,0.21242067101894777
817,1017.0,0.2083323584737279
818,1018.0,0.20640326682836996
819,1019.0,0.21120065085478187
820,1020.0,0.22179329356334332
821,1021.0,0.23451145774655754
822,1022.0,0.25287105867730714
823,1023.0,0.2753763604857424
824,1024.0,0.3038553628188033
825,1025.0,0.34336454985930087
826,1026.0,0.3949941577102481
827,1027.0,0.44761292290038807
828,1028.0,0.4992891123319805
829,1029.0,0.5454155453509506
830,1030.0,0.5747598470218572
831,1031.0,0.5856230613635771
832,1032.0,0.5708742377224006
833,1033.0,0.5351976683369004
834,1034.0,0.48090438993574786
835,1035.0,0.42396668052256903
836,1036.0,0.36395634393791965
837,1037.0,0.3088890921529235
838,1038.0,0.26209317530913334
839,1039.0,0.2208540609172304
840,1040.0,0.18762638352424424
841,1041.0,0.16261752020851794
842,1042.0,0.1489215871363635
843,1043.0,0.13361905094602555
844,1044.0,0.11620404624430658
845,1045.0,0.10781820654658475
846,1046.0,0.09904231794602077
847,1047.0,0.09121871679328977
848,1048.0,0.08013071649825153
849,1049.0,0.06726782688236718
850,1050.0,0.05844859526281878
851,1051.0,0.054738616969993166
852,1052.0,0.0510175023869289
853,1053.0,0.04657570045204203
854,1054.0,0.04418651236085863
855,1055.0,0.049661072331794544
856,1056.0,0.047429648235224255
857,1057.0,0.041162909662723866
858,1058.0,0.034949559841065986
859,1059.0,0.03001266934328911
860,1060.0,0.026676103004486515
861,1061.0,0.023759120581859097
862,1062.0,0.019989021670726335
863,1063.0,0.02097723999279761
864,1064.0,0.02554551591725819
865,1065.0,0.031302464445306044
866,1066.0,0.03129972085902215
867,1067.0,0.031005343050620627
868,1068.0,0.030576410901200335
869,1069.0,0.029046151402444383
870,1070.0,0.02975200158622702
871,1071.0,0.02862232207550633
872,1072.0,0.02773074874591381
873,1073.0,0.02577869082934118
874,1074.0,0.025385050135511778
875,1075.0,0.022196151762034842
876,1076.0,0.01983987396181137
877,1077.0,0.015841029554301177
878,1078.0,0.014780838029038177
879,1079.0,0.018157508348235714
880,1080.0,0.021848145644894297
881,1081.0,0.02094831014757297
882,1082.0,0.01972829211941078
883,1083.0,0.020256315400993135
884,1084.0,0.017966260406972214
885,1085.0,0.017113637703703517
886,1086.0,0.01166359977764981
887,1087.0,0.014927643930132206
888,1088.0,0.018819965964006247
889,1089.0,0.020374768964229416
890,1090.0,0.018336434885972988
891,1091.0,0.014897655937988134
892,1092.0,0.013274079031115544
893,1093.0,0.01150623964488776
894,1094.0,0.013415948545310738
895,1095.0,0.015981588575238254
896,1096.0,0.016759502262101024
897,1097.0,0.02463065398061138
898,1098.0,0.026528751344491418
899,1099.0,0.025222412815552375
900,1100.0,0.024808482480407953
901,1101.0,0.019482863003507156
902,1102.0,0.020261505834161052
903,1103.0,0.014822434594461847
904,1104.0,0.015239400441738871
905,1105.0,0.013658693512695419
906,1106.0,0.009839327345265813
907,1107.0,0.008215766589729067
908,1108.0,0.006725917170536751
909,1109.0,0.008928363965322051
910,1110.0,0.00716578296473502
911,1111.0,0.005402612035329107
912,1112.0,0.012834305275356221
913,1113.0,0.009969486151946884
914,1114.0,0.0141186634807969
915,1115.0,0.020608616522113828
916,1116.0,0.021156051420895154
917,1117.0,0.019673911822311214
918,1118.0,0.02013734684736144
919,1119.0,0.019710916345726186
920,1120.0,0.015574367391527063
921,1121.0,0.014949419075600474
922,1122.0,0.015511739066071608
923,1123.0,0.008272886425145145
924,1124.0,0.00933784458256078
925,1125.0,0.012400980540827111
926,1126.0,0.01164769068917165
927,1127.0,0.014217997659918989
928,1128.0,0.022853151812833827
929,1129.0,0.02349449778048587
930,1130.0,0.02632249284192157
931,1131.0,0.033249240225980775
932,1132.0,0.033868734438287466
933,1133.0,0.033383241438715815
934,1134.0,0.03251079860707632
935,1135.0,0.03307488942977924
936,1136.0,0.03137704100400478
937,1137.0,0.032383443047441486
938,1138.0,0.03363407330452781
939,1139.0,0.030841413125738272
940,1140.0,0.02990254946519675
941,1141.0,0.03490334954406884
942,1142.0,0.038235953783034786
943,1143.0,0.04424608677887918
944,1144.0,0.05194170750116381
945,1145.0,0.06427049733214765
946,1146.0,0.07346458854504279
947,1147.0,0.08621293818677501
948,1148.0,0.09904429297530265
949,1149.0,0.11701302284310675
950,1150.0,0.14092091731792283
951,1151.0,0.16776736871334136
952,1152.0,0.19143796302196184
953,1153.0,0.2079267328282432
954,1154.0,0.21875558144921656
955,1155.0,0.22361905974074694
956,1156.0,0.21494193506268433
957,1157.0,0.2004118909761258
958,1158.0,0.1786059743001479
959,1159.0,0.15681298593216356
960,1160.0,0.1372296001104828
961,1161.0,0.11911419375252627
962,1162.0,0.1030595184719487
963,1163.0,0.08921770723165218
964,1164.0,0.07820187919211988
965,1165.0,0.07160675731669215
966,1166.0,0.060555451459032315
967,1167.0,0.05206638857392217
968,1168.0,0.046788888007596556
969,1169.0,0.04018752018332791
970,1170.0,0.03147278171374654
971,1171.0,0.027752193067034667
972,1172.0,0.026604725342467488
973,1173.0,0.02398968406895539
974,1174.0,0.023875875949022362
975,1175.0,0.022544820193535858
976,1176.0,0.021200037235992536
977,1177.0,0.02170660642653892
978,1178.0,0.02326672908821074
979,1179.0,0.02319010269594642
980,1180.0,0.022021001927053554
981,1181.0,0.025414623527037758
982,1182.0,0.02484271174394319
983,1183.0,0.021501487004894015
984,1184.0,0.020799744886053198
985,1185.0,0.01950560168530572
986,1186.0,0.019355384595522808
987,1187.0,0.013898195065371394
988,1188.0,0.00978749460746757
989,1189.0,0.006355858973179373
990,1190.0,0.00445019992219799
991,1191.0,0.005999131888966347
992,1192.0,0.004360450246826219
993,1193.0,0.009054582399232571
994,1194.0,0.013147497151151433
995,1195.0,0.01442330815124279
996,1196.0,0.022410933487117316
997,1197.0,0.02285393834823058
998,1198.0,0.025931494457521926
999,1199.0,0.02566367597164323
1000,1200.0,0.024421038666498182
1001,1201.0,0.024501413688521087
1002,1202.0,0.01910650376120299
1003,1203.0,0.01972142025061145
1004,1204.0,0.016478253884362994
1005,1205.0,0.013354506632562164
1006,1206.0,0.01625814359903214
1007,1207.0,0.013210544077336262
1008,1208.0,0.009683156347519541
1009,1209.0,0.00870139151272102
1010,1210.0,0.0068081934778539835
1011,1211.0,0.003417568539878575
1012,1212.0,0.0
1013,1213.0,0.003319171074538245
1014,1214.0,0.006275581825674802
1015,1215.0,0.003393142737541329
1016,1216.0,0.0042704815932224326
1017,1217.0,0.005735279635372952
1018,1218.0,0.004864175367759109
1019,1219.0,0.005013998297899058
1020,1220.0,0.004168168373722569
1021,1221.0,0.004346054325816864
1022,1222.0,0.00861055320383262
1023,1223.0,0.013094212796558303
1024,1224.0,0.014294813920706511
1025,1225.0,0.008009353593508024
1026,1226.0,0.00934352604414991
1027,1227.0,0.009950971549910348
1028,1228.0,0.007239456119649113
1029,1229.0,0.00637069452608647
1030,1230.0,0.0071230648603197305
1031,1231.0,0.008994624333952614
1032,1232.0,0.010397599299340953
1033,1233.0,0.014468006472392285
1034,1234.0,0.014353552933528396
1035,1235.0,0.015199745862853926
1036,1236.0,0.017511341332469052
1037,1237.0,0.014581484177722575
1038,1238.0,0.012686939287782206
1039,1239.0,0.0109905060674612
1040,1240.0,0.009554336055067307
1041,1241.0,0.007290989514328876
1042,1242.0,0.0036546380868829327
1043,1243.0,0.0036620095564880778
1044,1244.0,0.005687046853524012
1045,1245.0,0.009658781844023676
1046,1246.0,0.013155646478320784
1047,1247.0,0.016369668081607374
1048,1248.0,0.01843027866391729
1049,1249.0,0.015302789515481224
1050,1250.0,0.014675903228948474
1051,1251.0,0.009888087205833649
1052,1252.0,0.005726607981604597
1053,1253.0,0.004651314830288023
1054,1254.0,0.00609850035803677
1055,1255.0,0.0077278935726212816
1056,1256.0,0.01375072656412382
1057,1257.0,0.018409320790568187
1058,1258.0,0.01741782535604945
1059,1259.0,0.01642512942218072
1060,1260.0,0.016883001043456133
1061,1261.0,0.015128015372876875
1062,1262.0,0.017008600522787534
1063,1263.0,0.01776358728961735
1064,1264.0,0.018219428953590047
1065,1265.0,0.018517246467828357
1066,1266.0,0.01967832846566862
1067,1267.0,0.018042071002895985
1068,1268.0,0.015243436227898432
1069,1269.0,0.013581349478867402
1070,1270.0,0.013366463198570211
1071,1271.0,0.012783400122216676
1072,1272.0,0.011532083804618447
1073,1273.0,0.013152509474219896
1074,1274.0,0.016242577449356876
1075,1275.0,0.017990259980583425
1076,1276.0,0.01652256754580017
1077,1277.0,0.013988269240722275
1078,1278.0,0.01159889783178181
1079,1279.0,0.010166378464879918
1080,1280.0,0.012297008621534638
1081,1281.0,0.012652793801017213
1082,1282.0,0.014056000781152265
1083,1283.0,0.02026241360527837
1084,1284.0,0.02132763880682502
1085,1285.0,0.020844864456304544
1086,1286.0,0.014734660054981164
1087,1287.0,0.01093228705987305
1088,1288.0,0.006675765516066714
1089,1289.0,0.0018340635022336994
1090,1290.0,0.0036272478616050075
1091,1291.0,0.0016145544741401827
1092,1292.0,0.0019773317132375195
1093,1293.0,0.0032578739934618073
1094,1294.0,0.005577976394242662
1095,1295.0,0.012094082745032566
1096,1296.0,0.014257868244447344
1097,1297.0,0.01973188244196622
1098,1298.0,0.020740684365956084
1099,1299.0,0.017851926515751047
1100,1300.0,0.016455269916720153
1101,1301.0,0.013515695195006304
1102,1302.0,0.011796878489522674
1103,1303.0,0.00749560204221831
1104,1304.0,0.00809046944386301
1105,1305.0,0.010159629199823463
1106,1306.0,0.011399082868728337
1107,1307.0,0.015148387833905156
1108,1308.0,0.01692990367736909
1109,1309.0,0.015004142848995755
1110,1310.0,0.018408220975428498
1111,1311.0,0.02377693342945946
1112,1312.0,0.023207344769356063
1113,1313.0,0.019858603166358905
1114,1314.0,0.017546094776160634
1115,1315.0,0.01610286007052912
1116,1316.0,0.01148191171058641
1117,1317.0,0.008688999655336226
1118,1318.0,0.005200795591908089
1119,1319.0,0.004862505794758583
1120,1320.0,0.007162288835944407
1121,1321.0,0.011164437765866859
1122,1322.0,0.011977047150867665
1123,1323.0,0.017313431083012882
1124,1324.0,0.017822044578888283
1125,1325.0,0.020998824050280793
1126,1326.0,0.02042341582039107
1127,1327.0,0.018824644478568308
1128,1328.0,0.016320642638781836
1129,1329.0,0.016587553636822513
1130,1330.0,0.009620277686054956
1131,1331.0,0.007332156077195923
1132,1332.0,0.006928062067890539
1133,1333.0,0.009182885781929965
1134,1334.0,0.0062721485002161384
1135,1335.0,0.008962477671593574
1136,1336.0,0.014959859024937263
1137,1337.0,0.017384142940374082
1138,1338.0,0.01770259781400377
1139,1339.0,0.01667259131891487
1140,1340.0,0.013084742882037457
1141,1341.0,0.009434460601667407
1142,1342.0,0.010469911179179964
1143,1343.0,0.00846142642878609
1144,1344.0,0.004492169656340834
1145,1345.0,0.006527810737048138
1146,1346.0,0.013215688589967023
1147,1347.0,0.01578790596638769
1148,1348.0,0.013059790919617242
1149,1349.0,0.015463908753072216
1150,1350.0,0.01140308118005338
1151,1351.0,0.011250284246237087
1152,1352.0,0.015420213783221944
1153,1353.0,0.013290143326604085
1154,1354.0,0.013373617754050096
1155,1355.0,0.015535500434608846
1156,1356.0,0.021497943765083648
1157,1357.0,0.02252337737196704
1158,1358.0,0.01893854912112423
1159,1359.0,0.018649926655849157
1160,1360.0,0.012970617775079196
1161,1361.0,0.01804641687552542
1162,1362.0,0.01933569961937257
1163,1363.0,0.01740080877442291
1164,1364.0,0.01876925918091628
1165,1365.0,0.024251513483419446
1166,1366.0,0.026561254086241465
1167,1367.0,0.023882538705053476
1168,1368.0,0.01853849574507518
1169,1369.0,0.01584202243382406
1170,1370.0,0.011608606905747837
1171,1371.0,0.010974533286297468
1172,1372.0,0.012513624312589062
1173,1373.0,0.011280785451300502
1174,1374.0,0.015197557547896352
1175,1375.0,0.018757591069448302
1176,1376.0,0.015634972200732424
1177,1377.0,0.016923349643361337
1178,1378.0,0.01357541806444855
1179,1379.0,0.01412924788391754
1180,1380.0,0.014518690395275502
1181,1381.0,0.013456520355891255
1182,1382.0,0.013401581333018164
1183,1383.0,0.011280539483252255
1184,1384.0,0.012845446625233728
1185,1385.0,0.011175156981953835
1186,1386.0,0.010969396919704676
1187,1387.0,0.01818327102337783
1188,1388.0,0.0179867983556822
1189,1389.0,0.025000056513060774
1190,1390.0,0.025914046278992787
1191,1391.0,0.02512686647703357
1192,1392.0,0.022206669387813946
1193,1393.0,0.021073863278515462
1194,1394.0,0.01675915214930974
1195,1395.0,0.015685713229424077
1196,1396.0,0.014342329667468418
1197,1397.0,0.01473402156193692
1198,1398.0,0.011500805402834277
1199,1399.0,0.012510675547667502
1200,1400.0,0.010356103632208185
1201,1401.0,0.008498309573481778
1202,1402.0,0.010152801345764618
1203,1403.0,0.01367796639413023
1204,1404.0,0.01603164176400454
1205,1405.0,0.022723915183334168
1206,1406.0,0.025103949728346994
1207,1407.0,0.027808283153896274
1208,1408.0,0.030507168313737915
1209,1409.0,0.028869526103999812
1210,1410.0,0.026566308634421935
1211,1411.0,0.02279674564801932
1212,1412.0,0.02650361578188235
1213,1413.0,0.024097882991736014
1214,1414.0,0.025776478593697746
1215,1415.0,0.026095421470353722
1216,1416.0,0.02988608878235784
1217,1417.0,0.03142651296523528
1218,1418.0,0.035678146705832206
1219,1419.0,0.03713611530847133
1220,1420.0,0.038297190058351714
1221,1421.0,0.040708845929652133
1222,1422.0,0.041020075555537175
1223,1423.0,0.038146302914740776
1224,1424.0,0.039557023613345364
1225,1425.0,0.0364794600350809
1226,1426.0,0.03821040744540971
1227,1427.0,0.037461693731677466
1228,1428.0,0.040963984206397935
1229,1429.0,0.04349372778148234
1230,1430.0,0.04997433567563283
1231,1431.0,0.05518652687275223
1232,1432.0,0.06365140372078004
1233,1433.0,0.07071887294194457
1234,1434.0,0.08000290514564283
1235,1435.0,0.08703577120616382
1236,1436.0,0.09134406266910648
1237,1437.0,0.09576411561704709
1238,1438.0,0.10094544722104203
1239,1439.0,0.10939834409707395
1240,1440.0,0.1220740202815623
1241,1441.0,0.13721047896892066
1242,1442.0,0.1650705236586798
1243,1443.0,0.1926330694621928
1244,1444.0,0.2290948350168342
1245,1445.0,0.26585590583493957
1246,1446.0,0.3039382379318478
1247,1447.0,0.3419881031225501
1248,1448.0,0.37234611031374815
1249,1449.0,0.391811857975142
1250,1450.0,0.3967585124043745
1251,1451.0,0.3907561810092533
1252,1452.0,0.3729587865296306
1253,1453.0,0.3422651485197899
1254,1454.0,0.30576877760031285
1255,1455.0,0.2670365845618018
1256,1456.0,0.2315517988023237
1257,1457.0,0.19770558028659538
1258,1458.0,0.16831201136715093
1259,1459.0,0.1447413462470681
1260,1460.0,0.12334266393577006
1261,1461.0,0.1070315032632512
1262,1462.0,0.09268201653342059
1263,1463.0,0.08301046479625208
1264,1464.0,0.07555186693916088
1265,1465.0,0.0686568729100888
1266,1466.0,0.060645664216185585
1267,1467.0,0.057891013593256296
1268,1468.0,0.058885718679925696
1269,1469.0,0.059387107711672854
1270,1470.0,0.05766474098449302
1271,1471.0,0.049492272839860775
1272,1472.0,0.044375884152010256
1273,1473.0,0.04120743156353706
1274,1474.0,0.039943296189213565
1275,1475.0,0.03732827385004558
1276,1476.0,0.035331397056584724
1277,1477.0,0.03973251571472303
1278,1478.0,0.040357097640248696
1279,1479.0,0.042211681856188676
1280,1480.0,0.04085221103551845
1281,1481.0,0.03398630128963061
1282,1482.0,0.03632312660647787
1283,1483.0,0.03555922717078838
1284,1484.0,0.039672438112127326
1285,1485.0,0.03650086561990884
1286,1486.0,0.03698779344152859
1287,1487.0,0.039710991201700456
1288,1488.0,0.03510595252002508
1289,1489.0,0.031251737679944776
1290,1490.0,0.03052221731555983
1291,1491.0,0.029664186470607493
1292,1492.0,0.034672737985192055
1293,1493.0,0.03507436054414862
1294,1494.0,0.03797613733689675
1295,1495.0,0.03710812998903902
1296,1496.0,0.04163928693076293
1297,1497.0,0.03981463143473818
1298,1498.0,0.03603778126585866
1299,1499.0,0.028733912599979903
1300,1500.0,0.025834765691150043
1301,1501.0,0.02210759250678656
1302,1502.0,0.02293209619041077
1303,1503.0,0.023727643233615734
1304,1504.0,0.025906188941419144
1305,1505.0,0.02830748175910855
1306,1506.0,0.03379952401478842
1307,1507.0,0.02948625863354261
1308,1508.0,0.030323009187332755
1309,1509.0,0.02433061740216405
1310,1510.0,0.022433105444870326
1311,1511.0,0.020279695265790394
1312,1512.0,0.023126807757846143
1313,1513.0,0.022942958368351883
1314,1514.0,0.02403466271025168
1315,1515.0,0.023824149039931092
1316,1516.0,0.02957994686200214
1317,1517.0,0.030038251465524694
1318,1518.0,0.03384771161265975
1319,1519.0,0.03306034757358372
1320,1520.0,0.0351295154955535
1321,1521.0,0.03368767561752823
1322,1522.0,0.03685562482060508
1323,1523.0,0.03466932508197021
1324,1524.0,0.03478274663504804
1325,1525.0,0.033616469416831045
1326,1526.0,0.03356048687962957
1327,1527.0,0.033574237511769
1328,1528.0,0.03385016471668948
1329,1529.0,0.027041125243084017
1330,1530.0,0.024203322397640108
1331,1531.0,0.02247096736557283
1332,1532.0,0.02530812408502812
1333,1533.0,0.025750032086147488
1334,1534.0,0.02801614659061294
1335,1535.0,0.029111020967846825
1336,1536.0,0.027872726850839996
1337,1537.0,0.031942654650877346
1338,1538.0,0.031066155160674565
1339,1539.0,0.029984274124700977
1340,1540.0,0.03349393869696362
1341,1541.0,0.03658441516580886
1342,1542.0,0.03635233449025548
1343,1543.0,0.03593725870705184
1344,1544.0,0.036275302984372676
1345,1545.0,0.03519609203905402
1346,1546.0,0.035090894249901285
1347,1547.0,0.03545935117780605
1348,1548.0,0.033506095741929455
1349,1549.0,0.037330885120515696
1350,1550.0,0.03995389402190877
1351,1551.0,0.04204830480402505
1352,1552.0,0.04062987086922683
1353,1553.0,0.04342921656584002
1354,1554.0,0.04758763338453036
1355,1555.0,0.04928750083226044
1356,1556.0,0.05050110529059862
1357,1557.0,0.050467918517548116
1358,1558.0,0.05293053988975013
1359,1559.0,0.05227318878286031
1360,1560.0,0.05220214150562212
1361,1561.0,0.05407329095589425
1362,1562.0,0.05889247509185954
1363,1563.0,0.06570573264294165
1364,1564.0,0.07360870840570372
1365,1565.0,0.0758944577876211
1366,1566.0,0.07972397517122674
1367,1567.0,0.08685587698819526
1368,1568.0,0.09347549540384571
1369,1569.0,0.09676320783403478
1370,1570.0,0.10313449193137889
1371,1571.0,0.11091241726116019
1372,1572.0,0.12025532975397424
1373,1573.0,0.13237048016963274
1374,1574.0,0.1481662535401327
1375,1575.0,0.1666156366945954
1376,1576.0,0.1911452765153872
1377,1577.0,0.21931049137842218
1378,1578.0,0.25739660876956766
1379,1579.0,0.29536341496606683
1380,1580.0,0.336325267159861
1381,1581.0,0.3643595717681777
1382,1582.0,0.38347645678934295
1383,1583.0,0.39410537425356423
1384,1584.0,0.3951549752024228
1385,1585.0,0.3817900474602588
1386,1586.0,0.35802484095086934
1387,1587.0,0.33225866404441995
1388,1588.0,0.31604690127927937
1389,1589.0,0.2967288313982789
1390,1590.0,0.2877069548224144
1391,1591.0,0.2818842741822726
1392,1592.0,0.28756719978091416
1393,1593.0,0.3037825221430761
1394,1594.0,0.3271420151635552
1395,1595.0,0.3553720468051714
1396,1596.0,0.3954459256347851
1397,1597.0,0.44690989568936407
1398,1598.0,0.5061780827085182
1399,1599.0,0.5639924294005397
1400,1600.0,0.6128461996013098
1401,1601.0,0.6479738962946503
1402,1602.0,0.6609835515211641
1403,1603.0,0.6525598290769475
1404,1604.0,0.6155028002794936
1405,1605.0,0.5579966115625957
1406,1606.0,0.49093218218131185
1407,1607.0,0.4226264802385837
1408,1608.0,0.3600583910719637
1409,1609.0,0.30671799374070324
1410,1610.0,0.2609390963888917
1411,1611.0,0.22873033947784036
1412,1612.0,0.2028406362061936
1413,1613.0,0.18482658466749444
1414,1614.0,0.16740095587333412
1415,1615.0,0.1546621448748943
1416,1616.0,0.14212043368383695
1417,1617.0,0.1333784607586496
1418,1618.0,0.12517222599411118
1419,1619.0,0.11267133527779409
1420,1620.0,0.1075245911504138
1421,1621.0,0.10122073442576293
1422,1622.0,0.09327133254205715
1423,1623.0,0.08371148845441374
1424,1624.0,0.07747329993880388
1425,1625.0,0.07323939877140659
1426,1626.0,0.06559718347463285
1427,1627.0,0.060980801157927984
1428,1628.0,0.05437209710660429
1429,1629.0,0.0478441374028264
1430,1630.0,0.046158421352916756
1431,1631.0,0.04564540323062829
1432,1632.0,0.04546283905421652
1433,1633.0,0.04206587588624927
1434,1634.0,0.04709751626853316
1435,1635.0,0.048978782961162946
1436,1636.0,0.0484059583950826
1437,1637.0,0.04670895856377566
1438,1638.0,0.045224508574068456
1439,1639.0,0.047578683588284904
1440,1640.0,0.042201037107464194
1441,1641.0,0.04472911663770936
1442,1642.0,0.041557454804992004
1443,1643.0,0.041128206287356806
1444,1644.0,0.04670339563980989
1445,1645.0,0.04642554198499015
1446,1646.0,0.04466716989990233
1447,1647.0,0.04543711387933002
1448,1648.0,0.0462357668613564
1449,1649.0,0.042049281089750916
1450,1650.0,0.03927623912289251
1451,1651.0,0.03940787664095237
1452,1652.0,0.033699557488371674
1453,1653.0,0.03502133497663455
1454,1654.0,0.037587492109391996
1455,1655.0,0.039185069850343854
1456,1656.0,0.042138097750079456
1457,1657.0,0.04515463164487231
1458,1658.0,0.04547321946602756
1459,1659.0,0.042945940583740995
1460,1660.0,0.04598722829003451
1461,1661.0,0.045336792959178904
1462,1662.0,0.04233865407137489
1463,1663.0,0.04020920612578306
1464,1664.0,0.04031606622586364
1465,1665.0,0.037135683601327095
1466,1666.0,0.0332992773858188
1467,1667.0,0.028683629905925077
1468,1668.0,0.026415319485760293
1469,1669.0,0.024270311343902576
1470,1670.0,0.02649156971619809
1471,1671.0,0.03132269281366741
1472,1672.0,0.034962769333746584
1473,1673.0,0.03860839736519796
1474,1674.0,0.03735282074085904
1475,1675.0,0.03365702112142894
1476,1676.0,0.029993319393936044
1477,1677.0,0.029553573961892
1478,1678.0,0.029795967090621694
1479,1679.0,0.03032463589903593
1480,1680.0,0.031501917527615844
1481,1681.0,0.03391776553762299
1482,1682.0,0.03429091073800904
1483,1683.0,0.036281511375947054
1484,1684.0,0.0311000615947411
1485,1685.0,0.02935110403074876
1486,1686.0,0.025343146223980248
1487,1687.0,0.028694118430149657
1488,1688.0,0.03218257102116876
1489,1689.0,0.03448181523747557
1490,1690.0,0.03133977961135535
1491,1691.0,0.0326455796535252
1492,1692.0,0.03511500673675628
1493,1693.0,0.03751676935565716
1494,1694.0,0.03742696424671691
1495,1695.0,0.04011534464730315
1496,1696.0,0.039430062729160914
1497,1697.0,0.04601956313690641
1498,1698.0,0.05087947594712615
1499,1699.0,0.049120960413807924
1500,1700.0,0.04528707694809685
1501,1701.0,0.04602542701643114
1502,1702.0,0.04446689830458225
1503,1703.0,0.03858035398264368
1504,1704.0,0.03324418554286006
1505,1705.0,0.03370881852182922
1506,1706.0,0.03307142488513423
1507,1707.0,0.03774046925738184
1508,1708.0,0.040896117731333816
1509,1709.0,0.04093814061320838
1510,1710.0,0.041257851522930336
1511,1711.0,0.0411512200144242
1512,1712.0,0.03837002021231766
1513,1713.0,0.032119304384303805
1514,1714.0,0.029736180153691134
1515,1715.0,0.02901243584059831
1516,1716.0,0.029733911625101753
1517,1717.0,0.031084001363548816
1518,1718.0,0.030476004943263874
1519,1719.0,0.033484816111563384
1520,1720.0,0.03445703837775688
1521,1721.0,0.03371536638569649
1522,1722.0,0.03299182751485063
1523,1723.0,0.03386003837519377
1524,1724.0,0.03412417844225927
1525,1725.0,0.035339907453670445
1526,1726.0,0.03746936865046709
1527,1727.0,0.035352622177807956
1528,1728.0,0.030587395152187172
1529,1729.0,0.03264765659252148
1530,1730.0,0.03504363707212837
1531,1731.0,0.031280338995902914
1532,1732.0,0.03027808574555564
1533,1733.0,0.03684175575386286
1534,1734.0,0.036607624666095726
1535,1735.0,0.037102378412400376
1536,1736.0,0.03904817387344348
1537,1737.0,0.03458075654238054
1538,1738.0,0.03060214657014651
1539,1739.0,0.03350754297269842
1540,1740.0,0.03538405220426579
1541,1741.0,0.03594461455659874
1542,1742.0,0.041420444932402004
1543,1743.0,0.04735111422175888
1544,1744.0,0.04353762092784362
1545,1745.0,0.04165761676178005
1546,1746.0,0.04018307164674595
1547,1747.0,0.03525250273453668
1548,1748.0,0.03190606233243783
1549,1749.0,0.033153590617530176
1550,1750.0,0.035506681733105165
1551,1751.0,0.035395926407333085
1552,1752.0,0.038858654113276735
1553,1753.0,0.042159145576717474
1554,1754.0,0.0433780435990855
1555,1755.0,0.045859697631245255
1556,1756.0,0.04689105741324554
1557,1757.0,0.04962123760552021
1558,1758.0,0.05039779831227884
1559,1759.0,0.0490580585563716
1560,1760.0,0.04681146239312438
1561,1761.0,0.03876491630037317
1562,1762.0,0.038659868167674104
1563,1763.0,0.03569531326264182
1564,1764.0,0.0363289941645171
1565,1765.0,0.03475794986954876
1566,1766.0,0.03680753062978567
1567,1767.0,0.039729630908130385
1568,1768.0,0.04019524374528623
1569,1769.0,0.039060819713311816
1570,1770.0,0.04090263103661459
1571,1771.0,0.04100625538062682
1572,1772.0,0.04340749232491324
1573,1773.0,0.043793859270532975
1574,1774.0,0.04637927511405681
1575,1775.0,0.044144509475326756
1576,1776.0,0.045069965270477526
1577,1777.0,0.04316056775889769
1578,1778.0,0.04217821665261635
1579,1779.0,0.03974753173500253
1580,1780.0,0.03925588678365856
1581,1781.0,0.03953901378397452
1582,1782.0,0.04156795255953087
1583,1783.0,0.0471406244630155
1584,1784.0,0.04649246692203508
1585,1785.0,0.044872272225747314
1586,1786.0,0.040818522485187435
1587,1787.0,0.03894603716629543
1588,1788.0,0.041576201319011526
1589,1789.0,0.03679788028567558
1590,1790.0,0.03718689341548401
1591,1791.0,0.037225921868602144
1592,1792.0,0.03873581235337098
1593,1793.0,0.045505024402928515
1594,1794.0,0.04929334592668374
1595,1795.0,0.04740886885976209
1596,1796.0,0.04629442490923636
1597,1797.0,0.051628653624640905
1598,1798.0,0.05267787217979355
1599,1799.0,0.05656477474847036
1600,1800.0,0.056153178552072906
1601,1801.0,0.051136181327851124
1602,1802.0,0.049445957467641403
1603,1803.0,0.04791145234332191
1604,1804.0,0.05228464761111038
1605,1805.0,0.05034701052401316
1606,1806.0,0.050118800254047566
1607,1807.0,0.04938054314306637
1608,1808.0,0.04439090428999542
1609,1809.0,0.04742015709725896
1610,1810.0,0.043743115247529156
1611,1811.0,0.03898364828752338
1612,1812.0,0.04038304907006744
1613,1813.0,0.04351969590023343
1614,1814.0,0.049116114684451415
1615,1815.0,0.05570879055047573
1616,1816.0,0.05650192709432078
1617,1817.0,0.055039716595853515
1618,1818.0,0.04929474342893505
1619,1819.0,0.047462734589802894
1620,1820.0,0.042130267575245454
1621,1821.0,0.039373800920084315
1622,1822.0,0.040653062434752876
1623,1823.0,0.043935043247904
1624,1824.0,0.04406062528925642
1625,1825.0,0.04507661570312002
1626,1826.0,0.04551896002491448
1627,1827.0,0.0444367443725772
1628,1828.0,0.04526843264755852
1629,1829.0,0.04524827208890446
1630,1830.0,0.04586796585720764
1631,1831.0,0.049952537980723744
1632,1832.0,0.05082374704684306
1633,1833.0,0.05412900392760045
1634,1834.0,0.05524223018245387
1635,1835.0,0.05363688603681937
1636,1836.0,0.05307590360880967
1637,1837.0,0.04994676020197601
1638,1838.0,0.048213801343283
1639,1839.0,0.05141353776572134
1640,1840.0,0.051922201815399936
1641,1841.0,0.05123379451198704
1642,1842.0,0.051338728780216863
1643,1843.0,0.05218322064064254
1644,1844.0,0.05159231903820797
1645,1845.0,0.05415930661988365
1646,1846.0,0.046983516766105446
1647,1847.0,0.04376067175104736
1648,1848.0,0.04305948227484469
1649,1849.0,0.049154261071875344
1650,1850.0,0.047871554708367924
1651,1851.0,0.051325303677514915
1652,1852.0,0.054913430895564885
1653,1853.0,0.05907631677314311
1654,1854.0,0.06037775376967191
1655,1855.0,0.06109035394545634
1656,1856.0,0.052506742518228774
1657,1857.0,0.05175453969562693
1658,1858.0,0.04878654765537305
1659,1859.0,0.04587172943100407
1660,1860.0,0.041650100925039665
1661,1861.0,0.04412276508245204
1662,1862.0,0.04796545430663991
1663,1863.0,0.05274323500919245
1664,1864.0,0.053668893150914214
1665,1865.0,0.05478091950771195
1666,1866.0,0.05571230021866705
1667,1867.0,0.05704078294481724
1668,1868.0,0.05291860072415943
1669,1869.0,0.05092756484499938
1670,1870.0,0.049544062398164175
1671,1871.0,0.0550017290455794
1672,1872.0,0.05571922103113563
1673,1873.0,0.054894614329295995
1674,1874.0,0.05479225694719874
1675,1875.0,0.05485606174575064
1676,1876.0,0.05678401972562065
1677,1877.0,0.05319910931081988
1678,1878.0,0.05226487912749946
1679,1879.0,0.0501204129484361
1680,1880.0,0.05347673827433879
1681,1881.0,0.06329513185802198
1682,1882.0,0.05977306903719838
1683,1883.0,0.06189936845153594
1684,1884.0,0.06285837447072987
1685,1885.0,0.05955318063016578
1686,1886.0,0.060129380205232244
1687,1887.0,0.05456846211811311
1688,1888.0,0.05302350707781229
1689,1889.0,0.053681704662889844
1690,1890.0,0.06012259463775489
1691,1891.0,0.06800365426497806
1692,1892.0,0.067087616245379
1693,1893.0,0.06900394644130724
1694,1894.0,0.06551915472491193
1695,1895.0,0.05948603611918916
1696,1896.0,0.05647461655432581
1697,1897.0,0.05549029609834767
1698,1898.0,0.051624806121176474
1699,1899.0,0.05451874198492395
1700,1900.0,0.0567170230300452
1701,1901.0,0.06201581376387526
1702,1902.0,0.06717287703788785
1703,1903.0,0.06777997884988017
1704,1904.0,0.06909601466192054
1705,1905.0,0.0735149427502806
1706,1906.0,0.07320428567796335
1707,1907.0,0.07376105801307599
1708,1908.0,0.07215302444531797
1709,1909.0,0.07210476570084205
1710,1910.0,0.07263632008013872
1711,1911.0,0.07496331041255885
1712,1912.0,0.0777141014314228
1713,1913.0,0.07633169844790169
1714,1914.0,0.0758666722043621
1715,1915.0,0.07876824490392405
1716,1916.0,0.07544638671213075
1717,1917.0,0.07207336709987054
1718,1918.0,0.0724371975361447
1719,1919.0,0.07195829952235856
1720,1920.0,0.06802362338936306
1721,1921.0,0.06220503019384673
1722,1922.0,0.0634640513367113
1723,1923.0,0.060223535884077355
1724,1924.0,0.06481089357820614
1725,1925.0,0.06863057001648354
1726,1926.0,0.07355083160416881
1727,1927.0,0.07545028946652861
1728,1928.0,0.078999119445567
1729,1929.0,0.0792708564376554
1730,1930.0,0.07639633090068039
1731,1931.0,0.07187789749530465
1732,1932.0,0.06814720175393818
1733,1933.0,0.0656040858237786
1734,1934.0,0.06605142285299251
1735,1935.0,0.06472125244672097
1736,1936.0,0.06678832347142137
1737,1937.0,0.0665366508263634
1738,1938.0,0.06778379307559394
1739,1939.0,0.07042866790915941
1740,1940.0,0.07589849430356463
1741,1941.0,0.07505936686988689
1742,1942.0,0.07312829059453348
1743,1943.0,0.07925116271290004
1744,1944.0,0.07652105649491119
1745,1945.0,0.08172061275549675
1746,1946.0,0.08417741788973725
1747,1947.0,0.08357944434112471
1748,1948.0,0.08280368960696279
1749,1949.0,0.0824242295162931
1750,1950.0,0.08087710332789003
1751,1951.0,0.07363685064287286
1752,1952.0,0.07426496410579451
1753,1953.0,0.07949725999516385
1754,1954.0,0.08194646957507354
1755,1955.0,0.0898433608710678
1756,1956.0,0.09230912282219596
1757,1957.0,0.08987942520909668
1758,1958.0,0.09128094702028604
1759,1959.0,0.0878932747181681
1760,1960.0,0.08862137172864382
1761,1961.0,0.08388603122026562
1762,1962.0,0.08634444136078803
1763,1963.0,0.08627890083662274
1764,1964.0,0.08744423161770129
1765,1965.0,0.08428616530053025
1766,1966.0,0.08214306608716647
1767,1967.0,0.07895359016217343
1768,1968.0,0.08067937222823224
1769,1969.0,0.07958888928518494
1770,1970.0,0.08657251955574011
1771,1971.0,0.08931500803647795
1772,1972.0,0.0901763495981702
1773,1973.0,0.09270184136478532
1774,1974.0,0.09479360733258595
1775,1975.0,0.09570967158794996
1776,1976.0,0.0975255256304375
1777,1977.0,0.09468142957393205
1778,1978.0,0.09553468300157032
1779,1979.0,0.09186362681609388
1780,1980.0,0.09322675421554143
1781,1981.0,0.09055351069109112
1782,1982.0,0.09035802991697114
1783,1983.0,0.09669952411401118
1784,1984.0,0.09629671806552209
1785,1985.0,0.09989688556890564
1786,1986.0,0.09991169957628679
1787,1987.0,0.1012169073980899
1788,1988.0,0.10412269863924109
1789,1989.0,0.10651012192824363
1790,1990.0,0.10935848092863014
1791,1991.0,0.10683118761615659
1792,1992.0,0.10866980628056597
1793,1993.0,0.11226959760651592
1794,1994.0,0.10831194187832333
1795,1995.0,0.10656752755388126
1796,1996.0,0.10392405081354948
1797,1997.0,0.1009815169132519
1798,1998.0,0.09790852304965642
1799,1999.0,0.09487366641943097
1800,2000.0,0.0920455442192435
