pixel_index,raman_shift_cm-1,intensity
0,200.000,4.66174119469224
1,201.000,6.135016067723825
2,202.000,12.82045786392922
3,203.000,18.876554156608165
4,204.000,1.3522315149823498
5,205.000,1.1703175041949976
6,206.000,10.142812685311014
7,207.000,1.2112136153170923
8,208.000,-0.6025221528786915
9,209.000,14.796739929553837
10,210.000,3.9131434073661353
11,211.000,10.04524882123178
12,212.000,8.621211707745715
13,213.000,5.824378599424563
14,214.000,4.963834024706728
15,215.000,13.133170507952457
16,216.000,12.080268569443263
17,217.000,0.12870772538281017
18,218.000,4.288100487896031
19,219.000,3.5983063650298845
20,220.000,6.364326860752783
21,221.000,25.14315747495499
22,222.000,5.075067703448269
23,223.000,13.125360037966175
24,224.000,2.4946539661639804
25,225.000,14.434685971618535
26,226.000,-1.5841744661714756
27,227.000,5.13491312821418
28,228.000,5.070056226117458
29,229.000,14.052840294802024
30,230.000,-0.6362542025468656
31,231.000,15.56617219317792
32,232.000,13.62109793700506
33,233.000,-3.7333465201151625
34,234.000,1.0539492686893368
35,235.000,3.553183746212369
36,236.000,4.471804351169283
37,237.000,20.223495518197296
38,238.000,24.190026677855144
39,239.000,15.997214256623352
40,240.000,27.966236676904032
41,241.000,7.786835357021005
42,242.000,16.32377771121992
43,243.000,16.41205514966788
44,244.000,15.909836078453907
45,245.000,16.05757689958847
46,246.000,12.732914011003743
47,247.000,7.617197806553975
48,248.000,15.091274676014564
49,249.000,16.9259660050829
50,250.000,19.55301717537799
51,251.000,13.695565564440528
52,252.000,16.8167795457328
53,253.000,21.85757848863898
54,254.000,15.432644758464733
55,255.000,18.546173716437465
56,256.000,12.997381719706254
57,257.000,15.625878121342055
58,258.000,20.905591270337084
59,259.000,14.705377511605718
60,260.000,19.188321185983682
61,261.000,13.165040630228475
62,262.000,11.755181177019438
63,263.000,14.32475215495731
64,264.000,16.362859888564685
65,265.000,12.506625698285859
66,266.000,18.65794690048682
67,267.000,14.155312807455061
68,268.000,22.1577117274
69,269.000,23.447009964452548
70,270.000,11.73897481866544
71,271.000,12.094949586013001
72,272.000,17.24248255839126
73,273.000,21.336650023618063
74,274.000,20.197691265432525
75,275.000,21.405756563496084
76,276.000,18.177699193391277
77,277.000,16.091575426622683
78,278.000,6.843084530616295
79,279.000,21.52826576872019
80,280.000,31.537553400203592
81,281.000,21.04862368025789
82,282.000,18.440866859995936
83,283.000,19.92944918645219
84,284.000,17.845758902583043
85,285.000,17.075259247266217
86,286.000,16.358175455301534
87,287.000,20.633888757410148
88,288.000,17.527898380235058
89,289.000,5.8386105463410445
90,290.000,27.089125474214313
91,291.000,22.789740378262934
92,292.000,10.4848514688166
93,293.000,30.78739795212681
94,294.000,0.9956080303664407
95,295.000,23.02813990163048
96,296.000,8.890713759935181
97,297.000,26.36825279521878
98,298.000,32.674002193341096
99,299.000,13.18710413608369
100,300.000,15.892403801149555
101,301.000,31.063784362163688
102,302.000,25.70268398867256
103,303.000,15.008965846144463
104,304.000,27.0518780959693
105,305.000,24.966717895458714
106,306.000,18.399977397845873
107,307.000,19.41609875228579
108,308.000,22.27811610385521
109,309.000,25.194114593552342
110,310.000,12.184589358297217
111,311.000,16.982520530931595
112,312.000,16.592720240218853
113,313.000,34.785034610844036
114,314.000,19.460350763413828
115,315.000,13.268400814456754
116,316.000,16.897402876422916
117,317.000,12.835502057684096
118,318.000,13.702729462533853
119,319.000,21.389779191187188
120,320.000,27.0128943397811
121,321.000,16.57186400037409
122,322.000,22.262143260946402
123,323.000,22.670980205399815
124,324.000,23.685584913558046
125,325.000,20.281055461166375
126,326.000,21.08942291989166
127,327.000,28.4486983573226
128,328.000,30.98752583696944
129,329.000,23.112685418264334
130,330.000,13.520832156560857
131,331.000,28.858790103134368
132,332.000,19.85511930518203
133,333.000,28.45947680582242
134,334.000,14.464677644096014
135,335.000,12.66516185496505
136,336.000,18.691550469313256
137,337.000,17.557602513945994
138,338.000,16.74656401159052
139,339.000,34.18094698089561
140,340.000,24.4642204364319
141,341.000,21.745491388691505
142,342.000,27.83876984408829
143,343.000,33.23355280495798
144,344.000,29.021708269557678
145,345.000,28.38141223206634
146,346.000,21.56457968258468
147,347.000,37.01949560713496
148,348.000,22.3061329876611
149,349.000,16.376434802028882
150,350.000,24.521298024025725
151,351.000,23.820315623360443
152,352.000,16.60034556566393
153,353.000,24.985247812488637
154,354.000,24.725891321308552
155,355.000,19.823424045519516
156,356.000,25.358289934438858
157,357.000,25.04191393330592
158,358.000,20.6236209832814
159,359.000,25.076245021447846
160,360.000,28.570032980809458
161,361.000,12.822319790292113
162,362.000,27.48992837474333
163,363.000,21.17608065493249
164,364.000,18.13374454755035
165,365.000,22.782725965209636
166,366.000,17.548525816444567
167,367.000,22.16747700571125
168,368.000,28.3611704333872
169,369.000,14.30939399577187
170,370.000,9.162729585086254
171,371.000,30.690813089473068
172,372.000,25.610917392996726
173,373.000,25.547605375643286
174,374.000,35.81247791332055
175,375.000,18.700103877857828
176,376.000,20.243603137006517
177,377.000,20.98852155443916
178,378.000,23.089377989750403
179,379.000,22.565147298456566
180,380.000,22.097724331995096
181,381.000,18.783341937725993
182,382.000,33.803130958930296
183,383.000,24.748769234810823
184,384.000,22.82379460049242
185,385.000,30.468464887021128
186,386.000,14.614652921365007
187,387.000,29.89115752641385
188,388.000,16.32493952097883
189,389.000,24.806149719792927
190,390.000,18.421418933511006
191,391.000,27.945413968709317
192,392.000,16.736776627886
193,393.000,26.492631709460795
194,394.000,20.77096000777516
195,395.000,28.71733031309219
196,396.000,20.243366411596696
197,397.000,18.220406085395098
198,398.000,30.28427711251578
199,399.000,14.925008266908378
200,400.000,25.375255318444488
201,401.000,25.614088032917323
202,402.000,23.402484172041852
203,403.000,27.94884949345459
204,404.000,23.046641750713945
205,405.000,24.531444693299704
206,406.000,27.54875406661364
207,407.000,25.594985611978927
208,408.000,25.24614006664075
209,409.000,28.686839163765683
210,410.000,15.749240632442195
211,411.000,17.52184919768024
212,412.000,23.277276580411524
213,413.000,30.711943497489642
214,414.000,19.880249661689675
215,415.000,23.29453478170825
216,416.000,29.106574562163985
217,417.000,31.97061870359704
218,418.000,28.09751490246913
219,419.000,27.78692785116391
220,420.000,27.74934923798662
221,421.000,14.277950747164084
222,422.000,20.099838058844853
223,423.000,25.710672849099126
224,424.000,16.32440878991912
225,425.000,12.040342549218167
226,426.000,14.310088790831799
227,427.000,29.75442317451683
228,428.000,15.492072355952075
229,429.000,28.305079986737837
230,430.000,33.868694714396156
231,431.000,14.290894182370721
232,432.000,22.383661030027156
233,433.000,18.357959892652275
234,434.000,18.900990401454976
235,435.000,18.75722818356587
236,436.000,12.400998862036829
237,437.000,24.778915055841935
238,438.000,17.639661379876543
239,439.000,24.90356244495797
240,440.000,22.219061857824954
241,441.000,20.685420221138088
242,442.000,20.63120713347979
243,443.000,21.167074189353855
244,444.000,20.72044797918602
245,445.000,26.70405708932327
246,446.000,24.910397102035006
247,447.000,25.314754595511545
248,448.000,25.4269941438655
249,449.000,26.12375931713069
250,450.000,30.086288681263056
251,451.000,31.498060798139875
252,452.000,25.84383022556017
253,453.000,28.797298517244883
254,454.000,17.649619222836236
255,455.000,21.15566988789857
256,456.000,27.337341053917726
257,457.000,17.439146258301037
258,458.000,24.170271034377663
259,459.000,26.177374911398715
260,460.000,17.729476414536578
261,461.000,12.857534064885499
262,462.000,20.328967379461403
263,463.000,10.754418871201949
264,464.000,22.704056048966322
265,465.000,19.60689241753562
266,466.000,13.838576477612492
267,467.000,14.229319725821199
268,468.000,36.4388646547078
269,469.000,16.498727752740024
270,470.000,21.429946504307168
271,471.000,25.38964038972034
272,472.000,24.138092885212416
273,473.000,23.489785462937732
274,474.000,20.82573859097232
275,475.000,24.832977733314294
276,476.000,20.003673349882774
277,477.000,23.652671896519223
278,478.000,27.884172824986308
279,479.000,21.81899658296868
280,480.000,19.503003614072554
281,481.000,13.719328357825873
282,482.000,17.8154132496781
283,483.000,20.943707721000578
284,484.000,23.046037199086356
285,485.000,13.912187107149975
286,486.000,20.63184686432777
287,487.000,14.713044885677789
288,488.000,14.144340582179666
289,489.000,21.764543360734876
290,490.000,25.02015262416637
291,491.000,17.772784771218994
292,492.000,18.69788719655918
293,493.000,23.142095290774932
294,494.000,22.056892440376146
295,495.000,37.05233002779431
296,496.000,27.898139431382447
297,497.000,11.589735025415564
298,498.000,36.04005418009001
299,499.000,16.364671261524336
300,500.000,11.893361631758125
301,501.000,11.517550648752945
302,502.000,22.259909666392332
303,503.000,11.940739034480941
304,504.000,16.94506509874566
305,505.000,27.222739200834553
306,506.000,13.57151467831784
307,507.000,12.129526864687136
308,508.000,22.044460089355766
309,509.000,15.183351677658777
310,510.000,22.402969950852935
311,511.000,23.178690226116544
312,512.000,19.8970258165499
313,513.000,27.0996230311747
314,514.000,14.620382174934434
315,515.000,6.16736654869419
316,516.000,13.496896449240808
317,517.000,23.13932516928287
318,518.000,26.818015997450573
319,519.000,10.605240218295762
320,520.000,26.908002112292024
321,521.000,15.024483955834569
322,522.000,15.535004021240411
323,523.000,29.47043357674829
324,524.000,25.925675886518093
325,525.000,20.9514792106321
326,526.000,27.558848805094044
327,527.000,2.8681219218292426
328,528.000,22.028422808684468
329,529.000,22.22948370942879
330,530.000,23.604168863752648
331,531.000,16.004177507267627
332,532.000,25.15601387150798
333,533.000,12.772125183928893
334,534.000,13.308329667907856
335,535.000,29.985669542743494
336,536.000,18.152815023656103
337,537.000,12.140130321788206
338,538.000,12.907319644203312
339,539.000,27.773985193887256
340,540.000,29.197326169747384
341,541.000,25.067263766612314
342,542.000,17.299219175232906
343,543.000,19.56210658228099
344,544.000,20.239188170351326
345,545.000,15.973186117958903
346,546.000,21.16586159954136
347,547.000,15.735267785457836
348,548.000,23.634675841988496
349,549.000,21.265754931336346
350,550.000,14.594125211625283
351,551.000,11.541781836900782
352,552.000,23.205135957130665
353,553.000,30.949444718203836
354,554.000,16.10696326193124
355,555.000,29.097003726045386
356,556.000,34.49482024420024
357,557.000,12.563141945971779
358,558.000,12.81780695685768
359,559.000,22.79341239827704
360,560.000,20.24888738757079
361,561.000,10.247215038001514
362,562.000,25.093777458753493
363,563.000,20.258126754932846
364,564.000,23.958424027566934
365,565.000,21.762565373605185
366,566.000,1.8412718859189
367,567.000,20.130963653300455
368,568.000,24.687415760464205
369,569.000,10.352263288046402
370,570.000,13.952066312604757
371,571.000,21.985924906618607
372,572.000,14.000087138489107
373,573.000,15.422172072539183
374,574.000,19.298264769013144
375,575.000,25.786432284077137
376,576.000,14.541765669819256
377,577.000,26.360102974248775
378,578.000,15.829887241297115
379,579.000,14.011122510817131
380,580.000,23.52487681858338
381,581.000,17.220842196292097
382,582.000,12.20162367156081
383,583.000,19.251644267930033
384,584.000,2.431071004860655
385,585.000,11.843752897735499
386,586.000,20.408771957859244
387,587.000,15.869599192458963
388,588.000,22.1081436046818
389,589.000,30.799981193598
390,590.000,10.816603954198854
391,591.000,14.66498787739738
392,592.000,9.758269950028534
393,593.000,13.831000154848539
394,594.000,25.792340470536033
395,595.000,17.299516871690344
396,596.000,14.636439328833148
397,597.000,18.37272480840784
398,598.000,28.864747272779027
399,599.000,21.71559068023339
400,600.000,23.08094798497939
401,601.000,19.942737137146764
402,602.000,31.964263082787056
403,603.000,26.055704763873678
404,604.000,24.236019118301556
405,605.000,45.33248607988776
406,606.000,24.916035578370042
407,607.000,30.977428539408834
408,608.000,40.65800588458569
409,609.000,47.117553531404155
410,610.000,41.86798139328914
411,611.000,58.48381937958743
412,612.000,64.89456939556783
413,613.000,71.99985034242013
414,614.000,74.73722111725624
415,615.000,97.1141056131097
416,616.000,106.17001671893559
417,617.000,142.7859803196112
418,618.000,160.86396329593447
419,619.000,188.0021595246261
420,620.000,189.31802387832784
421,621.000,178.45533822560333
422,622.000,153.218625430938
423,623.000,129.77248535473848
424,624.000,112.28252085333372
425,625.000,99.67982677897407
426,626.000,76.09268297983158
427,627.000,62.933120299999814
428,628.000,53.92537957949412
429,629.000,59.28697165425183
430,630.000,46.60655035613138
431,631.000,37.81348251291354
432,632.000,42.54407794830013
433,633.000,28.843752481915317
434,634.000,18.834871929304427
435,635.000,33.27213710193462
436,636.000,32.049725807194704
437,637.000,16.36054384839531
438,638.000,23.264338024768676
439,639.000,14.462326131468899
440,640.000,19.669348959571153
441,641.000,13.110362296073049
442,642.000,22.978462923893517
443,643.000,19.059174621873126
444,644.000,28.010676164774168
445,645.000,26.811449323280613
446,646.000,18.896383863998494
447,647.000,16.847564549454773
448,648.000,25.30425913809904
449,649.000,17.837828384301588
450,650.000,16.579041038354944
451,651.000,11.86175984647332
452,652.000,16.894533550792403
453,653.000,7.90376288937
454,654.000,20.398537596184724
455,655.000,15.82566540113794
456,656.000,19.558738030051927
457,657.000,11.074360204670938
458,658.000,15.228165642661224
459,659.000,17.48395505760959
460,660.000,14.220321159025957
461,661.000,13.252700652340991
462,662.000,25.43037423890769
463,663.000,13.306808616000012
464,664.000,6.230022476814042
465,665.000,9.384179510467561
466,666.000,9.768986401999769
467,667.000,15.330083832371884
468,668.000,10.981021478466687
469,669.000,17.887647013088554
470,670.000,21.5574701049635
471,671.000,18.028586418739224
472,672.000,18.893241614985527
473,673.000,8.738467350193332
474,674.000,13.805221276775569
475,675.000,10.075822043066864
476,676.000,20.14573729332301
477,677.000,14.311904667722274
478,678.000,12.500538802364076
479,679.000,23.526969329269946
480,680.000,10.434300876382736
481,681.000,5.985749067566758
482,682.000,8.652217522608339
483,683.000,11.321431857215885
484,684.000,4.290450683018776
485,685.000,13.766463607568312
486,686.000,11.81156823433787
487,687.000,7.086451162722028
488,688.000,10.846779988037042
489,689.000,21.091322301521245
490,690.000,11.329929690334325
491,691.000,28.387791737557336
492,692.000,8.26782202219431
493,693.000,18.809915119169204
494,694.000,9.244558599329025
495,695.000,6.089591029441749
496,696.000,25.0662889721973
497,697.000,11.133706986207358
498,698.000,21.905408626005283
499,699.000,19.42264944204578
500,700.000,10.3202939807054
501,701.000,0.5441697842825306
502,702.000,16.009318390997123
503,703.000,11.474481334990855
504,704.000,21.077348146327267
505,705.000,14.152334350991168
506,706.000,12.418432470889456
507,707.000,1.7817550238503372
508,708.000,8.623319523624218
509,709.000,16.79816247988242
510,710.000,12.03663639821832
511,711.000,8.162478780147808
512,712.000,13.364838123107006
513,713.000,25.74251492045471
514,714.000,5.081827661471266
515,715.000,-0.7683831686418898
516,716.000,13.989683911238671
517,717.000,16.726741378158863
518,718.000,14.139836705085145
519,719.000,7.434391360906375
520,720.000,13.103333810432446
521,721.000,22.80698551439582
522,722.000,13.008190929449825
523,723.000,14.030635508170008
524,724.000,11.104016699052977
525,725.000,16.58379394651797
526,726.000,6.397568690905132
527,727.000,17.50881036847636
528,728.000,7.0245194114156675
529,729.000,11.298172247828461
530,730.000,22.971433301741854
531,731.000,22.573445993104542
532,732.000,18.329530737786854
533,733.000,10.486418947581683
534,734.000,21.168329030202017
535,735.000,8.932539389283761
536,736.000,16.63259442438448
537,737.000,20.324998530982725
538,738.000,7.269140100478921
539,739.000,12.144905520195493
540,740.000,12.420347173376513
541,741.000,6.4282304391877005
542,742.000,15.055894692716038
543,743.000,5.48201830497112
544,744.000,16.033995642882928
545,745.000,18.52242406930418
546,746.000,20.829350943008876
547,747.000,13.641783618692898
548,748.000,7.096530446973702
549,749.000,12.742127774390156
550,750.000,13.194777943403096
551,751.000,11.016297292395052
552,752.000,17.455499155670623
553,753.000,19.865613863454882
554,754.000,11.367401741895947
555,755.000,6.885000113062574
556,756.000,17.272992294945993
557,757.000,18.287366601458757
558,758.000,7.799686342435052
559,759.000,12.840067823630534
560,760.000,0.9713803467234357
561,761.000,4.54509620931276
562,762.000,10.853897704919405
563,763.000,10.87277712298635
564,764.000,30.28523174887755
565,765.000,5.931036863879399
566,766.000,10.041953745199294
567,767.000,17.893506665967152
568,768.000,18.9501478952335
569,769.000,10.755046697971693
570,770.000,15.833882335075714
571,771.000,15.269643063361855
572,772.000,30.632445135568105
573,773.000,19.427127800353787
574,774.000,16.130646302300306
575,775.000,13.541675881910237
576,776.000,14.430541775608617
577,777.000,15.262646215741142
578,778.000,12.859575430576115
579,779.000,20.907172644303273
580,780.000,14.863938077033481
581,781.000,25.9773999447998
582,782.000,34.31638445955741
583,783.000,34.96861182918212
584,784.000,24.176965257472034
585,785.000,43.71205194414722
586,786.000,46.558650084848864
587,787.000,56.27102887113995
588,788.000,53.26215549050528
589,789.000,58.211272126351446
590,790.000,64.46066195800643
591,791.000,86.7478921607202
592,792.000,83.77838090566411
593,793.000,91.37428035993162
594,794.000,110.34946068653733
595,795.000,99.4836460444177
596,796.000,93.2971285884314
597,797.000,99.7523624693581
598,798.000,83.40133483389923
599,799.000,83.01901982467837
600,800.000,68.69294658024046
601,801.000,57.67837123505194
602,802.000,45.49425091950138
603,803.000,31.736311759898626
604,804.000,42.774133878475595
605,805.000,41.1396653933856
606,806.000,30.564376418703546
607,807.000,35.1327980644262
608,808.000,26.5647704364726
609,809.000,25.61490163668202
610,810.000,20.458450762816597
611,811.000,28.688240908560147
612,812.000,14.723278163517307
613,813.000,5.40482561321528
614,814.000,24.827763339102603
615,815.000,21.679090418549663
616,816.000,6.035716924848089
617,817.000,12.64597392721123
618,818.000,12.785511490774752
619,819.000,17.27657867659559
620,820.000,11.57220654165235
621,821.000,23.47633113884558
622,822.000,9.654255516996727
623,823.000,15.500591720849911
624,824.000,6.893488791070467
625,825.000,17.018117764245517
626,826.000,11.143914672883398
627,827.000,17.199684545415266
628,828.000,2.9338364061924267
629,829.000,5.144028275489177
630,830.000,10.100249169501012
631,831.000,14.525709100344898
632,832.000,12.75333907605966
633,833.000,15.87500410060602
634,834.000,16.297835173866247
635,835.000,10.569498291644095
636,836.000,15.352144445664749
637,837.000,10.296732623576418
638,838.000,5.471492808947232
639,839.000,21.751471981267855
640,840.000,6.885508115951325
641,841.000,16.49206618433095
642,842.000,11.352430153662567
643,843.000,7.301290987123707
644,844.000,13.569057643813494
645,845.000,1.5180820787522862
646,846.000,16.88148524288283
647,847.000,0.07310508306886732
648,848.000,10.075831542096694
649,849.000,3.7352365586734777
650,850.000,0.07398306742845762
651,851.000,21.419871998912072
652,852.000,22.47905427959779
653,853.000,5.702415831878739
654,854.000,8.337977574071374
655,855.000,13.397527420413212
656,856.000,9.664543281063516
657,857.000,8.167539062103288
658,858.000,16.3032696655348
659,859.000,11.645274989282711
660,860.000,1.4654459271931728
661,861.000,6.194933369033151
662,862.000,12.798303200492683
663,863.000,1.419240303182164
664,864.000,21.656489554635073
665,865.000,1.2053008283055533
666,866.000,10.419408993569618
667,867.000,-4.917257084275207
668,868.000,7.226789455990684
669,869.000,21.113156471508773
670,870.000,14.407352815341483
671,871.000,15.538006336473586
672,872.000,4.963042879811155
673,873.000,10.135249286182102
674,874.000,20.036552392335693
675,875.000,9.315672030943915
676,876.000,11.845209030598994
677,877.000,9.548531215815615
678,878.000,14.590266407030185
679,879.000,19.222783420600877
680,880.000,21.485214068807068
681,881.000,10.27812915985021
682,882.000,9.266267497853391
683,883.000,13.859627882861332
684,884.000,0.9042461108402904
685,885.000,-1.0505600263213637
686,886.000,5.9516762591856605
687,887.000,4.428418751093204
688,888.000,12.652547229054107
689,889.000,6.4558284686434035
690,890.000,15.745489241357404
691,891.000,17.22028331461479
692,892.000,-1.6696305482450953
693,893.000,-3.023455587960939
694,894.000,6.898113950651236
695,895.000,0.5197078186960198
696,896.000,12.347976763199654
697,897.000,4.422900527110983
698,898.000,6.367460849299732
699,899.000,3.620225464557393
700,900.000,8.05189410359742
701,901.000,5.617278493054755
702,902.000,18.163410355486576
703,903.000,12.414101409370573
704,904.000,3.2704113691073644
705,905.000,14.402566945018293
706,906.000,4.806470843347029
707,907.000,8.61312676625846
708,908.000,14.3231634118398
709,909.000,8.178889474099151
710,910.000,19.20950764296697
711,911.000,13.212731604294504
712,912.000,0.8381680398561002
713,913.000,-2.624524372653468
714,914.000,8.838225040383122
715,915.000,12.188778948503568
716,916.000,12.020290017169032
717,917.000,5.738191907760893
718,918.000,9.400506277583077
719,919.000,-4.678199220138708
720,920.000,2.855116063741775
721,921.000,20.207046774293303
722,922.000,2.9416275525065885
723,923.000,1.6907270352938895
724,924.000,14.002865855488494
725,925.000,8.877568641845983
726,926.000,5.406579019043079
727,927.000,22.44398560767945
728,928.000,6.350688024274859
729,929.000,6.081011881271706
730,930.000,18.410814787033814
731,931.000,13.174104345846558
732,932.000,8.900797157917168
733,933.000,14.88746381937517
734,934.000,9.615470922269992
735,935.000,8.998739054574912
736,936.000,15.375255800183254
737,937.000,16.140784738910952
738,938.000,10.7505324464953
739,939.000,14.58986849459518
740,940.000,24.33970645079114
741,941.000,13.720886878585816
742,942.000,12.280443337402971
743,943.000,9.812005382588723
744,944.000,15.031918565410137
745,945.000,7.2509704330566365
746,946.000,6.196448528638371
747,947.000,6.090991391188595
748,948.000,15.970698555660874
749,949.000,3.0549665529310914
750,950.000,12.496160909797254
751,951.000,11.57158714897787
752,952.000,8.075283789114565
753,953.000,17.659733344769165
754,954.000,24.72691932642647
755,955.000,4.2978972404919205
756,956.000,10.080031589293526
757,957.000,15.558861871080353
758,958.000,11.483744580023995
759,959.000,25.055361206215935
760,960.000,15.433338235671613
761,961.000,18.36377315032655
762,962.000,18.872042428038526
763,963.000,23.273219542586617
764,964.000,14.052333963672822
765,965.000,20.822081156919012
766,966.000,16.937118583870188
767,967.000,23.671116701991878
768,968.000,26.175450964672677
769,969.000,24.747787821221323
770,970.000,21.567351716869666
771,971.000,25.084574092769913
772,972.000,31.934916385997212
773,973.000,14.14357302954761
774,974.000,24.503259452338852
775,975.000,23.96070007921071
776,976.000,14.61952333092438
777,977.000,23.29298662416295
778,978.000,23.385061371530924
779,979.000,29.745277981554523
780,980.000,33.740935858682064
781,981.000,24.93377240328357
782,982.000,32.675049011649435
783,983.000,32.797672075993546
784,984.000,42.115960984450226
785,985.000,41.12915212107646
786,986.000,49.04816986584956
787,987.000,51.561015594669925
788,988.000,67.110055679359
789,989.000,78.65982448765965
790,990.000,78.68156438323706
791,991.000,97.40793472567759
792,992.000,105.68874387048936
793,993.000,133.88519916910275
794,994.000,162.53602696886855
795,995.000,204.591609613061
796,996.000,281.09893644087435
797,997.000,373.0173167874251
798,998.000,511.73397498375243
799,999.000,704.7121763568156
800,1000.000,907.1478092294968
801,1001.000,1009.8581289205987
802,1002.000,904.8603237448473
803,1003.000,716.0126650128883
804,1004.000,516.4529740312912
805,1005.000,373.6735561025454
806,1006.000,287.8301485250631
807,1007.000,220.40225259317708
808,1008.000,167.3201125971434
809,1009.000,148.89716782313815
810,1010.000,118.2630635532604
811,1011.000,106.27132906552981
812,1012.000,98.42470363388895
813,1013.000,88.01490152820088
814,1014.000,63.88702501425132
815,1015.000,67.29976335374647
816,1016.000,79.65700080431577
817,1017.000,63.46531761950928
818,1018.000,67.2098380487987
819,1019.000,75.93406033757765
820,1020.000,70.99857072716213
821,1021.000,77.45956245478874
822,1022.000,84.53076375361616
823,1023.000,100.21859885272534
824,1024.000,116.60687697711751
825,1025.000,128.42449934771662
826,1026.000,160.92997718136894
827,1027.000,197.9462706908414
828,1028.000,250.78397608482192
829,1029.000,336.281498567922
830,1030.000,399.15284334067337
831,1031.000,439.02321359952975
832,1032.000,403.543850536867
833,1033.000,335.7330093409828
834,1034.000,256.278955196095
835,1035.000,205.25225128234524
836,1036.000,150.84393277579534
837,1037.000,120.94142584842939
838,1038.000,93.22092466815229
839,1039.000,83.02463639879329
840,1040.000,80.6820232000996
841,1041.000,58.496814227743016
842,1042.000,57.506989633315015
843,1043.000,49.67632856433056
844,1044.000,41.32670616422479
845,1045.000,36.106408572355804
846,1046.000,39.356429924001986
847,1047.000,27.04662535036414
848,1048.000,19.541665978566016
849,1049.000,38.41351293165076
850,1050.000,29.85359632858399
851,1051.000,36.844927284254254
852,1052.000,24.59273390946987
853,1053.000,23.281607310962272
854,1054.000,27.18726159138373
855,1055.000,26.06600484930823
856,1056.000,27.1786181792329
857,1057.000,19.00934067157482
858,1058.000,18.492472412672896
859,1059.000,14.455320484788672
860,1060.000,19.92097796610483
861,1061.000,23.873184930725074
862,1062.000,16.160810448676557
863,1063.000,10.537742585906017
864,1064.000,32.21636240428347
865,1065.000,13.681358961600381
866,1066.000,26.638814311568694
867,1067.000,20.850315503823367
868,1068.000,8.845169583920551
869,1069.000,14.084965593337529
870,1070.000,24.522400569475167
871,1071.000,27.816377545653722
872,1072.000,13.89762055111646
873,1073.000,8.663082611027221
874,1074.000,16.94881274647355
875,1075.000,19.25706997446241
876,1076.000,16.126799307923648
877,1077.000,9.392660755708675
878,1078.000,10.980990322591197
879,1079.000,23.87317700926451
880,1080.000,12.71325381234601
881,1081.000,14.634718724373215
882,1082.000,13.100437733806757
883,1083.000,2.357577825026965
884,1084.000,22.769111978337378
885,1085.000,13.295716169963043
886,1086.000,19.91877037204995
887,1087.000,11.002365552667015
888,1088.000,15.879811675803467
889,1089.000,14.671662701370906
890,1090.000,24.32363158520252
891,1091.000,12.30939927905365
892,1092.000,23.786104730600073
893,1093.000,11.584055883440897
894,1094.000,18.602743677095532
895,1095.000,11.466854047005882
896,1096.000,17.896452924535424
897,1097.000,15.402509236968399
898,1098.000,14.237733907512165
899,1099.000,23.991930855295095
900,1100.000,22.526181995366642
901,1101.000,17.448978238699283
902,1102.000,9.337045492186007
903,1103.000,14.574916658641996
904,1104.000,6.086015636804177
905,1105.000,16.779354321330402
906,1106.000,5.861074602802319
907,1107.000,18.806452367719885
908,1108.000,21.855146498507793
909,1109.000,15.811301873510729
910,1110.000,9.239836366996087
911,1111.000,18.701884849152066
912,1112.000,21.523138186089
913,1113.000,23.651417239838565
914,1114.000,16.3178328683548
915,1115.000,21.12380592551267
916,1116.000,7.800750261110352
917,1117.000,19.987433720864146
918,1118.000,9.08143714641642
919,1119.000,21.59733637532827
920,1120.000,22.86221924108395
921,1121.000,8.648189573088302
922,1122.000,20.321172196669522
923,1123.000,22.443677933074923
924,1124.000,29.857030599475593
925,1125.000,32.73143400896379
926,1126.000,15.541119970553382
927,1127.000,28.282183289179557
928,1128.000,10.932927765700242
929,1129.000,9.934186196893052
930,1130.000,14.580373375459885
931,1131.000,20.913260090022277
932,1132.000,26.758468125123954
933,1133.000,20.519212261230678
934,1134.000,23.7622432747296
935,1135.000,21.464064937931198
936,1136.000,30.145168019063476
937,1137.000,18.179832282280813
938,1138.000,31.808089487656844
939,1139.000,30.18219839118683
940,1140.000,33.081213744788556
941,1141.000,28.912528296300934
942,1142.000,42.29171478948433
943,1143.000,35.776333964022115
944,1144.000,28.3870745555173
945,1145.000,37.13107329549689
946,1146.000,52.334277911407526
947,1147.000,55.44084612661845
948,1148.000,63.87118266042057
949,1149.000,76.07534522802712
950,1150.000,90.45892554057127
951,1151.000,101.90335430510981
952,1152.000,119.81320822461976
953,1153.000,133.9891569980009
954,1154.000,141.12032432007345
955,1155.000,148.9892008815807
956,1156.000,147.86060736918694
957,1157.000,133.5702884654777
958,1158.000,126.67965384896138
959,1159.000,91.4030071940665
960,1160.000,85.54556117114521
961,1161.000,80.56162144646919
962,1162.000,63.46808168223379
963,1163.000,59.98891153655427
964,1164.000,53.965173663469386
965,1165.000,43.836801712937586
966,1166.000,46.91838433084058
967,1167.000,46.09077615898127
968,1168.000,27.79269583508426
969,1169.000,41.47292299279525
970,1170.000,59.595962261682644
971,1171.000,47.366061267235864
972,1172.000,37.73692663086649
973,1173.000,36.63693296990641
974,1174.000,62.205402897611975
975,1175.000,48.60462802315806
976,1176.000,57.68689195164302
977,1177.000,57.64192628408705
978,1178.000,74.71481361743099
979,1179.000,96.82880054453744
980,1180.000,103.48969765419247
981,1181.000,114.98454753110173
982,1182.000,131.06730475589325
983,1183.000,146.9655049051173
984,1184.000,134.83583355124438
985,1185.000,112.91705326266833
986,1186.000,95.19016760370437
987,1187.000,77.33620113458846
988,1188.000,79.08816741147848
989,1189.000,60.44968598645505
990,1190.000,44.14849740751947
991,1191.000,42.6940382185951
992,1192.000,37.09252095952638
993,1193.000,33.67602416608088
994,1194.000,38.765746369945646
995,1195.000,18.726597098731872
996,1196.000,27.13043387597031
997,1197.000,23.43165522111508
998,1198.000,26.164738649540823
999,1199.000,23.92335667254406
1000,1200.000,27.6998967973434
1001,1201.000,24.810633527079517
1002,1202.000,22.847753360813158
1003,1203.000,21.986223793529007
1004,1204.000,28.940714316130652
1005,1205.000,21.59590941544593
1006,1206.000,27.441506574223467
1007,1207.000,14.004789271133177
1008,1208.000,11.568491980766339
1009,1209.000,15.06811317363713
1010,1210.000,21.420683316181112
1011,1211.000,24.827310870755355
1012,1212.000,8.036272295637218
1013,1213.000,5.547184045028189
1014,1214.000,21.547343569049417
1015,1215.000,17.187816313745316
1016,1216.000,2.0508917210806885
1017,1217.000,12.607130228942879
1018,1218.000,20.7423712711402
1019,1219.000,14.002284277403305
1020,1220.000,11.290201673385354
1021,1221.000,7.3409048806577175
1022,1222.000,9.989512316717764
1023,1223.000,4.0636193949817425
1024,1224.000,18.44316352478927
1025,1225.000,9.984638111400045
1026,1226.000,19.364893555996787
1027,1227.000,9.319146255682426
1028,1228.000,14.405940603483941
1029,1229.000,8.344983988347167
1030,1230.000,22.505209795142264
1031,1231.000,16.151423404659
1032,1232.000,25.78493119361019
1033,1233.000,16.70090453462899
1034,1234.000,14.830822796271605
1035,1235.000,11.110876343015889
1036,1236.000,11.78619253526017
1037,1237.000,9.430094729324765
1038,1238.000,20.972457277452804
1039,1239.000,22.21010252780843
1040,1240.000,15.333042824476479
1041,1241.000,7.768278507465993
1042,1242.000,19.972401912704527
1043,1243.000,27.624066372043444
1044,1244.000,23.7194892132552
1045,1245.000,13.228036760034684
1046,1246.000,11.318107331996316
1047,1247.000,7.755344244678554
1048,1248.000,12.445385809540312
1049,1249.000,17.74488533396334
1050,1250.000,19.793550121248927
1051,1251.000,15.44816147062238
1052,1252.000,15.32640067722923
1053,1253.000,22.373570032136513
1054,1254.000,14.342789822334453
1055,1255.000,8.127655330734115
1056,1256.000,3.155970836167171
1057,1257.000,15.840625613389193
1058,1258.000,13.47147893307556
1059,1259.000,8.6365270618237
1060,1260.000,10.21872226215396
1061,1261.000,9.676690792507543
1062,1262.000,6.3814079072456025
1063,1263.000,18.191321856653758
1064,1264.000,22.572609886938608
1065,1265.000,7.091300240227383
1066,1266.000,19.63995815456974
1067,1267.000,22.243067863936403
1068,1268.000,1.6182175982212357
1069,1269.000,7.0005175832382065
1070,1270.000,22.676258040723724
1071,1271.000,0.6448731883351684
1072,1272.000,11.219869239653235
1073,1273.000,-3.7903975958213323
1074,1274.000,5.8103488873341576
1075,1275.000,19.175164890464657
1076,1276.000,10.748886610836735
1077,1277.000,4.360889241638006
1078,1278.000,17.93632397197871
1079,1279.000,15.777518986890072
1080,1280.000,6.767744467325201
1081,1281.000,12.454431590158265
1082,1282.000,12.62880452818672
1083,1283.000,5.844384450127791
1084,1284.000,7.859709520621891
1085,1285.000,8.977104900230415
1086,1286.000,24.747702745437437
1087,1287.000,10.625501208645801
1088,1288.000,11.188068438183564
1089,1289.000,9.666880578298787
1090,1290.000,9.327471769160866
1091,1291.000,8.69212214686263
1092,1292.000,27.749306843415525
1093,1293.000,11.607445986756602
1094,1294.000,6.140299700740343
1095,1295.000,8.971586105147253
1096,1296.000,14.33340431567558
1097,1297.000,4.078914443948406
1098,1298.000,21.305339597508237
1099,1299.000,15.843201879820526
1100,1300.000,22.187523390271508
1101,1301.000,10.705253224170747
1102,1302.000,6.681535472747555
1103,1303.000,18.697998223153263
1104,1304.000,5.166452558462652
1105,1305.000,20.332925557670706
1106,1306.000,5.356959295693059
1107,1307.000,10.335908843369452
1108,1308.000,4.731228267459528
1109,1309.000,8.673182630645897
1110,1310.000,8.714243991531248
1111,1311.000,13.432588404641592
1112,1312.000,5.793805920423438
1113,1313.000,7.471776585245607
1114,1314.000,7.330481441398206
1115,1315.000,14.833994527094546
1116,1316.000,18.798222876465616
1117,1317.000,19.363028519569298
1118,1318.000,4.725696482382318
1119,1319.000,12.367030786801934
1120,1320.000,8.825741450651094
1121,1321.000,11.487101487668951
1122,1322.000,18.96150990752176
1123,1323.000,11.6339067157935
1124,1324.000,10.086611913992101
1125,1325.000,16.024579499546007
1126,1326.000,15.489323465806365
1127,1327.000,17.829699802044615
1128,1328.000,7.618389493455197
1129,1329.000,13.382752521153634
1130,1330.000,23.125455862177205
1131,1331.000,15.013620489483856
1132,1332.000,23.644842371956656
1133,1333.000,2.5340224743954423
1134,1334.000,4.4850137575251665
1135,1335.000,19.716066177991706
1136,1336.000,3.431549688362793
1137,1337.000,11.496701237126445
1138,1338.000,3.4493317686935825
1139,1339.000,19.278150223397915
1140,1340.000,6.854190537492514
1141,1341.000,14.080092643152966
1142,1342.000,4.548930468476783
1143,1343.000,8.336536937483743
1144,1344.000,15.624069970114306
1145,1345.000,27.158420482231804
1146,1346.000,19.383054385618607
1147,1347.000,11.70793558798232
1148,1348.000,15.736102992949554
1149,1349.000,18.35100950007086
1150,1350.000,13.7145140048151
1151,1351.000,0.8221153985771252
1152,1352.000,24.644651568669133
1153,1353.000,26.340078398329297
1154,1354.000,6.546689766712689
1155,1355.000,18.234508548901886
1156,1356.000,18.209052615894734
1157,1357.000,18.204157834616808
1158,1358.000,17.815424067910044
1159,1359.000,7.983566174542375
1160,1360.000,17.298042009200117
1161,1361.000,16.213003422494694
1162,1362.000,4.248916260954729
1163,1363.000,6.309489367034757
1164,1364.000,21.624214579109776
1165,1365.000,6.277364731474563
1166,1366.000,5.400991654347308
1167,1367.000,8.956556173867966
1168,1368.000,11.785488112097482
1169,1369.000,8.67739428701907
1170,1370.000,9.325300512537524
1171,1371.000,4.8074725984786255
1172,1372.000,15.377697350591234
1173,1373.000,26.27269857054307
1174,1374.000,17.695767055928172
1175,1375.000,16.265697600257226
1176,1376.000,16.67442599296669
1177,1377.000,11.719037019411644
1178,1378.000,18.203454460871626
1179,1379.000,2.807794094544306
1180,1380.000,16.298160693553427
1181,1381.000,12.43922002694012
1182,1382.000,21.322656859670815
1183,1383.000,7.837051952631327
1184,1384.000,13.553907062629378
1185,1385.000,21.979931942395524
1186,1386.000,10.466403340581564
1187,1387.000,9.4846180017596
1188,1388.000,11.03816166642605
1189,1389.000,17.24037907099614
1190,1390.000,24.673476947809377
1191,1391.000,9.159814025124206
1192,1392.000,-0.3023589728766183
1193,1393.000,14.553656673910154
1194,1394.000,8.898667681510233
1195,1395.000,20.263531761868762
1196,1396.000,10.253486622854552
1197,1397.000,6.912722968258322
1198,1398.000,10.094563497791796
1199,1399.000,11.723410907088237
1200,1400.000,12.278737887702619
1201,1401.000,11.734246127112101
1202,1402.000,11.440568308714091
1203,1403.000,16.026420111830248
1204,1404.000,6.618600211701505
1205,1405.000,9.409028279491622
1206,1406.000,18.745964982285614
1207,1407.000,17.656748983091347
1208,1408.000,21.226503940836437
1209,1409.000,13.79080051037181
1210,1410.000,16.355409342468192
1211,1411.000,21.115647083820477
1212,1412.000,15.765108377043589
1213,1413.000,22.951172860674205
1214,1414.000,21.39587116917255
1215,1415.000,4.381667932917026
1216,1416.000,28.497103778210658
1217,1417.000,13.29214532727633
1218,1418.000,22.53842019826152
1219,1419.000,26.093112005230978
1220,1420.000,21.66738135817468
1221,1421.000,12.474325863003287
1222,1422.000,20.65244812154856
1223,1423.000,25.55451873156494
1224,1424.000,24.335046286726083
1225,1425.000,23.632876376631202
1226,1426.000,33.336480586799325
1227,1427.000,26.122347498669342
1228,1428.000,35.34035868960473
1229,1429.000,36.95666073288908
1230,1430.000,39.87478819772855
1231,1431.000,36.321408649249406
1232,1432.000,34.73876164850162
1233,1433.000,37.410000752454835
1234,1434.000,36.002870514003234
1235,1435.000,40.91789448195868
1236,1436.000,42.18858620105857
1237,1437.000,45.720584211959476
1238,1438.000,61.28206505124058
1239,1439.000,78.07820625140357
1240,1440.000,79.70240034086987
1241,1441.000,90.97649684398334
1242,1442.000,107.23224028101026
1243,1443.000,121.52516516813898
1244,1444.000,133.45852101747846
1245,1445.000,146.85457833705846
1246,1446.000,178.03677563083215
1247,1447.000,182.4716063986741
1248,1448.000,212.60005813638054
1249,1449.000,221.50955233566765
1250,1450.000,230.31720848417558
1251,1451.000,213.43119306546623
1252,1452.000,201.89203455902089
1253,1453.000,192.5590194402448
1254,1454.000,175.6034641804638
1255,1455.000,154.14566324692532
1256,1456.000,142.30282610279824
1257,1457.000,123.08276520717573
1258,1458.000,101.21622701506749
1259,1459.000,88.16033397741126
1260,1460.000,78.13783454106033
1261,1461.000,75.01822714879472
1262,1462.000,58.04586923931265
1263,1463.000,55.19195124723569
1264,1464.000,38.01869160310616
1265,1465.000,52.27787873339025
1266,1466.000,49.772006060471995
1267,1467.000,35.68695100266041
1268,1468.000,25.754770974186158
1269,1469.000,35.47762538519919
1270,1470.000,44.6217156417722
1271,1471.000,28.877584145900755
1272,1472.000,25.12854929550076
1273,1473.000,34.165690484411016
1274,1474.000,16.495798102389926
1275,1475.000,30.282134535119212
1276,1476.000,31.71487516420325
1277,1477.000,29.814169367164823
1278,1478.000,13.098119517452233
1279,1479.000,16.296168984432143
1280,1480.000,24.002459133395632
1281,1481.000,21.546563325552825
1282,1482.000,26.715663918038672
1283,1483.000,16.093705263905804
1284,1484.000,19.29641971213323
1285,1485.000,22.879596607616577
1286,1486.000,13.176430291178121
1287,1487.000,21.152672099557776
1288,1488.000,10.296026365420175
1289,1489.000,19.817113417348764
1290,1490.000,23.150944579851966
1291,1491.000,17.329122173355927
1292,1492.000,15.854475514212481
1293,1493.000,-0.13948208530700867
1294,1494.000,12.844045682991464
1295,1495.000,10.86659612322046
1296,1496.000,17.86119953541879
1297,1497.000,6.067561215544856
1298,1498.000,8.047110455478787
1299,1499.000,9.905457543021384
1300,1500.000,6.993943761896389
1301,1501.000,14.455448391749997
1302,1502.000,7.299547708148566
1303,1503.000,1.4607179825798084
1304,1504.000,10.838210482454087
1305,1505.000,17.667303471105015
1306,1506.000,16.729586207784223
1307,1507.000,8.707879947667834
1308,1508.000,12.461327941852915
1309,1509.000,12.317518437357649
1310,1510.000,20.035354677122314
1311,1511.000,7.160229900009881
1312,1512.000,14.834661340803223
1313,1513.000,9.818955230207848
1314,1514.000,7.06116579485024
1315,1515.000,19.16511625728026
1316,1516.000,14.7118338359669
1317,1517.000,2.2201747453038934
1318,1518.000,18.06368119560443
1319,1519.000,14.33261439310354
1320,1520.000,13.385039539958825
1321,1521.000,10.201349834248049
1322,1522.000,11.219994469973926
1323,1523.000,17.387309637057342
1324,1524.000,16.708913521341174
1325,1525.000,16.21165930459233
1326,1526.000,19.125595164498463
1327,1527.000,24.977983274668077
1328,1528.000,1.5726498046301458
1329,1529.000,9.551748919839156
1330,1530.000,29.671977781668375
1331,1531.000,6.35520854741344
1332,1532.000,13.518138370291581
1333,1533.000,3.8546333994420365
1334,1534.000,6.582172779925941
1335,1535.000,7.4694806527243145
1336,1536.000,-2.3432368452570245
1337,1537.000,-0.11949358119363751
1338,1538.000,16.882449573662825
1339,1539.000,15.419935743980886
1340,1540.000,9.981653050352179
1341,1541.000,13.815359609287725
1342,1542.000,4.432966533223862
1343,1543.000,9.0739009305139
1344,1544.000,6.913942905438262
1345,1545.000,19.229261558193457
1346,1546.000,13.966078984901742
1347,1547.000,24.449011277606587
1348,1548.000,14.920402524270685
1349,1549.000,15.598507808780823
1350,1550.000,6.450787210944327
1351,1551.000,10.062574806491511
1352,1552.000,17.41071166707229
1353,1553.000,5.083526860259553
1354,1554.000,27.18529544954731
1355,1555.000,17.85272249435343
1356,1556.000,13.060322050013383
1357,1557.000,12.636959167788973
1358,1558.000,22.792338894858858
1359,1559.000,28.055895274327895
1360,1560.000,22.944659345218724
1361,1561.000,25.454777142479998
1362,1562.000,25.285893696976927
1363,1563.000,22.483927035500756
1364,1564.000,25.918616180762
1365,1565.000,25.27906615139409
1366,1566.000,26.907714961950887
1367,1567.000,38.25022262291009
1368,1568.000,26.644128140668045
1369,1569.000,42.87209451754529
1370,1570.000,30.22738975178254
1371,1571.000,43.74414183754334
1372,1572.000,59.886439764912666
1373,1573.000,51.88617951989704
1374,1574.000,62.13243608442235
1375,1575.000,68.41589043634053
1376,1576.000,97.92608254942343
1377,1577.000,107.88805639336283
1378,1578.000,110.35495793377345
1379,1579.000,145.89838113219253
1380,1580.000,163.90219694607867
1381,1581.000,199.88431332881078
1382,1582.000,224.24453922968974
1383,1583.000,230.95071559394
1384,1584.000,224.7889803627072
1385,1585.000,220.0450744730556
1386,1586.000,175.6704218579755
1387,1587.000,171.68212444637538
1388,1588.000,143.34200016308841
1389,1589.000,132.9956019288668
1390,1590.000,146.10708866038658
1391,1591.000,128.2681692702422
1392,1592.000,134.4134096669552
1393,1593.000,147.38656175496317
1394,1594.000,168.2046164346291
1395,1595.000,177.95989360223507
1396,1596.000,223.55129614998714
1397,1597.000,267.11132396601374
1398,1598.000,314.04534393436074
1399,1599.000,421.2555829349992
1400,1600.000,510.8246448438201
1401,1601.000,598.5276465326397
1402,1602.000,637.8121388691907
1403,1603.000,602.88263671713
1404,1604.000,504.40738593603714
1405,1605.000,411.4665363814129
1406,1606.000,318.74292890467814
1407,1607.000,262.5945873531764
1408,1608.000,209.05829457017308
1409,1609.000,167.87026439485635
1410,1610.000,131.60254666233322
1411,1611.000,106.68711820363592
1412,1612.000,92.38202384571423
1413,1613.000,92.83592841144423
1414,1614.000,72.02857771961908
1415,1615.000,52.82990358495772
1416,1616.000,53.00817081809805
1417,1617.000,50.64954322560038
1418,1618.000,50.79484760994751
1419,1619.000,43.12248576954289
1420,1620.000,35.97616449871134
1421,1621.000,45.25106858770164
1422,1622.000,34.35782482268155
1423,1623.000,30.311862985741982
1424,1624.000,25.58184585489471
1425,1625.000,26.389631204073794
1426,1626.000,19.088639803135948
1427,1627.000,13.52700241785783
1428,1628.000,30.130324809937747
1429,1629.000,27.161630736996585
1430,1630.000,21.633858952577157
1431,1631.000,19.67686720614438
1432,1632.000,21.753654243080746
1433,1633.000,29.564936804697027
1434,1634.000,3.3514736282220383
1435,1635.000,11.510294446803755
1436,1636.000,13.984335989517604
1437,1637.000,24.174682981355545
1438,1638.000,14.096434143236138
1439,1639.000,9.29401119199406
1440,1640.000,7.158326840390373
1441,1641.000,14.277035797103736
1442,1642.000,5.743118766739599
1443,1643.000,5.851041449820059
1444,1644.000,6.13450554279234
1445,1645.000,21.30584373802253
1446,1646.000,20.151815723801974
1447,1647.000,12.177393184339735
1448,1648.000,18.464276799769777
1449,1649.000,14.077121246145907
1450,1650.000,8.829655195443365
1451,1651.000,11.596977315560935
1452,1652.000,13.072223270317863
1453,1653.000,20.32674171945564
1454,1654.000,0.842328318635964
1455,1655.000,7.650849719443613
1456,1656.000,9.232429569385204
1457,1657.000,15.046308511888355
1458,1658.000,15.666280186302401
1459,1659.000,9.776118227898223
1460,1660.000,6.49988026786923
1461,1661.000,-1.2671770666706834
1462,1662.000,-9.72928815268483
1463,1663.000,3.4010406287852675
1464,1664.000,5.446478892617961
1465,1665.000,10.881507249615424
1466,1666.000,12.106263306499613
1467,1667.000,15.903299665917302
1468,1668.000,24.57953092643197
1469,1669.000,11.442688682534481
1470,1670.000,9.234682524632262
1471,1671.000,13.501922039057945
1472,1672.000,7.682626808063105
1473,1673.000,4.90059740982565
1474,1674.000,7.143301418438114
1475,1675.000,12.655826403920855
1476,1676.000,4.187563932213834
1477,1677.000,1.2900135651777873
1478,1678.000,0.13175486059549257
1479,1679.000,6.034278372172594
1480,1680.000,12.161382649535426
1481,1681.000,0.10238523823227297
1482,1682.000,7.787773679733391
1483,1683.000,14.862339511429127
1484,1684.000,3.5799492666337756
1485,1685.000,7.639077474581654
1486,1686.000,13.38667266043035
1487,1687.000,6.8220783452563865
1488,1688.000,5.635856046062145
1489,1689.000,7.155566275767569
1490,1690.000,3.9586105432174463
1491,1691.000,8.372199353175347
1492,1692.000,5.180624206328957
1493,1693.000,13.032952599285181
1494,1694.000,8.788230024576706
1495,1695.000,14.678939970652891
1496,1696.000,8.81921492188917
1497,1697.000,2.43904235857849
1498,1698.000,10.2583687569404
1499,1699.000,1.1806845891105695
1500,1700.000,13.82316932315166
1501,1701.000,5.445003423044
1502,1702.000,9.158628348690854
1503,1703.000,9.817822555919292
1504,1704.000,15.62994749647487
1505,1705.000,0.6530216180271964
1506,1706.000,10.697572364165353
1507,1707.000,15.52848717440179
1508,1708.000,12.44297348417058
1509,1709.000,7.194827724826837
1510,1710.000,8.099108323647215
1511,1711.000,16.050605703831025
1512,1712.000,19.867077284498237
1513,1713.000,10.763835480691114
1514,1714.000,10.222717703373519
1515,1715.000,8.760423359431343
1516,1716.000,7.755697851669993
1517,1717.000,14.028958578820948
1518,1718.000,11.433652935532564
1519,1719.000,1.3515733123781501
1520,1720.000,11.088236095850561
1521,1721.000,6.4287216683665065
1522,1722.000,9.779558408262574
1523,1723.000,9.565230689797772
1524,1724.000,18.999595883152324
1525,1725.000,8.952543354429736
1526,1726.000,14.997541465652375
1527,1727.000,4.4835655747667715
1528,1728.000,11.744404035640628
1529,1729.000,8.086054198062584
1530,1730.000,6.136794407742855
1531,1731.000,12.143504006315197
1532,1732.000,11.338991331332181
1533,1733.000,5.184148716270329
1534,1734.000,0.7106824905270059
1535,1735.000,23.116768979421067
1536,1736.000,-3.5972164958068333
1537,1737.000,17.429376382006467
1538,1738.000,16.75795892594556
1539,1739.000,6.512267445014459
1540,1740.000,3.9204222441428556
1541,1741.000,11.55211062417743
1542,1742.000,6.67772088189281
1543,1743.000,10.01015030997769
1544,1744.000,15.251917197049352
1545,1745.000,7.9080828276405555
1546,1746.000,6.127897482212802
1547,1747.000,7.039635437142124
1548,1748.000,0.5560759647328268
1549,1749.000,15.910311333203254
1550,1750.000,11.362795806702024
1551,1751.000,12.382147645292207
1552,1752.000,18.19082510496378
1553,1753.000,13.205064437624287
1554,1754.000,10.154855891106081
1555,1755.000,14.481343709161592
1556,1756.000,15.47465913146516
1557,1757.000,20.42837939361266
1558,1758.000,18.311077727122893
1559,1759.000,6.3447523594347786
1560,1760.000,23.482640513910155
1561,1761.000,21.494933409830765
1562,1762.000,21.46469226240174
1563,1763.000,4.22123228274927
1564,1764.000,10.086521677922065
1565,1765.000,15.387183650889256
1566,1766.000,16.538108400540978
1567,1767.000,15.98666512169234
1568,1768.000,14.225465005075876
1569,1769.000,2.6625372373505343
1570,1770.000,16.663418001092168
1571,1771.000,10.560807474801322
1572,1772.000,12.102604832899033
1573,1773.000,1.6198952457291398
1574,1774.000,15.06115987955559
1575,1775.000,4.4448878965663425
1576,1776.000,8.849364454867327
1577,1777.000,22.808554708490192
1578,1778.000,20.299778807385565
1579,1779.000,21.802001897426862
1580,1780.000,15.203114120409055
1581,1781.000,6.910849614048857
1582,1782.000,20.581126511984166
1583,1783.000,27.725417943775483
1584,1784.000,15.720407034903928
1585,1785.000,23.218847906772453
1586,1786.000,19.404398676706705
1587,1787.000,12.142933457953177
1588,1788.000,28.59204535968024
1589,1789.000,12.77687548697827
1590,1790.000,13.696732940858055
1591,1791.000,23.803558818253805
1592,1792.000,2.098691212021322
1593,1793.000,22.895444210934556
1594,1794.000,15.863808899695414
1595,1795.000,24.549830358921554
1596,1796.000,11.735097665156673
1597,1797.000,16.376981890862908
1598,1798.000,20.533802104426513
1599,1799.000,11.359141370151974
1600,1800.000,26.246641748271486
1601,1801.000,18.94880329493253
1602,1802.000,15.794501062208838
1603,1803.000,9.263715098091552
1604,1804.000,20.530007446499212
1605,1805.000,22.167950147266083
1606,1806.000,30.33041923615224
1607,1807.000,30.866949744837484
1608,1808.000,32.12214770092373
1609,1809.000,29.869636127935564
1610,1810.000,23.249726045317402
1611,1811.000,22.883705468437483
1612,1812.000,30.41377340858253
1613,1813.000,29.529721872964956
1614,1814.000,9.010172864716878
1615,1815.000,23.77390038289036
1616,1816.000,26.389197422462303
1617,1817.000,23.334887974330286
1618,1818.000,27.89583102531128
1619,1819.000,28.072335558147643
1620,1820.000,22.655306551500644
1621,1821.000,30.140126979955312
1622,1822.000,22.39118581401499
1623,1823.000,13.664087020109946
1624,1824.000,27.37307856058692
1625,1825.000,22.04805839371852
1626,1826.000,29.646805473693803
1627,1827.000,25.656314750630145
1628,1828.000,30.179447170560934
1629,1829.000,21.676080675445974
1630,1830.000,31.344231203161826
1631,1831.000,37.45713868751136
1632,1832.000,28.639551058214693
1633,1833.000,28.518270240917445
1634,1834.000,18.978848157185894
1635,1835.000,39.4955577245064
1636,1836.000,24.875511856288313
1637,1837.000,32.56684746186329
1638,1838.000,31.403706446483056
1639,1839.000,33.55264571132216
1640,1840.000,33.958643153476714
1641,1841.000,28.8072086659638
1642,1842.000,22.91538813772263
1643,1843.000,31.081704453614975
1644,1844.000,30.46274749442273
1645,1845.000,28.53656113684974
1646,1846.000,27.383148253523586
1647,1847.000,19.06668771298996
1648,1848.000,37.842965379721136
1649,1849.000,16.9185401141051
1650,1850.000,31.86270877245738
1651,1851.000,36.021897207008806
1652,1852.000,35.33873926591923
1653,1853.000,24.69559879326357
1654,1854.000,34.931788629043695
1655,1855.000,28.059763609178162
1656,1856.000,37.61547656551306
1657,1857.000,31.394513325809612
1658,1858.000,31.297971713755715
1659,1859.000,27.53240154895957
1660,1860.000,28.84866264695006
1661,1861.000,28.316469819178565
1662,1862.000,43.291556873018635
1663,1863.000,36.06283261176418
1664,1864.000,30.471185834631115
1665,1865.000,39.70441933675852
1666,1866.000,31.09935490920543
1667,1867.000,37.97857333895308
1668,1868.000,40.86899840890487
1669,1869.000,35.269782897885534
1670,1870.000,39.24832858064133
1671,1871.000,39.60638722784074
1672,1872.000,31.688524606072406
1673,1873.000,41.59669647784949
1674,1874.000,30.420238601602932
1675,1875.000,33.50805073169113
1676,1876.000,39.98413261838573
1677,1877.000,40.588614007889646
1678,1878.000,41.1566416423193
1679,1879.000,39.62076725971883
1680,1880.000,30.73997359404825
1681,1881.000,45.76733937519725
1682,1882.000,32.872436328967524
1683,1883.000,31.885009177090524
1684,1884.000,51.370209637214884
1685,1885.000,37.80096742291266
1686,1886.000,35.35725324367718
1687,1887.000,31.87256280492329
1688,1888.000,45.8932658079882
1689,1889.000,32.818149950129964
1690,1890.000,36.54415192452916
1691,1891.000,44.24590242028671
1692,1892.000,32.48277912242611
1693,1893.000,57.672377711893205
1694,1894.000,40.81802386555432
1695,1895.000,45.17031225619826
1696,1896.000,49.0921475525347
1697,1897.000,44.64006241919628
1698,1898.000,46.516307516736106
1699,1899.000,41.36220250162887
1700,1900.000,55.33628902627265
1701,1901.000,45.113497738984734
1702,1902.000,57.853191284006925
1703,1903.000,53.58537230149955
1704,1904.000,53.79983742754871
1705,1905.000,43.33598529415599
1706,1906.000,46.48907552925289
1707,1907.000,38.673396756683815
1708,1908.000,56.75442559622252
1709,1909.000,39.204898663558424
1710,1910.000,46.981564570307455
1711,1911.000,54.690685924003446
1712,1912.000,37.39934632810446
1713,1913.000,54.27354838198926
1714,1914.000,41.204824680958154
1715,1915.000,50.87060381623269
1716,1916.000,51.67492237495799
1717,1917.000,54.53680494019886
1718,1918.000,52.66473709094225
1719,1919.000,50.00856140209771
1720,1920.000,54.31963644449547
1721,1921.000,63.19705478488822
1722,1922.000,46.539493985948866
1723,1923.000,54.370466606274476
1724,1924.000,53.23994520038036
1725,1925.000,58.22298331870866
1726,1926.000,48.51514750761635
1727,1927.000,44.959272309389235
1728,1928.000,64.76472426222881
1729,1929.000,56.12871690026327
1730,1930.000,57.85469375353682
1731,1931.000,79.66295634802168
1732,1932.000,58.502974205605824
1733,1933.000,69.58019584410522
1734,1934.000,61.60574477725049
1735,1935.000,48.769180514699656
1736,1936.000,54.741373562029366
1737,1937.000,62.83805142073902
1738,1938.000,61.705404588250076
1739,1939.000,68.1313835579042
1740,1940.000,62.81192981896584
1741,1941.000,58.153133856621935
1742,1942.000,56.331963151978925
1743,1943.000,60.56405018206647
1744,1944.000,67.78134341983605
1745,1945.000,71.26395733415961
1746,1946.000,79.35650838983156
1747,1947.000,64.8698300475694
1748,1948.000,63.05245776400807
1749,1949.000,53.5109649917099
1750,1950.000,56.36418217915366
1751,1951.000,59.28072077074319
1752,1952.000,65.81954320680427
1753,1953.000,76.29252392358057
1754,1954.000,70.42265335324157
1755,1955.000,64.8066529238763
1756,1956.000,75.59499405949634
1757,1957.000,65.75082818003307
1758,1958.000,66.53272370134368
1759,1959.000,65.81037703520099
1760,1960.000,66.87912058930681
1761,1961.000,73.96595676727725
1762,1962.000,65.0143759686564
1763,1963.000,73.28352458890492
1764,1964.000,65.48901201940919
1765,1965.000,66.2094496474748
1766,1966.000,68.91495285633039
1767,1967.000,68.34184802512505
1768,1968.000,76.9795385289301
1769,1969.000,79.40895873873933
1770,1970.000,71.40143802146702
1771,1971.000,73.94112273994926
1772,1972.000,67.39457025294416
1773,1973.000,72.34346191513282
1774,1974.000,73.6380240771158
1775,1975.000,84.38883608541653
1776,1976.000,78.86541328247802
1777,1977.000,75.63298400667179
1778,1978.000,79.30398759227978
1779,1979.000,85.93463036951755
1780,1980.000,80.57086566451187
1781,1981.000,85.65262279932006
1782,1982.000,80.07194209191391
1783,1983.000,85.6278838561932
1784,1984.000,82.31931440197229
1785,1985.000,84.44560003499589
1786,1986.000,77.21312105692164
1787,1987.000,94.58722776533568
1788,1988.000,90.53367445374113
1789,1989.000,80.43562841156597
1790,1990.000,81.61282792415807
1791,1991.000,79.56542127278749
1792,1992.000,79.6917207346471
1793,1993.000,84.67945458284908
1794,1994.000,86.71254508643017
1795,1995.000,75.67309551034555
1796,1996.000,90.86832111547415
1797,1997.000,93.5437921586165
1798,1998.000,87.77084989249465
1799,1999.000,87.58209256575208
1800,2000.000,91.95612842295441
