# kind,background_subtracted
# version_label,v1_poly4
# poly_order,4
# iterations_run,9
pixel_index,raman_shift_cm-1,intensity,background_intensity
0,130.965,0.0,736.5008591882308
1,133.907,0.0,736.5755242643895
2,136.848,1.3472797688576748,736.6527202311423
3,139.788,3.2675636477604257,736.7324363522396
4,142.727,0.0,736.8146619142598
5,145.664,0.0,736.8993862266087
6,148.601,2.0134013784797844,736.9865986215202
7,151.536,2.9237115459445704,737.0762884540554
8,154.470,0.0,737.1684451021036
9,157.403,0.0,737.2630579663816
10,160.335,8.639883529566305,737.3601164704337
11,163.266,19.540389939367856,737.4596100606321
12,166.196,9.438471793823055,737.561528206177
13,169.125,12.334139600904336,737.6658603990957
14,172.052,20.2274038457565,737.7725961542435
15,174.978,17.118274990696364,737.8817250093036
16,177.904,20.006763475213347,737.9932365247867
17,180.828,15.892879715969002,738.107120284031
18,183.751,17.77663410679702,738.223365893203
19,186.672,10.658037018703908,738.3419629812961
20,189.593,27.53709879986775,738.4629012001323
21,192.513,8.413829775639556,738.5861702243604
22,195.431,15.288240248542365,738.7117597514576
23,198.349,21.160340498271353,738.8396595017286
24,201.265,19.030140781694286,738.9698592183057
25,204.180,13.89765133285107,739.1023486671489
26,207.094,11.762882362953974,739.237117637046
27,210.007,12.625844060387408,739.3741559396126
28,212.918,23.48654659070837,739.5134534092916
29,215.829,16.345000096645776,739.6549999033542
30,218.739,6.201214698101126,739.7987853018989
31,221.647,7.055200492148174,739.9447995078518
32,224.554,10.906967553032814,740.0930324469672
33,227.460,18.756525932173417,740.2434740678266
34,230.365,22.603885658160493,740.3961143418395
35,233.269,28.44905673675703,740.550943263243
36,236.172,42.29204915089815,740.7079508491018
37,239.074,14.13287286069135,740.8671271393086
38,241.974,15.971537803416368,741.0284621965836
39,244.874,22.808053893525198,741.1919461064748
40,247.772,11.642431022642313,741.3575689773577
41,250.669,38.47467905956432,741.5253209404357
42,253.565,13.30480785026009,741.6951921497399
43,256.460,12.132827217871068,741.8671727821289
44,259.354,7.9587469627105065,742.0412530372895
45,262.247,21.782576862264477,742.2174231377355
46,265.139,11.604326671190961,742.395673328809
47,268.029,17.42400612132053,742.5759938786795
48,270.919,11.24162492165567,742.7583750783443
49,273.807,10.05719275837157,742.9428072416284
50,276.694,13.870719294815558,743.1292807051844
51,279.580,22.6822141715071,743.3177858284929
52,282.465,8.491687006138136,743.5083129938619
53,285.349,16.299147393572866,743.7008526064271
54,288.232,23.10460490584785,743.8953950941521
55,291.114,6.908069092171672,744.0919309078283
56,293.994,2.7095494789256236,744.2904505210744
57,296.874,9.509055569662905,744.4909444303371
58,299.752,14.306596845109311,744.6934031548907
59,302.629,0.0,744.8978172368372
60,305.505,16.895822758893473,745.1041772411065
61,308.380,22.68752624454396,745.312473755456
62,311.254,23.477302609529147,745.5226973904709
63,314.127,12.265161220436198,745.7348387795638
64,316.999,27.051111421024416,745.9488885789756
65,319.870,16.83516253222558,746.1648374677744
66,322.739,16.617323852143727,746.3826761478563
67,325.607,24.39760465605525,746.6023953439447
68,328.475,20.176014196408573,746.8239858035914
69,331.341,12.952561702824823,747.0474382971752
70,334.206,24.72725638209704,747.272743617903
71,337.070,25.500107418190737,747.4998925818093
72,339.933,31.2711239722438,747.7288760277562
73,342.795,26.040315182566246,747.9596848174338
74,345.656,8.807690164640462,748.1923098353595
75,348.515,9.573258011121197,748.4267419888788
76,351.374,15.337027791835226,748.6629722081648
77,354.231,22.099008553782028,748.900991446218
78,357.088,26.859209321133108,749.1407906788669
79,359.943,13.61763909523222,749.3823609047678
80,362.797,24.374306854595602,749.6256931454044
81,365.650,18.129221554911624,749.8707784450884
82,368.502,0.8823921290411363,750.1176078709589
83,371.353,7.633827487017129,750.3661725129829
84,374.203,16.383536516044842,750.6164634839552
85,377.052,16.131528080501994,750.868471919498
86,379.899,19.877811021938555,751.1221889780614
87,382.746,5.622394159076634,751.3776058409234
88,385.591,6.365286287810704,751.6347137121893
89,388.436,5.106496181207717,751.8935038187923
90,391.279,11.846032589506649,752.1539674104934
91,394.121,6.5839042401189545,752.416095759881
92,396.962,11.32011983762834,752.6798801623717
93,399.802,10.054688063790763,752.9453119362092
94,402.641,19.787617577534434,753.2123824224656
95,405.479,8.518917014959925,753.4810829850401
96,408.316,17.24859498934029,753.7514050106597
97,411.151,18.97666009112038,754.0233399088796
98,413.986,23.703120887917976,754.296879112082
99,416.819,18.42798592452266,754.5720140754773
100,419.652,26.151263722896488,754.8487362771035
101,422.483,1.8729627821737722,755.1270372178262
102,425.313,9.593091578661188,755.4069084213388
103,428.143,13.31165856583766,755.6883414341623
104,430.971,7.028672174354483,755.9713278256455
105,433.798,9.744140812035084,756.2558591879649
106,436.623,6.458072863875373,756.5419271361246
107,439.448,13.17047669204328,756.8295233079567
108,442.272,5.881360635879446,757.1186393641206
109,445.095,12.590733011896305,757.4092669881037
110,447.916,15.298602113779111,757.7013978862209
111,450.737,18.00497621238503,757.995023787615
112,453.556,24.709863555743595,758.2901364442564
113,456.375,16.413272369056813,758.5867276309432
114,459.192,28.11521085469883,758.8847891453012
115,462.008,40.815687192216046,759.184312807784
116,464.823,48.514709538327224,759.4852904616728
117,467.637,68.21228602692338,759.7877139730766
118,470.450,72.90842476906812,760.0915752309319
119,473.262,59.603133852996734,760.3968661470033
120,476.073,53.29642134411745,760.7035786558826
121,478.883,47.988295285010395,761.0117047149896
122,481.692,41.678763695428074,761.3212363045719
123,484.499,15.36783457229535,761.6321654277046
124,487.306,34.05551588970934,761.9444841102907
125,490.111,27.741815598939525,762.2581844010605
126,492.916,18.42674162842752,762.5732583715725
127,495.719,12.110301883787315,762.8896981162127
128,498.521,25.79250424780537,763.2074957521946
129,501.322,41.473356580440054,763.52664341956
130,504.123,112.15286671882245,763.8471332811775
131,506.922,85.83104247725566,764.1689575227443
132,509.720,38.507891647215274,764.4921083527847
133,512.517,9.183421997348887,764.8165780026511
134,515.312,12.857641273476588,765.1423587265234
135,518.107,9.530557198590941,765.4694428014091
136,520.901,20.20217747285642,765.7978225271436
137,523.694,23.872509773609977,766.12749022639
138,526.485,18.54156175536093,766.4584382446391
139,529.276,0.20934104979085078,766.7906589502091
140,532.065,10.875855265753557,767.1241447342464
141,534.854,22.541111989275237,767.4588880107248
142,537.641,11.205118783554099,767.7948812164459
143,540.427,7.867883188961173,768.1321168110388
144,543.213,23.529412723039172,768.4705872769608
145,545.997,17.18971488050363,768.8102851194964
146,548.780,21.8487971332421,769.1512028667579
147,551.562,0.0,769.4933330696855
148,554.343,19.163331697953026,769.836668302047
149,557.123,16.818798839562078,770.1812011604379
150,559.902,12.473075735718453,770.5269242642815
151,562.679,0.12616974417142046,770.8738302558286
152,565.456,7.778088199842159,771.2219118001578
153,568.232,2.4288384148244404,771.5711615851756
154,571.006,9.078427678384287,771.9215723216157
155,573.780,13.726863256959746,772.2731367430403
156,576.553,3.3741523941615696,772.6258476058384
157,579.324,37.020302310772536,772.9796976892275
158,582.094,16.665320204747786,773.3346797952522
159,584.864,5.309213251214828,773.6907867487852
160,587.632,7.951988602473307,774.0480113975267
161,590.399,15.593653387995346,774.4063466120047
162,593.166,28.234214714425207,774.7657852855748
163,595.931,3.8736796655794024,775.1263203344206
164,598.695,15.512055302447152,775.4879446975528
165,601.458,6.1493486631893575,775.8506513368106
166,604.220,29.78556676313974,776.2144332368603
167,606.981,5.420716594803935,776.5792834051961
168,609.741,0.0,776.9451948721398
169,612.499,17.68783930915879,777.3121606908412
170,615.257,7.319826062722427,777.6801739372776
171,618.014,19.95077228974617,778.0492277102538
172,620.770,21.58068486859713,778.4193151314029
173,623.524,18.209570654815025,778.790429345185
174,626.278,7.837436481111695,779.1625635188883
175,629.031,10.46428915737124,779.5357108426288
176,631.782,11.090135470650125,779.9098645293499
177,634.533,18.714982185177064,780.2850178148229
178,637.282,6.33883604235325,780.6611639576467
179,640.030,33.9617037607519,781.0382962392481
180,642.778,10.583592036118716,781.4164079638813
181,645.524,8.204507541371527,781.7954924586285
182,648.269,2.824456926600533,782.1755430733995
183,651.013,0.4434468190684129,782.5565531809316
184,653.757,6.061483823209983,782.93851617679
185,656.499,5.678574520632083,783.3214254793679
186,659.240,0.0,783.7052745298855
187,661.980,2.909943207608535,784.0900567923915
188,664.719,20.524234246238507,784.4757657537615
189,667.457,2.137605076300474,784.8623949236995
190,670.194,14.750062165263103,785.2499378347369
191,672.929,17.36161195776731,785.6383880422327
192,675.664,8.972260875626262,786.0277391243737
193,678.398,12.58201531782538,786.4179846821746
194,681.131,1.1908816605224501,786.8091183394775
195,683.863,5.798866257047507,787.2011337429525
196,686.593,37.40597543790284,787.5940245620972
197,689.323,20.012215510763212,787.9877844892368
198,692.052,0.0,788.3824072395244
199,694.779,5.222113449059066,788.7778865509409
200,697.506,18.825783815705336,789.1742161842947
201,700.231,15.428610076778,789.571389923222
202,702.956,22.03059842581331,789.9694015741867
203,705.679,11.631755033519767,790.3682449664802
204,708.402,34.2320860477779,790.7679139522221
205,711.123,9.831597593640936,791.1684024063591
206,713.843,15.43029577333391,791.5697042266661
207,716.563,3.0281866662545553,791.9718133337454
208,719.281,0.0,792.3747236710273
209,721.998,24.22157079523072,792.7784292047693
210,724.714,0.0,793.182923924057
211,727.430,20.41179815919611,793.5882018408039
212,730.144,23.00574301024926,793.9942569897507
213,732.857,24.59891657153389,794.4010834284661
214,735.569,0.0,794.8086752373464
215,738.280,36.78297348038427,795.2170265196157
216,740.990,0.0,795.6261314013257
217,743.699,0.0,796.0359840313558
218,746.407,39.553421418586595,796.4465785814134
219,749.114,22.14209075396684,796.8579092460332
220,751.820,8.730029757422244,797.2699702425778
221,754.525,9.31724418876263,797.6827558112374
222,757.229,3.9037397849699573,798.09626021503
223,759.932,4.489522260198555,798.5104777398014
224,762.634,8.074597305775,798.925402694225
225,765.335,0.0,799.3410294098019
226,768.034,6.242647759139345,799.7573522408607
227,770.733,0.0,800.1743655645581
228,773.431,0.0,800.5920637808782
229,776.128,0.0,801.010441312633
230,778.823,0.0,801.4294926054622
231,781.518,9.15078787216703,801.849212127833
232,784.212,0.0,802.2695943710405
233,786.904,0.0,802.6906338492074
234,789.596,0.0,803.1123250992841
235,792.287,8.465337318951015,803.534662681049
236,794.976,8.042358822892425,803.9576411771076
237,797.665,2.6187448071063955,804.3812551928936
238,800.353,0.0,804.8054993566684
239,803.039,8.769631680479165,805.2303683195208
240,805.725,0.34414324463227786,805.6558567553677
241,808.409,4.918040639046808,806.0819593609532
242,811.093,11.491329144150427,806.5086708558496
243,813.775,8.064014017543514,806.9359859824565
244,816.457,9.63610049399847,807.3638995060015
245,819.137,9.207593785460062,807.7924062145399
246,821.817,19.77849908104554,808.2215009189545
247,824.495,0.0,808.651178452956
248,827.173,0.0,809.0814336730825
249,829.849,18.48773854129979,809.5122614587002
250,832.524,30.05634328799715,809.9436567120028
251,835.199,20.62438564198817,810.3756143580118
252,837.872,24.191870655423713,810.8081293445763
253,840.545,19.758803357626903,811.2411966423731
254,843.216,22.325188755093336,811.6748112449067
255,845.886,3.8910318314905226,812.1089681685095
256,848.556,0.0,812.5436624523412
257,851.224,1.0211108416101524,812.9788891583898
258,853.891,0.5853566285294391,813.4146433714706
259,856.558,0.0,813.8509201992264
260,859.223,11.71228522787169,814.2877147721283
261,861.887,7.274977756525459,814.7250222434745
262,864.551,5.83716221060854,815.1628377893915
263,867.213,0.39884339116701994,815.601156608833
264,869.874,0.0,816.0399739235806
265,872.535,4.520715021756246,816.4792849782438
266,875.194,7.080914959740767,816.9190850402592
267,877.852,31.64063060010801,817.359369399892
268,880.510,6.1998666297656655,817.8001333702343
269,883.166,12.758627712793668,818.2413722872063
270,885.821,16.316918490444095,818.6830815095559
271,888.475,19.874743581141388,819.1252564188586
272,891.129,14.432107580482352,819.5678924195176
273,893.781,16.989015061236046,820.010984938764
274,896.432,30.545470573343778,820.4545294266562
275,899.083,0.0,820.8985213560808
276,901.732,3.6570437772484183,821.3429562227516
277,904.380,12.212170454789316,821.7878295452107
278,907.028,31.766863135172798,822.2331368648272
279,909.674,3.3211262542013174,822.6788737457987
280,912.319,9.874964224850373,823.1250357751496
281,914.963,2.428381437267035,823.571618562733
282,917.607,18.98138225877119,824.0186177412288
283,920.249,18.53397103385487,824.4660289661451
284,922.890,13.086152084182231,824.9138479158178
285,925.531,17.637929708589922,825.3620702914101
286,928.170,25.18930818308695,825.810691816913
287,930.808,0.0,826.2597082391458
288,933.446,0.0,826.7091153277545
289,936.082,6.8410911247864306,827.1589088752136
290,938.717,5.39091530317512,827.6090846968249
291,941.352,1.9403613692818453,828.0596386307182
292,943.985,20.489433462149236,828.5105665378508
293,946.618,0.0,828.9618643020076
294,949.249,0.0,829.4135278298015
295,951.879,0.1344469493270708,829.8655530506729
296,954.509,0.0,830.3179359168901
297,957.137,2.229327596451185,830.7706724035488
298,959.765,7.7762414914272995,831.2237585085727
299,962.391,0.0,831.677190252713
300,965.016,3.869036320451414,832.1309636795486
301,967.641,0.0,832.5850748554865
302,970.264,5.960480130239262,833.0395198697607
303,972.887,0.0,833.4942948344336
304,975.508,0.0,833.949395884395
305,978.129,0.0,834.4048191773622
306,980.748,0.0,834.8605608938806
307,983.367,0.6833827626769562,835.316617237323
308,985.984,6.227015566109799,835.7729844338902
309,988.601,13.770341267389654,836.2296587326103
310,991.217,2.313363594660359,836.6866364053396
311,993.831,0.0,837.1439137467617
312,996.445,15.398512925612067,837.6014870743879
313,999.058,33.940647271442344,838.0593527285577
314,1001.669,24.48249292756236,838.5175070724376
315,1004.280,19.024053507977555,838.9759464920224
316,1006.890,13.565332603865613,839.4346673961344
317,1009.498,6.1063337835767015,839.8936662164233
318,1012.106,4.647060592632897,840.3529394073671
319,1014.713,4.187516553728983,840.812483446271
320,1017.319,20.72770516673188,841.2722948332681
321,1019.923,9.267629908680647,841.7323700913194
322,1022.527,7.8072942337869335,842.1927057662131
323,1025.130,21.34670157343453,842.6532984265655
324,1027.732,9.885855336179475,843.1141446638205
325,1030.333,0.42475890775017433,843.5752410922498
326,1032.933,0.0,844.0365843489527
327,1035.532,31.501828906143714,844.4981710938563
328,1038.130,20.04000199028485,844.9599980097152
329,1040.727,16.577938197888216,845.4220618021118
330,1043.323,12.115640800543702,845.8843591994563
331,1045.918,13.653113047013335,846.3468869529867
332,1048.512,21.190358163231735,846.8096418367683
333,1051.105,1.7273793523054337,847.2726206476946
334,1053.697,0.0,847.7358202054862
335,1056.288,8.800762647307806,848.1992373526922
336,1058.878,3.337131045311253,848.6628689546887
337,1061.467,0.0,849.1267118996799
338,1064.056,0.0,849.5907630986976
339,1066.643,45.94498051439882,850.0550194856012
340,1069.229,6.480521982922255,850.5194780170777
341,1071.814,0.0,850.9841356726424
342,1074.399,5.55101054536226,851.4489894546377
343,1076.982,10.08596361176592,851.9140363882341
344,1079.565,5.620726478570759,852.3792735214292
345,1082.146,10.155302074950896,852.8446979250491
346,1084.726,20.689693307253037,853.310306692747
347,1087.306,30.223903058995802,853.7760969410042
348,1089.884,41.75793419087063,854.2420658091294
349,1092.462,5.291789540740751,854.7082104592592
350,1095.039,1.8254719236421124,855.1745280763579
351,1097.614,38.35898413178268,855.6410158682173
352,1100.189,0.8923289345427747,856.1076710654572
353,1102.763,19.425509078475102,856.5744909215249
354,1105.335,13.958527287304605,857.0414727126954
355,1107.907,57.49138626192837,857.5086137380716
356,1110.478,41.02408868041607,857.9759113195839
357,1113.048,52.55663719800941,858.4433628019906
358,1115.617,44.089034447122685,858.9109655528773
359,1118.185,43.621283037342096,859.3787169626579
360,1120.752,58.15338555542644,859.8466144445736
361,1123.318,40.68534456530665,860.3146554346933
362,1125.883,75.21716260808626,860.7828373919137
363,1128.447,63.74884220204058,861.2511577979594
364,1131.010,29.280385842617534,861.7196141573825
365,1133.572,28.811796002437404,862.1882039975626
366,1136.133,43.34307513129261,862.6569248687074
367,1138.693,27.874225656147928,863.1257743438521
368,1141.253,43.4052499811404,863.5947500188596
369,1143.811,69.93615048757943,864.0638495124206
370,1146.368,47.46692953394654,864.5330704660535
371,1148.925,43.99758945589588,865.0024105441041
372,1151.480,39.528132566253475,865.4718674337465
373,1154.035,57.05856115501808,865.9414388449819
374,1156.588,57.58887748936036,866.4111225106396
375,1159.141,43.11908381362355,866.8809161863765
376,1161.693,47.64918234932293,867.3508176506771
377,1164.243,31.179175295146365,867.8208247048536
378,1166.793,48.70906482695375,868.2909351730463
379,1169.342,57.23885309777745,868.7611469022225
380,1171.890,34.76854223782209,869.2314577621779
381,1174.436,57.29813435446454,869.7018656455355
382,1176.982,57.82763153225403,870.172368467746
383,1179.527,71.35703583291195,870.642964167088
384,1182.071,55.88634929533214,871.1136507046679
385,1184.614,61.415573935580596,871.5844260644194
386,1187.157,57.94471174689579,872.0552882531042
387,1189.698,58.47376469968833,872.5262353003117
388,1192.238,31.00273474154119,872.9972652584588
389,1194.777,65.5316237972097,873.4683762027903
390,1197.315,62.06043376862135,873.9395662313786
391,1199.853,29.589166534875858,874.4108334651241
392,1202.389,43.117823952245544,874.8821760477545
393,1204.925,36.64640785417464,875.3535921458254
394,1207.459,51.17492005128008,875.8250799487199
395,1209.993,33.703362331350945,876.296637668649
396,1212.525,37.23173645934821,876.7682635406518
397,1215.057,31.760044177405803,877.2399558225942
398,1217.588,58.288287204829544,877.7117127951705
399,1220.118,39.816467238097516,878.1835327619025
400,1222.646,32.34458595086039,878.6554140491396
401,1225.174,33.87264499394087,879.1273550060591
402,1227.701,8.400645995334003,879.599354004666
403,1230.227,53.928590560207226,880.0714094397928
404,1232.752,72.45648027090033,880.5435197290997
405,1235.277,44.98431668692501,881.015683313075
406,1237.800,36.512101344965686,881.4878986550343
407,1240.322,42.03983575887901,881.960164241121
408,1242.843,59.567521419693776,882.4324785803062
409,1245.364,52.095159795610925,882.9048402043891
410,1247.883,60.62275233200421,883.3772476679958
411,1250.402,44.1503004514193,883.8496995485807
412,1252.919,3.6778055535739895,884.322194446426
413,1255.436,30.20526901535891,884.7947309846411
414,1257.951,49.73269219083659,885.2673078091634
415,1260.466,29.260076411241812,885.7399235887582
416,1262.980,39.78742298498196,886.212577015018
417,1265.493,39.31473319763654,886.6852668023635
418,1268.005,46.842008311957215,887.1579916880428
419,1270.516,30.369249567868223,887.6307504321318
420,1273.026,62.896458182465835,888.1035418175342
421,1275.535,54.42363535001891,888.5763646499811
422,1278.043,61.95078224196823,889.0492177580318
423,1280.550,68.47790000692726,889.5220999930727
424,1283.056,75.00498977068139,889.9950102293186
425,1285.562,51.53205263618861,890.4679473638114
426,1288.066,61.059089683579145,890.9409103164209
427,1290.570,67.58610197015526,891.4138980298447
428,1293.072,62.1130905303919,891.8869094696081
429,1295.574,46.640056375935956,892.359943624064
430,1298.075,83.16700049560677,892.8329995043932
431,1300.574,36.69392385539618,893.3060761446038
432,1303.073,52.22082739846792,893.7791726015321
433,1305.571,31.74771204515821,894.2522879548418
434,1308.068,41.27457869297575,894.7254213070242
435,1310.564,43.80142821660115,895.1985717833988
436,1313.059,28.328261467887614,895.6717385321124
437,1315.554,27.85507927586059,896.1449207241394
438,1318.047,20.381882446717782,896.6181175532822
439,1320.539,28.908671763829034,897.091328236171
440,1323.031,23.43544798773678,897.5645520122632
441,1325.521,43.96221185615559,898.0377881438444
442,1328.011,55.488964083972405,898.5110359160276
443,1330.499,48.015705363246184,898.9842946367538
444,1332.987,89.54243636320848,899.4575636367915
445,1335.474,86.06915773026321,899.9308422697368
446,1337.959,86.59587008798633,900.4041299120137
447,1340.444,71.12257403712624,900.8774259628738
448,1342.928,61.6492701556034,901.3507298443966
449,1345.411,85.17595899851096,901.824041001489
450,1347.894,60.7026410981141,902.2973589018859
451,1350.375,59.22931696385035,902.7706830361496
452,1352.855,90.75598708232951,903.2440129176705
453,1355.335,66.28265191733362,903.7173480826664
454,1357.813,45.80931190981744,904.1906880901826
455,1360.291,52.335967477907275,904.6640325220927
456,1362.767,66.86261901690227,905.1373809830977
457,1365.243,80.38926689927393,905.6107331007261
458,1367.718,49.91591147466556,906.0840885253344
459,1370.191,75.44255306989317,906.5574469301068
460,1372.664,75.96919198894511,907.0308080110549
461,1375.136,58.49582851298146,907.5041714870185
462,1377.608,72.02246290033543,907.9775370996646
463,1380.078,69.5490953865118,908.4509046134882
464,1382.547,75.07572618418806,908.924273815812
465,1385.015,81.60235548321384,909.3976445167862
466,1387.483,54.128983450611145,909.8710165493889
467,1389.949,55.65561023057421,910.3443897694258
468,1392.415,42.182235944469426,910.8177640555306
469,1394.880,62.70886069083588,911.2911393091641
470,1397.343,53.235484545384566,911.7645154546154
471,1399.806,60.76210756099886,912.2378924390011
472,1402.268,46.288729767734594,912.7112702322654
473,1404.729,62.815351172819874,913.1846488271801
474,1407.189,41.341971760654815,913.6580282393452
475,1409.648,44.86859149281213,914.1314085071879
476,1412.107,39.39521030803667,914.6047896919633
477,1414.564,33.92182812224564,915.0781718777544
478,1417.020,56.448444828528636,915.5515551714714
479,1419.476,39.97506029714725,916.0249397028527
480,1421.931,41.501674375535686,916.4983256244643
481,1424.384,38.0282868883005,916.9717131116995
482,1426.837,34.55489763722005,917.44510236278
483,1429.289,12.08150640124552,917.9184935987545
484,1431.740,26.608112936499992,918.3918870635
485,1434.190,26.13471697627915,918.8652830237208
486,1436.639,15.661318231050927,919.3386817689491
487,1439.088,9.187916388455278,919.8120836115447
488,1441.535,21.714511113304752,920.2854888866952
489,1443.981,14.241102047584036,920.758897952416
490,1446.427,14.767688810450295,921.2323111895497
491,1448.872,33.294270998232605,921.7057290017674
492,1451.315,15.820848184432862,922.1791518155671
493,1453.758,21.34741991972487,922.6525800802751
494,1456.200,28.87398573195469,923.1260142680453
495,1458.641,17.400545126141083,923.5994548738589
496,1461.081,0.0,924.0729024155253
497,1463.520,15.45364256631865,924.5463574336814
498,1465.959,15.980179508208266,925.0198204917917
499,1468.396,0.0,925.4932921761485
500,1470.832,0.0,925.966773095872
501,1473.268,39.5597361170901,926.4402638829099
502,1475.703,25.086234807962683,926.9137651920373
503,1478.137,23.612722299142206,927.3872777008578
504,1480.569,11.139197890198034,927.860802109802
505,1483.001,37.66566085787167,928.3343391421283
506,1485.432,12.192110456076762,928.8078895439232
507,1487.863,64.71854591589931,929.2814540841007
508,1490.292,42.2449664455977,929.7550335544023
509,1492.720,51.771371230602654,930.2286287693973
510,1495.148,51.29775943351706,930.7022405664829
511,1497.574,41.82413019411604,931.175869805884
512,1500.000,35.3504826293472,931.6495173706528
513,1502.425,25.876815833330284,932.1231841666697
514,1504.849,19.40312887735763,932.5968711226424
515,1507.272,21.92942080989326,933.0705791901067
516,1509.694,1.4556906565742338,933.5443093434258
517,1512.115,0.0,934.0180625797907
518,1514.535,0.0,934.4918399192202
519,1516.955,0.0,934.9656424045605
520,1519.373,5.560528898514008,935.439471101486
521,1521.791,32.08667290150163,935.9133270984984
522,1524.207,12.612788493072799,936.3872115069272
523,1526.623,25.138874539070343,936.8611254609297
524,1529.038,19.664929882509227,937.3350701174908
525,1531.452,11.190953343576894,937.8090466564231
526,1533.865,19.71694371963281,938.2830562803672
527,1536.278,0.242899785209147,938.7571002147909
528,1538.689,22.768820292010105,939.2311797079899
529,1541.099,30.294703968912017,939.705296031088
530,1543.509,39.82054952196381,940.1794504780362
531,1545.918,33.34635563438678,940.6536443656132
532,1548.325,40.87212096657413,941.1278790334259
533,1550.732,59.39784415609165,941.6021558439083
534,1553.138,71.92352381767728,942.0764761823227
535,1555.543,50.44915854324131,942.5508414567587
536,1557.948,78.97474690186652,943.0252530981335
537,1560.351,82.50028743980761,943.4997125601924
538,1562.754,47.02577868049184,943.9742213195082
539,1565.155,82.55121912451864,944.4487808754814
540,1567.556,92.0766072496599,944.9233927503401
541,1569.956,100.60194151085955,945.3980584891405
542,1572.354,104.12722034023409,945.8727796597659
543,1574.752,73.65244214707195,946.347557852928
544,1577.150,112.17760531783426,946.8223946821657
545,1579.546,88.70270821615429,947.2972917838457
546,1581.941,64.22774918283744,947.7722508171626
547,1584.336,96.75272653586183,948.2472734641382
548,1586.729,68.27763857037723,948.7223614296228
549,1589.122,47.802483558706285,949.1975164412937
550,1591.514,42.327259750343615,949.6727402496564
551,1593.905,64.85196537195645,950.1480346280435
552,1596.295,41.37659862738383,950.6234013726162
553,1598.684,55.90115769763736,951.0988423023626
554,1601.072,30.425640740901258,951.5743592590987
555,1603.460,34.95004589253142,952.0499541074686
556,1605.846,30.474371265056448,952.5256287349436
557,1608.232,20.998614948177078,953.0013850518229
558,1610.617,22.522775008766416,953.4772249912336
559,1613.001,29.04684949086993,953.9531505091301
560,1615.384,8.570836415705116,954.4291635842949
561,1617.766,12.094733781662057,954.9052662183379
562,1620.147,15.618539564303092,955.3814604356969
563,1622.527,27.14225171636258,955.8577482836374
564,1624.907,5.665868167747476,956.3341318322525
565,1627.285,25.18938682553687,956.8106131744631
566,1629.663,3.712805573982223,957.2871944260178
567,1632.040,25.236122274507352,957.7638777254926
568,1634.416,8.759334765708218,958.2406652342918
569,1636.791,8.282440863353031,958.717559136647
570,1639.165,3.805438360382709,959.1945616396173
571,1641.539,7.328325026909852,959.6716749730901
572,1643.911,18.851098610219765,960.1489013897802
573,1646.283,35.37375683477012,960.6262431652299
574,1648.654,0.0,961.1037025978094
575,1651.023,0.0,961.5812820087169
576,1653.392,0.0,962.0589837419777
577,1655.761,8.463189835554658,962.5368101644453
578,1658.128,0.0,963.0147636658006
579,1660.494,0.0,963.4928466585525
580,1662.860,5.028938421962835,963.9710615780372
581,1665.224,29.550589117581012,964.449410882419
582,1667.588,0.0,964.9278970526897
583,1669.951,29.593477407331193,965.4065225926688
584,1672.313,6.1147099709965005,965.8852900290035
585,1674.674,9.635798088830938,966.3642019111691
586,1677.034,0.0,966.8432608114679
587,1679.394,16.677530674969603,967.3224693250304
588,1681.752,0.0,967.8018300698146
589,1684.110,0.0,968.2813456866064
590,1686.467,21.238981160980757,968.7610188390192
591,1688.823,14.75914778650565,969.2408522134943
592,1691.178,0.0,969.7208485193005
593,1693.532,0.0,970.2010104885344
594,1695.885,0.0,970.6813408761203
595,1698.238,13.838157540189627,971.1618424598104
596,1700.589,0.0,971.6425180401841
597,1702.940,0.0,972.1233704406488
598,1705.290,13.395597492559887,972.6044025074401
599,1707.639,23.914382890379557,973.0856171096204
600,1709.987,14.432982860919651,973.5670171390803
601,1712.334,7.951394489461791,974.0486055105382
602,1714.681,0.0,974.5303851615399
603,1717.026,13.987640947540854,975.0123590524591
604,1719.371,7.50546983350273,975.4945301664973
605,1721.715,0.0,975.9769015096832
606,1724.058,23.540523889126007,976.459476110874
607,1726.400,0.0,976.9422570217538
608,1728.741,1.574752683165002,977.425247316835
609,1731.082,28.09154990654247,977.9084500934575
610,1733.421,15.608131528211288,978.3918684717887
611,1735.760,12.124494405175938,978.8755055948241
612,1738.098,4.640635371613598,979.3593646283864
613,1740.435,0.0,979.8434487611268
614,1742.771,5.672238795476801,980.3277612045232
615,1745.106,0.0,980.812305192882
616,1747.440,17.70291601666304,981.297083983337
617,1749.774,13.217899144150465,981.7821008558495
618,1752.106,0.0,982.2673591132091
619,1754.438,5.24713791896761,982.7528620810324
620,1756.769,0.0,983.2386131077642
621,1759.099,1.275384435323076,983.7246155646769
622,1761.428,14.789127154129574,984.2108728458704
623,1763.757,5.302611631727473,984.6973883682725
624,1766.084,0.0,985.1841655716388
625,1768.411,10.328792081447773,985.6712079185522
626,1770.737,2.841481105576122,986.1585188944239
627,1773.062,10.353897992507882,986.6461020074921
628,1775.386,15.866039211176485,987.1339607888235
629,1777.709,2.3779012076882964,987.6220987923117
630,1780.031,0.0,988.1105195946786
631,1782.353,4.400773204526331,988.5992267954737
632,1784.674,23.9117759829262,989.0882240170738
633,1786.993,5.422485095316233,989.5775149046838
634,1789.312,23.932896873663708,990.0671031263363
635,1791.631,0.0,990.5569923728915
636,1793.948,0.0,991.0471863580375
637,1796.264,28.46231118171056,991.5376888182894
638,1798.580,16.971496487008835,992.0285035129912
639,1800.895,16.48036577568655,992.5196342243134
640,1803.208,0.0,993.011084757255
641,1805.522,17.497141060357308,993.5028589396427
642,1807.834,24.005039377870048,993.99496062213
643,1810.145,28.51260632180083,994.4873936781992
644,1812.456,10.019837995840362,994.9801620041596
645,1814.765,10.526730480851029,995.473269519149
646,1817.074,15.033279834868154,995.9667201651318
647,1819.382,6.539482093099082,996.4605179069009
648,1821.689,7.045333267923297,996.9546667320767
649,1823.995,11.550829348892648,997.4491706511074
650,1826.301,39.05596630273135,997.9440336972687
651,1828.605,59.56074007333609,998.4392599266639
652,1830.909,0.06514658177570709,998.9348534182243
653,1833.212,9.569181726290935,999.4308182737091
654,1835.514,17.07284138229545,999.9271586177045
655,1837.815,7.576121402374838,1000.4238785976252
656,1840.115,17.079017616287047,1000.920982383713
657,1842.415,12.581525830962391,1001.4184741690376
658,1844.714,1.0836418305034385,1001.9163581694966
659,1847.011,0.0,1002.414638623815
660,1849.308,13.086680206454389,1002.9133197935456
661,1851.604,8.587594036930795,1003.4124059630692
662,1853.900,10.088098560406138,1003.9119014395939
663,1856.194,19.588189446844353,1004.4118105531556
664,1858.488,11.087862343381971,1004.912137656618
665,1860.781,10.587112874327431,1005.4128871256726
666,1863.072,5.085936641161652,1005.9140633588383
667,1865.364,5.584329222537917,1006.4156707774621
668,1867.654,3.082286174281762,1006.9177138257182
669,1869.943,23.57980302939086,1007.4201969706091
670,1872.232,11.076875298035475,1007.9231247019645
671,1874.520,0.0,1008.426501532442
672,1876.806,3.0696680024730085,1008.930331997527
673,1879.092,9.565379344467601,1009.4346206555324
674,1881.378,0.0,1009.939372087599
675,1883.662,28.555409102304566,1010.4445908976954
676,1885.946,3.049718287382575,1010.9502817126174
677,1888.228,0.0,1011.456449181989
678,1890.510,5.036902021738342,1011.9630979782617
679,1892.791,21.52976720328536,1012.4702327967146
680,1895.072,22.022141644544945,1012.977858355455
681,1897.351,0.0,1013.4859793954174
682,1899.629,0.0,1013.994600680364
683,1901.907,18.496273003114993,1014.503726996885
684,1904.184,2.9866368456017653,1015.0133631543982
685,1906.460,5.476486014850934,1015.5235139851491
686,1908.735,25.965815655789243,1016.0341843442108
687,1911.010,26.454620890515912,1016.5453791094841
688,1913.283,36.942896818302415,1017.0571031816976
689,1915.556,17.430638515592136,1017.5693614844079
690,1917.828,30.917841036001164,1018.0821589639988
691,1920.099,18.40449941031818,1018.5955005896818
692,1922.369,0.0,1019.1093913534967
693,1924.638,0.0,1019.6238362703102
694,1926.907,30.861159622182413,1020.1388403778176
695,1929.175,21.3455912634588,1020.6544087365412
696,1931.442,16.829453570169107,1021.1705464298309
697,1933.708,28.312741436134843,1021.6872585638652
698,1935.973,4.795449732350676,1022.2045502676493
699,1938.237,34.27757330698307,1022.7224266930169
700,1940.501,4.759106985371204,1023.2408930146288
701,1942.764,31.24004557002604,1023.759954429974
702,1945.026,33.720383840631484,1024.2796161593685
703,1947.287,19.200116554043007,1024.799883445957
704,1949.547,17.679238444288785,1025.3207615557112
705,1951.807,0.0,1025.8422557774306
706,1954.065,25.63562857725765,1026.3643714227424
707,1956.323,22.11288617389846,1026.8871138261015
708,1958.580,18.589511655208753,1027.4104883447912
709,1960.836,22.06549964107853,1027.9345003589215
710,1963.092,3.5408447285697093,1028.4591552714303
711,1965.346,10.015541491916338,1028.9844585080837
712,1967.600,12.48958448252506,1029.510415517475
713,1969.853,11.962968228974432,1030.0370317710256
714,1972.105,0.0,1030.5643127629844
715,1974.356,0.0,1031.092264010428
716,1976.606,8.379108946739507,1031.6208910532605
717,1978.856,14.849800545785456,1032.1501994542145
718,1981.105,21.319805201150757,1032.6801947988492
719,1983.353,0.0,1033.2108826955525
720,1985.600,45.25773122446071,1033.7422687755393
721,1987.846,11.725641307147725,1034.2743586928523
722,1990.092,16.19284187563767,1034.8071581243623
723,1992.336,19.659327230232293,1035.3406727697677
724,1994.580,0.0,1035.874908351594
725,1996.823,29.590129384804413,1036.4098706151956
726,1999.065,36.05443467124678,1036.9455653287532
727,2001.307,22.518001716723802,1037.4819982832762
728,2003.547,19.98082470739837,1038.0191752926016
729,2005.787,0.0,1038.5571021933933
730,2008.026,0.0,1039.095784845144
731,2010.264,32.364770869826316,1039.6352291301737
732,2012.501,13.824559046370496,1040.1754409536295
733,2014.738,2.283573756512851,1040.7164262434871
734,2016.974,4.741809049450467,1041.2581909505495
735,2019.209,19.199258951552565,1041.8007410484474
736,2021.443,40.655917466360734,1042.3440825336393
737,2023.676,21.111778574588698,1042.8882214254113
738,2025.908,21.566836234123002,1043.433163765877
739,2028.140,30.021084380021648,1043.9789156199784
740,2030.371,23.474516924515456,1044.5254830754845
741,2032.601,39.92712775700761,1045.0728722429924
742,2034.830,24.378910744073437,1045.6210892559266
743,2037.058,31.829859729460622,1046.1701402705394
744,2039.286,0.0,1046.720031465911
745,2041.512,0.0,1047.2707690439493
746,2043.738,32.177640770610196,1047.8223592293898
747,2045.963,29.625191730204506,1048.3748082697955
748,2048.188,12.071877564442502,1048.9281224355575
749,2050.411,18.517691980105838,1049.4823080198942
750,2052.634,16.962628661147846,1050.0373713388522
751,2054.856,0.0,1050.593318731305
752,2057.077,25.849843441045095,1051.150156558955
753,2059.297,41.29210879366906,1051.707891206331
754,2061.517,17.733470919209367,1052.2665290807906
755,2063.735,24.173923387481636,1052.8260766125184
756,2065.953,30.613459745472937,1053.386540254527
757,2068.170,26.052073517343388,1053.9479264826566
758,2070.386,19.48975820442479,1054.5102417955752
759,2072.602,16.926507285221533,1055.0734927147785
760,2074.816,25.36231421541015,1055.6376857845898
761,2077.030,9.797172427839996,1056.20282757216
762,2079.243,40.231075332531645,1056.7689246674684
763,2081.455,0.0,1057.3359836833208
764,2083.667,0.0,1057.904011255352
765,2085.877,25.52698595797665,1058.4730140420234
766,2088.087,19.957001275375205,1059.0429987246248
767,2090.296,0.0,1059.6139720072738
768,2092.504,32.81405938308512,1060.1859406169149
769,2094.712,43.24108869667907,1060.758911303321
770,2096.918,30.667109160907557,1061.3328908390924
771,2099.124,3.092113980342674,1061.9078860196573
772,2101.329,13.516096336728197,1062.4839036632718
773,2103.533,11.93904938898072,1063.0609506110193
774,2105.736,3.360966273189433,1063.6390337268106
775,2107.939,6.781840102614751,1064.2181598973852
776,2110.141,29.201663967690592,1064.7983360323094
777,2112.342,14.620430936022103,1065.379569063978
778,2114.542,29.038134052387704,1065.9618659476123
779,2116.741,12.454766338737272,1066.5452336612627
780,2118.940,7.870320794193731,1067.1296792058063
781,2121.138,29.28479039505146,1067.7152096049485
782,2123.335,35.698168094777884,1068.3018319052221
783,2125.531,0.0,1068.8895531759879
784,2127.726,5.521619490566309,1069.4783805094337
785,2129.921,13.931678979424305,1070.0683210205757
786,2132.114,28.34061815274208,1070.659381847258
787,2134.307,21.748429849848435,1071.2515701501516
788,2136.500,29.15510688724453,1071.8448931127555
789,2138.691,32.560642058603435,1072.4393579413966
790,2140.881,37.965028134770364,1073.0349718652296
791,2143.071,19.36825786376312,1073.6317421362369
792,2145.260,29.770323970772324,1074.2296760292277
793,2147.448,0.0,1074.8287808418402
794,2149.636,23.570936105460078,1075.42906389454
795,2151.823,28.96946746938056,1076.0305325306194
796,2154.008,15.366805883800453,1076.6331941161995
797,2156.193,5.762943959771064,1077.237056040229
798,2158.378,44.15787428551653,1077.8421257144835
799,2160.561,40.551589426432656,1078.4484105735673
800,2162.744,14.944081925087858,1079.0559180749121
801,2164.926,34.33534430122336,1079.6646556987766
802,2167.107,43.72536905175161,1080.2746309482484
803,2169.287,20.114148650758125,1080.8858513492419
804,2171.466,25.501675549500533,1081.4983244504995
805,2173.645,22.887942176408842,1082.1120578235912
806,2175.823,15.272940937085423,1082.7270590629146
807,2178.000,15.6566642143041,1083.343335785696
808,2180.176,18.039104368012204,1083.9608956319878
809,2182.352,2.4202537353287426,1084.5797462646713
810,2184.527,25.800104630545093,1085.199895369455
811,2186.701,40.178649345124995,1085.821350654875
812,2188.874,2.555880147703874,1086.4441198522961
813,2191.046,60.931789284090655,1087.0682107159093
814,2193.218,17.306368977265493,1087.6936310227345
815,2195.389,44.67961142738159,1088.3203885726184
816,2197.559,50.05150881176405,1088.948491188236
817,2199.728,35.42205328490991,1089.57794671509
818,2201.896,4.7912369784892235,1090.2087630215108
819,2204.064,45.15905200134421,1090.8409479986558
820,2206.231,16.52549043948875,1091.4745095605113
821,2208.397,30.890544356109785,1092.1094556438902
822,2210.562,22.254205791565937,1092.745794208434
823,2212.727,2.6164667633884164,1093.3835332366116
824,2214.890,57.977319266281484,1094.0226807337185
825,2217.053,0.0,1094.6632447278798
826,2219.216,4.694766729952562,1095.3052332700474
827,2221.377,55.05134556599933,1095.9486544340007
828,2223.538,34.40648368365328,1096.5935163163467
829,2225.697,20.760172963479363,1097.2398270365206
830,2227.856,1.1124052632142138,1097.8875947367858
831,2230.015,37.463172417767964,1098.536827582232
832,2232.172,7.812466239222658,1099.1875337607773
833,2234.329,47.16027851683202,1099.839721483168
834,2236.485,7.506601017022831,1100.4933989829772
835,2238.640,23.85142548339354,1101.1485745166065
836,2240.794,36.19474363671543,1101.8052563632846
837,2242.948,36.53654717493191,1102.463452825068
838,2245.101,36.87682777315831,1103.1231722268417
839,2247.253,25.215577083682547,1103.7844229163175
840,2249.404,45.55278673596513,1104.4472132640349
841,2251.554,0.0,1105.1115516633615
842,2253.704,29.222553469507375,1105.7774465304926
843,2255.853,7.555093695548976,1106.444906304451
844,2258.001,20.886060552912795,1107.1139394470872
845,2260.148,21.21544555692003,1107.78455444308
846,2262.295,25.543240200065156,1108.4567597999348
847,2264.441,28.869435952014555,1109.1305640479854
848,2266.586,14.194024259606294,1109.8059757403937
849,2268.730,32.516996546851715,1110.4830034531483
850,2270.873,17.83834421493384,1111.1616557850662
851,2273.016,13.158058642208061,1111.841941357792
852,2275.158,40.47613118420213,1112.5238688157979
853,2277.299,36.7925531736164,1113.2074468263836
854,2279.440,5.107315920322435,1113.8926840796776
855,2281.579,26.420410711365776,1114.5795892886342
856,2283.718,39.73182881096318,1115.2681711890368
857,2285.856,53.041561460503544,1115.9584385394965
858,2287.993,25.349599878548588,1116.6504001214514
859,2290.130,36.655935260832166,1117.3440647391678
860,2292.266,21.96055878026027,1118.0394412197397
861,2294.400,33.26346158691149,1118.7365384130885
862,2296.535,28.56463480803677,1119.4353651919632
863,2298.668,42.864069548058296,1120.1359304519417
864,2300.801,0.0,1120.838243111428
865,2302.933,12.45768788834539,1121.5423121116546
866,2305.064,0.0,1122.2481464166817
867,2307.194,25.04424498660319,1122.9557550133968
868,2309.324,27.334853088483896,1123.665146911516
869,2311.452,22.62366885641768,1124.3763311435823
870,2313.580,18.910683235033503,1125.0893167649665
871,2315.708,18.195887146132918,1125.804112853867
872,2317.834,51.479271488689164,1126.5207285113108
873,2319.960,6.760827138848526,1127.2391728611515
874,2322.085,5.040544949928972,1127.959455050071
875,2324.209,42.318415752421515,1128.6815842475785
876,2326.332,57.59443035398863,1129.4055696460114
877,2328.455,0.0,1130.1314204605344
878,2330.577,0.0,1130.8591459291406
879,2332.698,16.411244687350518,1131.5887553126495
880,2334.818,38.67974210529064,1132.3202578947094
881,2336.938,33.94633701820385,1133.0536629817962
882,2339.057,35.2110200967868,1133.7889799032132
883,2341.175,32.47378198890851,1134.5262180110915
884,2343.292,24.73461331961039,1135.2653866803896
885,2345.409,13.9935046911055,1136.0064953088945
886,2347.525,9.250446682779966,1136.74955331722
887,2349.640,31.505429851192048,1137.494570148808
888,2351.754,1.75844473007146,1138.2415552699285
889,2353.867,14.00948183032142,1138.9905181696786
890,2355.980,3.258531640016372,1139.7414683599836
891,2358.092,17.50558462440449,1140.4944153755955
892,2360.203,0.0,1141.2493687740957
893,2362.314,4.99366186410839,1142.0063381358916
894,2364.423,21.234666935780297,1142.7653330642197
895,2366.532,29.473636814857173,1143.5263631851428
896,2368.640,24.7105618524472,1144.2894381475528
897,2370.748,10.945432376831604,1145.0545676231684
898,2372.854,21.178238693463527,1145.8217613065365
899,2374.960,21.408971084968925,1146.591028915031
900,2377.065,26.63761981114544,1147.3623801888546
901,2379.170,10.864175108963536,1148.1358248910365
902,2381.273,14.088627192565355,1148.9113728074346
903,2383.376,21.310966253266088,1149.689033746734
904,2385.478,37.53118245955238,1150.4688175404476
905,2387.579,38.749265957083935,1151.250734042916
906,2389.680,33.965206868692576,1152.0347931313074
907,2391.780,2.1789952943818207,1152.8210047056182
908,2393.879,16.39062131132846,1153.6093786886715
909,2395.977,34.60007497388074,1154.3999250261193
910,2398.075,65.80734631355949,1155.1926536864405
911,2400.172,12.012425339057927,1155.987574660942
912,2402.268,4.21530203624161,1156.7846979637584
913,2404.363,39.41596636814825,1157.5840336318518
914,2406.457,17.61440827498791,1158.385591725012
915,2408.551,3.8106176741428044,1159.1893823258572
916,2410.644,20.00458446016728,1159.9954155398327
917,2412.736,18.196298504788956,1160.803701495211
918,2414.828,15.38574965690691,1161.614250343093
919,2416.919,31.572927742592128,1162.4270722574079
920,2419.009,7.757822565088873,1163.2421774349111
921,2421.098,14.940423904813088,1164.059576095187
922,2423.186,38.12072151935308,1164.879278480647
923,2425.274,11.298705143469988,1165.70129485653
924,2427.361,49.47436448909639,1166.5256355109036
925,2429.447,26.64768924533746,1167.3523107546625
926,2431.533,9.818669078471203,1168.1813309215288
927,2433.618,20.987293631947296,1169.0127063680527
928,2435.702,53.153552526387784,1169.8464474736122
929,2437.785,29.317435359587307,1170.6825646404127
930,2439.867,32.47893170651241,1171.5210682934876
931,2441.949,4.638031119302468,1172.3619688806975
932,2444.030,30.794723127268753,1173.2052768727312
933,2446.110,33.948997236894684,1174.0510027631053
934,2448.190,39.10084293183627,1174.8991570681637
935,2450.268,10.250249672921882,1175.7497503270781
936,2452.346,6.397206898151808,1176.6027931018482
937,2454.424,18.54170402269915,1177.4582959773008
938,2456.500,31.683730438908924,1178.316269561091
939,2458.576,2.8232755162985086,1179.1767244837015
940,2460.651,7.960328601557649,1180.0396713984424
941,2462.725,39.094879018548454,1180.9051209814515
942,2464.799,31.226916068304718,1181.7730839316953
943,2466.872,45.356429029033734,1182.6435709709663
944,2468.944,29.4834071561138,1183.5165928438862
945,2471.015,58.60783968209671,1184.3921603179033
946,2473.085,0.0,1185.2702841832947
947,2475.155,4.849024746835767,1186.1509752531642
948,2477.224,51.96575563655597,1187.034244363444
949,2479.293,6.0798976271064475,1187.9201023728936
950,2481.360,26.191439836899463,1188.8085601631005
951,2483.427,12.300371361520547,1189.6996286384795
952,2485.493,0.0,1190.5933187262733
953,2487.558,55.510358623447246,1191.4896413765528
954,2489.623,0.0,1192.3886075622158
955,2491.687,51.70977172101175,1193.2902282789883
956,2493.750,19.805485454576228,1194.1945145454238
957,2495.812,37.89852259709642,1195.1014774029036
958,2497.874,24.988872084363265,1196.0111279156367
959,2499.935,40.076522829339865,1196.9234771706601
960,2501.995,55.161463722162125,1197.8385362778379
961,2504.054,4.243683630138094,1198.756316369862
962,2506.113,8.323171397747728,1199.6768286022523
963,2508.171,23.39991584664358,1200.6000841533564
964,2510.228,0.0,1201.52609422435
965,2512.285,33.545129960764825,1202.4548700392352
966,2514.340,6.613577155157145,1203.3864228448429
967,2516.395,30.679236089168626,1204.3207639108314
968,2518.450,26.742095470312734,1205.2579045296873
969,2520.503,0.0,1206.1978560167236
970,2522.556,0.8593702899179334,1207.140629710082
971,2524.608,35.91376302926801,1208.086236970732
972,2526.659,24.965310817530053,1209.03468918247
973,2528.710,15.01400224807935,1209.9859977519206
974,2530.760,45.05982589146379,1210.9401741085362
975,2532.809,39.102770295402934,1211.897229704597
976,2534.857,47.14282398478963,1212.8571760152104
977,2536.905,42.1799754616884,1213.8200245383116
978,2538.952,17.21421320533591,1214.785786794664
979,2540.998,27.24552567214164,1215.7544743278584
980,2543.043,47.27390129568698,1216.726098704313
981,2545.088,21.2993284867257,1217.7006715132743
982,2547.132,23.321795633183683,1218.6782043668163
983,2549.175,17.34129110015988,1219.6587088998401
984,2551.217,25.357803229924457,1220.6421967700755
985,2553.259,21.37132034192041,1221.6286796580796
986,2555.300,39.38183073276332,1222.6181692672367
987,2557.341,26.389322676240454,1223.6106773237595
988,2559.380,31.3937844233119,1224.606215576688
989,2561.419,3.3952042021098805,1225.6047957978901
990,2563.457,22.393570217938304,1226.6064297820617
991,2565.494,33.38887065327458,1227.6111293467254
992,2567.531,40.38109366776757,1228.6189063322324
993,2569.567,49.37022739823806,1229.629772601762
994,2571.602,23.35625995868031,1230.6437400413197
995,2573.637,9.339179440260068,1231.66082055974
996,2575.670,20.318973911315652,1232.6810260886843
997,2577.703,24.295631417357527,1233.7043685826425
998,2579.736,8.269139981068065,1234.730860018932
999,2581.767,28.239487602303143,1235.7605123976969
1000,2583.798,0.0,1236.7933377419104
1001,2585.828,22.170651902627014,1237.829348097373
1002,2587.857,27.131444467287793,1238.8685555327122
1003,2589.886,1.08902786061617,1239.9109721393838
1004,2591.914,22.043389968328484,1240.9566100316715
1005,2593.941,29.994518653313662,1242.0054813466863
1006,2595.968,44.94240175563323,1243.0575982443668
1007,2597.993,22.887027092520384,1244.1129729074796
1008,2600.018,24.828382458380474,1245.1716175416195
1009,2602.043,0.0,1246.2335443752077
1010,2604.066,7.70123434050538,1247.2987656594946
1011,2606.089,28.632706331443387,1248.3672936685566
1012,2608.111,1.5608593007004856,1249.4391406992995
1013,2610.132,28.48568092854407,1250.514319071456
1014,2612.153,0.0,1251.5928411275863
1015,2614.173,11.325280766920969,1252.674719233079
1016,2616.192,0.0,1253.7599657761493
1017,2618.211,0.0,1254.8485931678415
1018,2620.228,9.05938615797345,1255.9406138420266
1019,2622.245,0.0,1257.0360402554036
1020,2624.262,0.0,1258.134884887499
1021,2626.277,34.76283975933234,1259.2371602406677
1022,2628.292,9.657121159908911,1260.342878840091
1023,2630.306,28.547946766219866,1261.4520532337801
