# kind,background_subtracted
# version_label,T112_IPBSA_v5
# poly_order,5
# iterations_run,4
pixel_index,raman_shift_cm-1,intensity,background_intensity
0,200.000,0.0,669.1786043562938
1,201.000,10.120989226144275,670.7364327738558
2,202.000,9.6842260040994,672.2967389959006
3,203.000,0.0,673.8595277387543
4,204.000,0.0,675.4248036724421
5,205.000,0.0,676.9925714207562
6,206.000,0.0,678.5628355613252
7,207.000,5.478152374318256,680.1356006256817
8,208.000,7.094511900668294,681.7108710993317
9,209.000,1.2479505781774378,683.2886514218226
10,210.000,7.331999013188124,684.8689459868119
11,211.000,2.5566948578639312,686.4517591421361
12,212.000,12.740135810121615,688.0370951898784
13,213.000,2.282630613561764,689.6249583864383
14,214.000,8.308080057400844,691.2153529425991
15,215.000,0.0,692.8082830235976
16,216.000,0.0,694.4037527491917
17,217.000,1.6972038062709771,696.001766193729
18,218.000,0.0,697.6023273862163
19,219.000,1.8584396896130784,699.205440310387
20,220.000,3.6028340952298095,700.8111089047702
21,221.000,2.5693999372406324,702.4193370627594
22,222.000,10.890849367319333,704.0301286326807
23,223.000,9.895012582138747,705.6434874178613
24,224.000,0.0,707.2594171766985
25,225.000,1.067298377271868,708.8779216227281
26,226.000,0.0,710.4990044246924
27,227.000,0.0,712.1226692066097
28,228.000,13.05056245215826,713.7489195478418
29,229.000,0.0,715.3777589831636
30,230.000,6.434898997169057,717.0091910028309
31,231.000,0.0,718.6432190526491
32,232.000,0.3794184659578832,720.2798465340421
33,233.000,4.889366195879575,721.9190768041204
34,234.000,12.958687824250092,723.5609131757499
35,235.000,12.704744082379534,725.2053589176205
36,236.000,7.867651745685748,726.8524172543142
37,237.000,5.19655463362551,728.5020913663745
38,238.000,14.773778609625879,730.1543843903742
39,239.000,6.634261581016176,731.8092994189839
40,240.000,0.0,733.4668395010414
41,241.000,2.2843813583806423,735.1270076416193
42,242.000,5.91266019790578,736.7898068020942
43,243.000,10.500051099785196,738.4552399002148
44,244.000,0.0,740.1233098101708
45,245.000,0.0,741.7940193626612
46,246.000,2.286802655037036,743.467371344963
47,247.000,2.858631499000353,745.1433685009996
48,248.000,4.945414468590229,746.8220135314098
49,249.000,0.0,748.5033090936154
50,250.000,4.408928198108924,750.1872578018911
51,251.000,2.5494727725684925,751.8738622274315
52,252.000,0.0,753.5631248984212
53,253.000,0.7211716998979227,755.2550483001021
54,254.000,7.247088125157461,756.9496348748426
55,255.000,9.194555977793925,758.6468870222061
56,256.000,8.896104900980504,760.3468070990195
57,257.000,0.0,762.0493974194414
58,258.000,3.014246744968773,763.7546602550312
59,259.000,0.0,765.4625978348176
60,260.000,11.263193654633596,767.1732123453664
61,261.000,11.458079069149903,768.8865059308501
62,262.000,10.240291306884046,770.6024806931159
63,263.000,20.42847630824599,772.321138691754
64,264.000,5.588558055833232,774.0424819441668
65,265.000,8.88533757436312,775.7665124256368
66,266.000,4.5955759306039,777.4932320693961
67,267.000,5.552152233306742,779.2226427666933
68,268.000,7.95791963313593,780.954746366864
69,269.000,12.708381322602122,782.6895446773979
70,270.000,20.001723535991914,784.4270394640081
71,271.000,0.19642954930077394,786.1672324506992
72,272.000,11.316945680163712,787.9101253198363
73,273.000,3.184715287786844,789.6557197122131
74,274.000,10.097399772879044,791.4040172271209
75,275.000,0.0,793.1550194224167
76,276.000,0.0,794.908727814592
77,277.000,1.6075231211583514,796.6651438788416
78,278.000,14.333788950868552,798.4242690491315
79,279.000,10.292141281732142,800.1861047182679
80,280.000,10.205225762034047,801.950652237966
81,281.000,14.146434081082361,803.7179129189176
82,282.000,0.0,805.487888030861
83,283.000,11.028238197351698,807.2605788026483
84,284.000,13.446483577685513,809.0359864223145
85,285.000,9.496409962853704,810.8141120371463
86,286.000,8.025100246249622,812.5949567537504
87,287.000,5.046115361878492,814.3785216381215
88,288.000,5.915810284288,816.164807715712
89,289.000,6.934959028500657,817.9538159714994
90,290.000,4.137896649944196,819.7455473500559
91,291.000,0.0,821.5400027556161
92,292.000,9.938968947854164,823.3371830521459
93,293.000,1.3528909365890058,825.1370890634109
94,294.000,0.39211442695443566,826.9397215730455
95,295.000,4.33126167537921,828.7450813246207
96,296.000,0.0,830.5531690217131
97,297.000,13.365217672026802,832.3639853279732
98,298.000,2.2895721328059153,834.177530867194
99,299.000,9.879568776619749,835.9938062233803
100,300.000,12.652706059184425,837.8128119408155
101,301.000,11.368735475867652,839.6345485241324
102,302.000,3.545719561620558,841.4590164383794
103,303.000,5.875906890908709,843.2862161090912
104,304.000,18.917989077643938,845.116147922356
105,305.000,0.0,846.9488122248844
106,306.000,8.405691675922071,848.7842093240779
107,307.000,4.928512511902113,850.6223394880979
108,308.000,17.42874905406643,852.4632029459335
109,309.000,2.231823112529355,854.3067998874707
110,310.000,8.373752536439497,856.1531304635605
111,311.000,8.482294213912269,858.0021947860878
112,312.000,11.863296071960463,859.8539929280396
113,313.000,0.0,861.708524923574
114,314.000,0.0,863.5657907680883
115,315.000,16.786583581712307,865.4257904182876
116,316.000,9.072668207745892,867.2885237922541
117,317.000,7.812898230485871,869.1539907695142
118,318.000,6.963635808891581,871.0221911911084
119,319.000,13.114474140340803,872.8931248596592
120,320.000,11.254455460559825,874.7667915394402
121,321.000,7.299220043556488,876.6431909564435
122,322.000,5.095925201550472,878.5223227984495
123,323.000,13.13394828490516,880.4041867150949
124,324.000,0.0,882.2887823179411
125,325.000,9.826833819456738,884.1761091805432
126,326.000,7.268503161481817,886.0661668385181
127,327.000,10.011917210386628,887.9589547896134
128,328.000,12.064672506224497,889.8544724937755
129,329.000,3.4317496267811975,891.7527193732188
130,330.000,8.8884591875061,893.6536948124939
131,331.000,8.13379384144423,895.5573981585558
132,332.000,5.127622279166985,897.463828720833
133,333.000,8.52747922870401,899.372985771296
134,334.000,21.916174455474447,901.2848685445256
135,335.000,0.0,903.1994762377813
136,336.000,2.073394988929522,905.1168080110705
137,337.000,16.297305012783568,907.0368629872164
138,338.000,8.678029748073186,908.9596402519268
139,339.000,2.165503146137212,910.8851388538628
140,340.000,9.43560019529275,912.8133578047073
141,341.000,6.1078329207670095,914.744296079233
142,342.000,12.746659384628174,916.6779526153719
143,343.000,9.159653685717217,918.6143263142828
144,344.000,7.837074959578672,920.5534160404213
145,345.000,0.0,922.4952206216066
146,346.000,7.177200150908789,924.4397388490912
147,347.000,0.0,926.3869694776292
148,348.000,21.972793774455,928.336911225545
149,349.000,18.55580122519882,930.2895627748012
150,350.000,2.4190332289322214,932.2449227710678
151,351.000,7.820861176209178,934.2029898237909
152,352.000,2.9354534937394874,936.1637625062605
153,353.000,1.4421926443205848,938.1272393556794
154,354.000,8.796067126767639,940.0934188732324
155,355.000,11.93623447584639,942.0622995241536
156,356.000,9.580574262203982,944.033879737796
157,357.000,9.184748092300538,946.0081579076995
158,358.000,7.519748608340365,947.9851323916596
159,359.000,2.3024884882039487,949.964801511796
160,360.000,16.506999445378597,951.9471635546214
161,361.000,9.864003228890851,953.9322167711091
162,362.000,5.6204496232369365,955.919959376763
163,363.000,12.424852448314937,957.9103895516851
164,364.000,3.163054559356283,959.9035054406437
165,365.000,0.6900008468566057,961.8993051531434
166,366.000,2.8362972365076757,963.8977867634924
167,367.000,15.421510689128354,965.8989483108717
168,368.000,2.057750200596729,967.9027877994033
169,369.000,12.806995801781454,969.9093031982186
170,370.000,10.932726558472154,971.9184924415279
171,371.000,15.696970571312704,973.9303534286873
172,372.000,9.907319975730616,975.9448840242694
173,373.000,6.942754941870476,977.9620820581296
174,374.000,6.8780576745236885,979.9819453254763
175,375.000,15.653281413060995,982.004471586939
176,376.000,3.1028374313639233,984.029658568636
177,377.000,0.5088690377555167,986.0575039622445
178,378.000,14.704342574932184,988.0880054250678
179,379.000,5.116863419895253,990.1211605801047
180,380.000,16.278431983882456,992.1569670161175
181,381.000,6.848075712299078,994.1954222877009
182,382.000,5.426834084649727,996.2365239153503
183,383.000,5.32598161446947,998.2802693855306
184,384.000,11.843229849255408,1000.3266561507446
185,385.000,2.322119370398468,1002.3756816296016
186,386.000,0.0,1004.427343206886
187,387.000,10.929468766374612,1006.4816382336254
188,388.000,12.377095972839925,1008.5385640271601
189,389.000,0.0,1010.5981178712107
190,390.000,9.130706984053063,1012.660297015947
191,391.000,11.50152432194318,1014.7250986780568
192,392.000,5.781873959185646,1016.7925200408143
193,393.000,7.393499745851614,1018.8625582541483
194,394.000,0.0,1020.9352104347113
195,395.000,6.493417334052765,1023.0104736659473
196,396.000,16.796306001838502,1025.0883449981616
197,397.000,8.338653551412108,1027.168821448588
198,398.000,0.0,1029.2519000014581
199,399.000,8.887699391930255,1031.3375776080698
200,400.000,3.0268678131446904,1033.4258511868552
201,401.000,14.373421376549231,1035.5167176234509
202,402.000,2.8840742292361483,1037.6101737707638
203,403.000,0.0,1039.7062164490426
204,404.000,0.0,1041.804842445944
205,405.000,1.7688604833977024,1043.9060485166024
206,406.000,6.023753616301519,1046.0098313836984
207,407.000,18.01225526247299,1048.116187737527
208,408.000,0.0,1050.225114236067
209,409.000,2.0022584949522297,1052.3366075050478
210,410.000,4.242457861980029,1054.4506641380199
211,411.000,6.978326303577887,1056.5672806964221
212,412.000,9.16569229034917,1058.6864537096508
213,413.000,14.353398324871705,1060.8081796751283
214,414.000,0.18639094162904257,1062.932455058371
215,415.000,3.705710706940863,1065.0592762930592
216,416.000,1.9339862188965071,1067.1886397811036
217,417.000,2.864354107284271,1069.3205418927157
218,418.000,0.38940403352444264,1071.4549789664757
219,419.000,14.414952690599875,1073.5919473094002
220,420.000,15.913286802987386,1075.7314431970126
221,421.000,15.49651812658999,1077.87346287341
222,422.000,7.092488448667382,1080.0180025513325
223,423.000,0.5667005877685369,1082.1650584122315
224,424.000,16.33490239366165,1084.3146266063384
225,425.000,5.906394747266859,1086.4667032527332
226,426.000,0.0,1088.621284439413
227,427.000,0.0,1090.7783662233603
228,428.000,2.7608793693884763,1092.9379446306116
229,429.000,8.71955334367317,1095.1000156563268
230,430.000,6.538441735143806,1097.2645752648561
231,431.000,0.0,1099.4316193898105
232,432.000,16.1261780658715,1101.6011439341285
233,433.000,5.331920229853949,1103.773144770146
234,434.000,4.01341326033571,1105.9476177396643
235,435.000,10.221644345981531,1108.1245586540185
236,436.000,7.581576705853649,1110.3039632941463
237,437.000,9.992907589343076,1112.4858274106568
238,438.000,14.556011276101344,1114.6701467238986
239,439.000,14.820062075971464,1116.8569169240286
240,440.000,2.5475893289201395,1119.0461336710798
241,441.000,2.7254494049686855,1121.2377925950314
242,442.000,2.6400947041238396,1123.431889295876
243,443.000,6.723248656310943,1125.628419343689
244,444.000,0.2837857213037296,1127.8273782786962
245,445.000,7.016592388657045,1130.028761611343
246,446.000,2.0531071776363206,1132.2325648223637
247,447.000,16.164008637151937,1134.438783362848
248,448.000,0.0,1136.6474126543114
249,449.000,1.0212159112365953,1138.8584480887635
250,450.000,8.579155971224964,1141.0718850287751
251,451.000,10.150513192450944,1143.287718807549
252,452.000,1.2904592710135603,1145.5059447289864
253,453.000,8.312866932243196,1147.7265580677567
254,454.000,14.351545930633392,1149.9495540693665
255,455.000,0.0,1152.1749279502264
256,456.000,0.0,1154.4026748977212
257,457.000,0.0,1156.6327900702775
258,458.000,5.571024402567446,1158.8652685974325
259,459.000,12.421182420097011,1161.100105579903
260,460.000,12.013063910347,1163.337296089653
261,461.000,4.568877830036399,1165.5768351699635
262,462.000,1.7925491644998601,1167.8187178355001
263,463.000,14.143773927617985,1170.062939072382
264,464.000,2.522781161750345,1172.3094938382496
265,465.000,7.508755937665228,1174.5583770623348
266,466.000,12.158002354472046,1176.809583645528
267,467.000,6.7660445395524675,1179.0631084604474
268,468.000,4.272915648492699,1181.3189463515073
269,469.000,8.155867865013306,1183.5770921349867
270,470.000,14.486678400901383,1185.8375405990987
271,471.000,6.056472495943581,1188.1002865040564
272,472.000,0.0,1190.3653245821451
273,473.000,5.97638746221196,1192.632649537788
274,474.000,0.0,1194.9022560476162
275,475.000,2.1312882394634016,1197.1741387605366
276,476.000,6.0657067021991224,1199.448292297801
277,477.000,7.128689746926057,1201.724711253074
278,478.000,8.855331807497805,1204.0033901925021
279,479.000,0.007827345218402115,1206.2843236547817
280,480.000,7.661345848771589,1208.5675061512284
281,481.000,1.9080438341550234,1210.852932165845
282,482.000,0.0,1213.14059615539
283,483.000,10.209075450553428,1215.4304925494466
284,484.000,8.2744952495093,1217.7226157504906
285,485.000,3.7212208660400847,1220.0169601339599
286,486.000,8.418980951677668,1222.3135200483223
287,487.000,9.587095184856253,1224.6122898151436
288,488.000,12.92412227084219,1226.9132637291577
289,489.000,4.781869941665946,1229.216436058334
290,490.000,6.006921956054157,1231.5218010439457
291,491.000,7.829913099360738,1233.8293529006392
292,492.000,4.096655183497887,1236.139085816502
293,493.000,7.239907046867302,1238.4509939531326
294,494.000,6.789728554293333,1240.7650714457066
295,495.000,7.249873596952511,1243.0813124030474
296,496.000,6.782168092306392,1245.3997109076936
297,497.000,8.45042298403132,1247.7202610159686
298,498.000,4.9272612419522375,1250.0429567580477
299,499.000,2.8901128619718293,1252.367792138028
300,500.000,10.047211866003863,1254.694761133996
301,501.000,3.5681323019025513,1257.0238576980973
302,502.000,5.29892524339698,1259.3550757566031
303,503.000,0.0,1261.6884092099813
304,504.000,16.453646067036743,1264.0238519329632
305,505.000,5.872882225387457,1266.3613977746124
306,506.000,5.304981441605605,1268.7010405583944
307,507.000,2.81776591775656,1271.0427740822433
308,508.000,0.0,1273.386592118633
309,509.000,4.656770585358117,1275.732488414642
310,510.000,0.0,1278.0804566920256
311,511.000,6.484467352717047,1280.430490647283
312,512.000,0.0,1282.782583951725
313,513.000,2.5857017484563585,1285.1367302515437
314,514.000,4.26424283211918,1287.492923167881
315,515.000,7.235796703103915,1289.851156296896
316,516.000,9.3326877901643,1292.2114232098356
317,517.000,2.4688265468985264,1294.5737174531014
318,518.000,0.0,1296.9380325483178
319,519.000,4.839008007597158,1299.3043619924028
320,520.000,1.3160037423656377,1301.6726992576343
321,521.000,9.593183208279925,1304.04303779172
322,522.000,0.0,1306.4153710178653
323,523.000,0.0,1308.7896923348421
324,524.000,4.323208882942254,1311.1659951170577
325,525.000,8.632461285377758,1313.5442727146221
326,526.000,9.748157546581524,1315.9245184534184
327,527.000,4.827929364830879,1318.3067256351692
328,528.000,13.964787462492495,1320.6908875375075
329,529.000,9.183488585956411,1323.0769974140435
330,530.000,1.0755055055665252,1325.4650484944334
331,531.000,4.338888015550992,1327.855033984449
332,532.000,0.0,1330.2469470660449
333,533.000,1.9825211025720364,1332.640780897428
334,534.000,2.6273943868745846,1335.0365286131255
335,535.000,0.0,1337.4341833240537
336,536.000,0.873573882412984,1339.833738117587
337,537.000,9.214692942374995,1342.235186057625
338,538.000,4.568033815337685,1344.6385201846624
339,539.000,0.0,1347.0437335158583
340,540.000,3.806034954898223,1349.4508190451018
341,541.000,14.237608256916701,1351.8597697430832
342,542.000,0.9619314426374785,1354.2705785573626
343,543.000,1.2642275875646192,1356.6832384124355
344,544.000,3.2514287901947228,1359.0977422098053
345,545.000,0.0,1361.5140828280491
346,546.000,9.216320877112594,1363.9322531228875
347,547.000,7.028268072747778,1366.3522459272522
348,548.000,3.480125948643945,1368.774054051356
349,549.000,0.0,1371.1976702827596
350,550.000,1.4802026135585038,1373.6230873864415
351,551.000,2.99742289513415,1376.0502981048658
352,552.000,5.850484841948628,1378.4792951580514
353,553.000,3.837536756360123,1380.9100712436398
354,554.000,3.0769929630357638,1383.3426190369642
355,555.000,17.140345808881875,1385.7769311911181
356,556.000,5.6976266629769725,1388.213000337023
357,557.000,11.771822916501606,1390.6508190834984
358,558.000,9.440048982671215,1393.0903800173287
359,559.000,10.984467296666708,1395.5316757033333
360,560.000,0.0,1397.9746986844336
361,561.000,0.0,1400.4194414817232
362,562.000,2.123412405464478,1402.8658965945356
363,563.000,0.0,1405.314056500512
364,564.000,15.266408344328966,1407.763913655671
365,565.000,6.227379505522549,1410.2154604944774
366,566.000,0.0,1412.6686894299094
367,567.000,3.440182146472125,1415.123592853528
368,568.000,0.0,1417.5801631355457
369,569.000,0.5091153751054662,1420.0383926248946
370,570.000,0.9792443507049029,1422.498273649295
371,571.000,14.365131484675658,1424.9597985153243
372,572.000,0.0,1427.4229595084853
373,573.000,4.101706106725032,1429.8877488932749
374,574.000,0.619886086747556,1432.3541589132524
375,575.000,0.0,1434.8221817911076
376,576.000,1.6946572712686248,1437.2918097287313
377,577.000,6.281997092718939,1439.763034907281
378,578.000,4.477080512747534,1442.2358494872524
379,579.000,4.798340391454531,1444.7102456085454
380,580.000,4.343829609466184,1447.1862153905338
381,581.000,8.069994067865764,1449.6637509321342
382,582.000,2.999926688125697,1452.1428443118743
383,583.000,4.775961412039351,1454.6234875879607
384,584.000,17.397044201651852,1457.1056727983482
385,585.000,0.0,1459.5893919608086
386,586.000,17.374762927001484,1462.0746370729985
387,587.000,0.9951618874715678,1464.5614001125284
388,588.000,0.0,1467.0496730370305
389,589.000,5.873776215771159,1469.5394477842287
390,590.000,15.010200727994516,1472.0307162720055
391,591.000,11.278436601528483,1474.5234703984715
392,592.000,0.0,1477.0177020420338
393,593.000,11.516252938535445,1479.5134030614645
394,594.000,10.208810704030839,1482.0105652959692
395,595.000,12.94245043474416,1484.5091805652557
396,596.000,4.553783330397437,1487.0092406696026
397,597.000,9.385446610073132,1489.5107373899268
398,598.000,14.135633512145887,1492.0136624878542
399,599.000,2.5140112942137876,1494.5180077057862
400,600.000,7.663231233030501,1497.0237647669694
401,601.000,6.764736624436409,1499.5309253755636
402,602.000,14.570953783289497,1502.0394812167106
403,603.000,14.725820043397107,1504.5494239566028
404,604.000,22.16811775744827,1507.0607452425518
405,605.000,10.4212322969438,1509.5734367030561
406,606.000,18.237584052129023,1512.087489947871
407,607.000,24.58824643192338,1514.6028965680766
408,608.000,25.206417863854767,1517.1196481361453
409,609.000,20.161514793986953,1519.637736206013
410,610.000,34.27415768685546,1522.1571523131445
411,611.000,41.6018410253962,1524.677887974604
412,612.000,41.9754873108775,1527.1999346891225
413,613.000,46.81927306283137,1529.7232839371686
414,614.000,62.510843818985904,1532.2479271810141
415,615.000,75.23883513519559,1534.7738558648043
416,616.000,95.92974358537413,1537.3010614146258
417,617.000,129.17852676142388,1539.8295352385762
418,618.000,156.0375752731686,1542.3592687268315
419,619.000,163.48940174828522,1544.8902532517147
420,620.000,176.52786383223497,1547.4224801677651
421,621.000,167.83810818819416,1549.955940811806
422,622.000,158.46180449698613,1552.4906265030138
423,623.000,128.66525145701326,1555.0265285429869
424,624.000,101.75858678418717,1557.5636382158127
425,625.000,80.30727721186145,1560.1019467881385
426,626.000,66.79039649076208,1562.6414455092379
427,627.000,52.044005388919686,1565.1821256110802
428,628.000,53.05802169160006,1567.7239783083999
429,629.000,36.67149420123701,1570.2669947987629
430,630.000,23.874636737362607,1572.8111662626375
431,631.000,25.158743136538533,1575.3564838634616
432,632.000,11.590030252288443,1577.9029387477115
433,633.000,26.6442419550292,1580.4505220449707
434,634.000,22.631819132001738,1582.9992248679982
435,635.000,15.598859687202776,1585.5490383127972
436,636.000,6.646603541316836,1588.099953458683
437,637.000,10.19636063164694,1590.651961368353
438,638.000,14.061909912045849,1593.2050530879542
439,639.000,8.153313352848954,1595.759219647151
440,640.000,3.7005709408044822,1598.3144520591954
441,641.000,20.227492679004627,1600.8707413209954
442,642.000,0.0,1603.4280784131822
443,643.000,5.509279699821036,1605.986454300179
444,644.000,13.267035069728308,1608.5458599302717
445,645.000,5.463526764325707,1611.1062862356744
446,646.000,6.6396258674008095,1613.6677241325992
447,647.000,0.007969478673203412,1616.2301645213267
448,648.000,15.158164713729093,1618.793598286271
449,649.000,9.841569703948835,1621.3580162960511
450,650.000,10.811551596442541,1623.9234094035576
451,651.000,2.9988025539776118,1626.4897684460225
452,652.000,1.5468477549127329,1629.0570842450873
453,653.000,8.000617393129005,1631.625347606871
454,654.000,2.05856367795991,1634.19454932204
455,655.000,10.51617883412473,1636.7646801658752
456,656.000,8.924793101658452,1639.3357308983416
457,657.000,6.9566777358438685,1641.9076922641561
458,658.000,3.299089007143948,1644.480554992856
459,659.000,0.0,1647.0543097988698
460,660.000,0.0,1649.628947381581
461,661.000,0.0,1652.204458425402
462,662.000,13.802193400161059,1654.7808335998388
463,663.000,0.0,1657.3580635595617
464,664.000,0.672668055527538,1659.9361389444725
465,665.000,3.4331136202256403,1662.5150503797743
466,666.000,3.090401523961418,1665.0947884760385
467,667.000,2.977429170725145,1667.6753438292749
468,668.000,5.936903979000135,1670.2567070209998
469,669.000,0.0,1672.838868618303
470,670.000,4.491941826080165,1675.4218191739199
471,671.000,0.0,1678.0055492262957
472,672.000,5.007581700342598,1680.5900492996575
473,673.000,5.587869095919814,1683.1753099040802
474,674.000,0.5717254644425793,1685.7613215355575
475,675.000,0.0,1688.3480746760692
476,676.000,0.0,1690.9355597936483
477,677.000,1.8844116575469343,1693.523767342453
478,678.000,8.029331237167753,1696.1126877628321
479,679.000,0.0,1698.702311481395
480,680.000,0.736023088920092,1701.2926289110799
481,681.000,2.819145548777442,1703.8836304512226
482,682.000,0.0,1706.4753064876252
483,683.000,0.0,1709.0676473926235
484,684.000,3.9651484748426356,1711.6606435251574
485,685.000,10.433022769162562,1714.2542852308375
486,686.000,3.947851157984587,1716.8485628420153
487,687.000,0.0,1719.443466677851
488,688.000,2.519129955618382,1722.0389870443817
489,689.000,3.3462167654095083,1724.6351142345904
490,690.000,0.0,1727.231838528475
491,691.000,0.5535488068844643,1729.8291501931155
492,692.000,4.67324651725562,1732.4270394827445
493,693.000,0.0,1735.025496638814
494,694.000,0.0,1737.6245118900645
495,695.000,0.0,1740.2240754525935
496,696.000,4.284954470075036,1742.824177529925
497,697.000,0.7535046869236339,1745.4248083130763
498,698.000,0.0,1748.0259579806286
499,699.000,0.0,1750.6276166987936
500,700.000,8.156513378516593,1753.2297746214833
501,701.000,0.0,1755.8324218903772
502,702.000,0.0,1758.4355486349937
503,703.000,0.0,1761.039144972755
504,704.000,4.897661990941742,1763.6432010090582
505,705.000,0.0,1766.2477068373432
506,706.000,0.00330246083944985,1768.8526525391605
507,707.000,0.0,1771.458028184241
508,708.000,0.0,1774.0638238305633
509,709.000,0.0,1776.6700295244236
510,710.000,0.0,1779.2766353005027
511,711.000,0.0,1781.8836311819362
512,712.000,1.5655418196190567,1784.4910071803808
513,713.000,0.0,1787.0987532960864
514,714.000,0.6802934820386781,1789.7068595179612
515,715.000,0.0,1792.315315823641
516,716.000,0.8941828204403919,1794.9241121795596
517,717.000,0.0,1797.533238541015
518,718.000,13.080281147759933,1800.14268485224
519,719.000,4.140866953530804,1802.7524410464691
520,720.000,0.4263909539920405,1805.362497046008
521,721.000,0.0,1807.9728427623018
522,722.000,0.0,1810.5834680960031
523,723.000,0.0,1813.1943629370423
524,724.000,3.210701835306736,1815.8055171646934
525,725.000,0.0,1818.4169206476456
526,726.000,0.0,1821.028563244069
527,727.000,0.0,1823.6404348016852
528,728.000,0.0,1826.252525157835
529,729.000,1.6828888604529766,1828.864824139547
530,730.000,5.343941436393607,1831.4773215636064
531,731.000,0.0,1834.0900072366228
532,732.000,0.0,1836.7028709551005
533,733.000,0.0,1839.3159025055043
534,734.000,0.24977033566892715,1841.929091664331
535,735.000,8.594459801824087,1844.542428198176
536,736.000,0.0,1847.1559018638018
537,737.000,0.0,1849.769502408209
538,738.000,0.0,1852.383219568701
539,739.000,8.29239492704437,1854.9970430729556
540,740.000,0.0,1857.6109626390923
541,741.000,0.0,1860.2249679757417
542,742.000,0.0,1862.839048782112
543,743.000,2.6686282519392535,1865.4531947480607
544,744.000,0.0,1868.06739555416
545,745.000,0.0,1870.6816408717675
546,746.000,0.0,1873.295920363094
547,747.000,0.0,1875.910223681272
548,748.000,1.8278335295756278,1878.5245404704244
549,749.000,5.66559163426723,1881.1388603657329
550,750.000,0.0,1883.7531729935065
551,751.000,6.75427802875015,1886.3674679712499
552,752.000,1.6601360922666117,1888.9817349077334
553,753.000,0.8337545969402527,1891.5959634030598
554,754.000,5.53292095126676,1894.2101430487332
555,755.000,1.5007125722718229,1896.8242634277283
556,756.000,0.0,1899.4383141145581
557,757.000,10.591431324656241,1902.0522846753438
558,758.000,2.4270143321191426,1904.6661646678808
559,759.000,0.0,1907.2799436417108
560,760.000,0.0,1909.8936111381877
561,761.000,0.0,1912.5071566905463
562,762.000,0.0,1915.1205698239721
563,763.000,10.467762944331525,1917.7338400556685
564,764.000,0.0,1920.3469568949272
565,765.000,0.0,1922.9599098431945
566,766.000,2.9424256058582614,1925.5726883941418
567,767.000,4.89045696626772,1928.1852820337324
568,768.000,5.557940759708572,1930.7976802402914
569,769.000,4.712354515425886,1933.4098724845742
570,770.000,8.820680770166291,1936.0218482298337
571,771.000,0.0,1938.6335969318911
572,772.000,6.734948960798192,1941.2451080392018
573,773.000,0.0,1943.8563709929263
574,774.000,2.645576773003313,1946.4673752269966
575,775.000,11.681817831812623,1949.0781101681873
576,776.000,5.1942657638176115,1951.6885652361823
577,777.000,2.4760861563574963,1954.2987298436426
578,778.000,6.446193603721895,1956.908593396278
579,779.000,5.8704427070877045,1959.5181452929123
580,780.000,18.3345780744462,1962.1273749255538
581,781.000,5.316054320536978,1964.736271679463
582,782.000,9.071606066778259,1967.3448249332218
583,783.000,20.559278941198272,1969.9530240588017
584,784.000,22.107674578368233,1972.5608584216318
585,785.000,21.209669619331407,1975.1683173806687
586,786.000,38.565266711536424,1977.7753902884635
587,787.000,36.3101005087683,1980.3820664912316
588,788.000,41.99650667107926,1982.9883353289208
589,789.000,43.61140186472039,1985.5941861352796
590,790.000,49.6403457620745,1988.1996082379255
591,791.000,73.64765404158493,1990.804590958415
592,792.000,77.83954938768943,1993.4091236123106
593,793.000,88.9881444907503,1996.0131955092495
594,794.000,84.99730604698607,1998.616795953014
595,795.000,84.97263275840373,2001.2199142415964
596,796.000,91.21566433272801,2003.822539667272
597,797.000,89.0088754833364,2006.4246615166635
598,798.000,74.33633092918717,2009.0262690708128
599,799.000,72.41274839475204,2011.6273516052481
600,800.000,54.06522560994813,2014.2278983900517
601,801.000,45.623007310069625,2016.8278986899304
602,802.000,43.63537423571756,2019.4273417642823
603,803.000,43.67652613273344,2022.0262168672664
604,804.000,36.714228752128975,2024.624513247871
605,805.000,31.09367085001827,2027.222220149982
606,806.000,18.259902187548732,2029.8193268124512
607,807.000,10.612164530833752,2032.4158224691662
608,808.000,25.3111046508825,2035.0116963491173
609,809.000,7.312654323533707,2037.6069376764663
610,810.000,3.4904593293836115,2040.2015356706163
611,811.000,10.114080453721272,2042.7954795462788
612,812.000,9.638067486456293,2045.3887585135435
613,813.000,0.0,2047.9813617779453
614,814.000,0.5267844594654889,2050.5732785405344
615,815.000,0.0,2053.1644979979446
616,816.000,0.0,2055.755009342461
617,817.000,0.0,2058.344801762089
618,818.000,5.994791559377973,2060.933864440622
619,819.000,0.0,2063.522186557713
620,820.000,0.0,2066.109757288939
621,821.000,8.676055194127912,2068.696565805872
622,822.000,9.768934723851999,2071.282601276148
623,823.000,0.1162421364660986,2073.8678528635337
624,824.000,3.2845392720041673,2076.4523097279957
625,825.000,0.0,2079.0359610257706
626,826.000,3.1120020905686943,2081.6187959094314
627,827.000,1.8416564720446331,2084.2008035279555
628,828.000,2.923063973201806,2086.7819730267984
629,829.000,6.88640345204476,2089.3622935479552
630,830.000,0.0,2091.9417542300334
631,831.000,0.0,2094.5203442083216
632,832.000,6.828452385144374,2097.0980526148555
633,833.000,0.0,2099.6748685784887
634,834.000,0.8297347750394692,2102.2507812249605
635,835.000,0.0,2104.8257796769644
636,836.000,0.0,2107.399853054216
637,837.000,8.307498526477048,2109.972990473523
638,838.000,0.0,2112.545181048853
639,839.000,10.077248108598269,2115.116413891402
640,840.000,0.0,2117.6866781096624
641,841.000,0.0,2120.255962809492
642,842.000,0.0,2122.8242570941843
643,843.000,0.0,2125.3915500645335
644,844.000,0.0,2127.9578308189066
645,845.000,2.835530546690734,2130.5230884533094
646,846.000,0.0,2133.087312061455
647,847.000,0.0,2135.6504907348362
648,848.000,6.218814437211222,2138.2126135627886
649,849.000,1.533064367436964,2140.773669632563
650,850.000,8.147816970607892,2143.333648029392
651,851.000,3.425243163440882,2145.8925378365593
652,852.000,0.0,2148.450328135469
653,853.000,0.0,2151.007008005712
654,854.000,2.4442194748612565,2153.5625665251387
655,855.000,0.0,2156.11699276992
656,856.000,0.0,2158.6702758146257
657,857.000,0.0,2161.2224047322843
658,858.000,1.048905405543337,2163.7733685944568
659,859.000,10.55927252869742,2166.3231564713024
660,860.000,0.0,2168.8717574316506
661,861.000,3.5135594569342175,2171.4191605430656
662,862.000,0.0,2173.965354871917
663,863.000,0.0,2176.5103294834485
664,864.000,1.5339235581550383,2179.054073441845
665,865.000,0.0,2181.596575810304
666,866.000,0.0,2184.1378256510993
667,867.000,0.0,2186.6778120256567
668,868.000,0.0,2189.2165239946144
669,869.000,2.875470382102776,2191.7539506178973
670,870.000,0.0,2194.290080954785
671,871.000,0.0,2196.824904063977
672,872.000,0.0,2199.3584090036647
673,873.000,0.0,2201.8905848315976
674,874.000,5.018978394845817,2204.4214206051543
675,875.000,0.0,2206.950905381408
676,876.000,5.907642782801304,2209.479028217199
677,877.000,1.8408728308013451,2212.0057781691985
678,878.000,0.0,2214.531144293981
679,879.000,6.304582351908721,2217.0551156480915
680,880.000,0.0,2219.577681288113
681,881.000,0.7455097292631763,2222.098830270737
682,882.000,4.068417347169088,2224.618551652831
683,883.000,0.0,2227.1368344915063
684,884.000,0.0,2229.653667844189
685,885.000,0.0,2232.169040768686
686,886.000,0.0,2234.682942323254
687,887.000,0.0,2237.195361566669
688,888.000,1.9304714417048672,2239.706287558295
689,889.000,0.0,2242.215709358152
690,890.000,0.0,2244.723616026982
691,891.000,0.0,2247.2299966263245
692,892.000,0.0,2249.734840218577
693,893.000,0.0,2252.238135867068
694,894.000,1.6031623638737074,2254.739872636126
695,895.000,0.0,2257.2400395911454
696,896.000,0.0,2259.7386257986564
697,897.000,0.0,2262.2356203263944
698,898.000,1.9586937566318738,2264.7310122433682
699,899.000,0.0,2267.2247906199254
700,900.000,0.0,2269.716944527827
701,901.000,0.0,2272.2074630403094
702,902.000,0.0,2274.69633523216
703,903.000,3.592470820223298,2277.183550179777
704,904.000,0.0,2279.6690969612473
705,905.000,6.83870534359221,2282.1529646564077
706,906.000,0.0,2284.6351423469177
707,907.000,0.0,2287.115619116327
708,908.000,13.226196949858604,2289.5943840501413
709,909.000,5.026452764104306,2292.0714262358956
710,910.000,1.5459712367796783,2294.5467347632202
711,911.000,2.763290276091084,2297.020298723909
712,912.000,6.92394078801135,2299.4921072119887
713,913.000,0.0,2301.9621493237864
714,914.000,2.820176841999455,2304.4304141580005
715,915.000,0.0,2306.8968908157653
716,916.000,0.0,2309.361568400725
717,917.000,1.5755429809032648,2311.8244360190965
718,918.000,0.0,2314.285482779743
719,919.000,0.0,2316.7446977942373
720,920.000,0.0,2319.2020701769356
721,921.000,0.6705969549570909,2321.657589045043
722,922.000,0.0,2324.111243518682
723,923.000,0.0,2326.563022720963
724,924.000,0.0,2329.0129157780507
725,925.000,0.9168301807653734,2331.4609118192348
726,926.000,0.0,2333.906999976995
727,927.000,0.0,2336.351169387074
728,928.000,0.0,2338.7934091885436
729,929.000,3.2571014761269907,2341.233708523873
730,930.000,0.0,2343.672056538998
731,931.000,7.401657616610464,2346.1084423833895
732,932.000,10.02373578987681,2348.542855210123
733,933.000,0.0,2350.9752841759446
734,934.000,4.918767558657237,2353.4057184413427
735,935.000,5.780858829386943,2355.834147170613
736,936.000,0.0,2358.260559531932
737,937.000,0.0,2360.6849446974193
738,938.000,0.0,2363.107291843212
739,939.000,6.222332850471048,2365.527590149529
740,940.000,2.301002199258164,2367.9458288007418
741,941.000,6.375762014556585,2370.3619969854435
742,942.000,0.0,2372.776083896515
743,943.000,1.0550852688047598,2375.188078731195
744,944.000,8.412854308850456,2377.5979706911494
745,945.000,0.0,2380.0057489825376
746,946.000,4.813322183916171,2382.411402816084
747,947.000,10.391320592857483,2384.8149214071427
748,948.000,0.0,2387.216293975771
749,949.000,0.0,2389.6155097467918
750,950.000,0.0,2392.012557949869
751,951.000,1.9506891804298903,2394.4074278195703
752,952.000,5.873948404561361,2396.800108595439
753,953.000,0.0,2399.1905895220607
754,954.000,3.846473150865677,2401.5788598491345
755,955.000,4.181528168462592,2403.9649088315373
756,956.000,3.4852132706018892,2406.348725729398
757,957.000,5.56392819184066,2408.7302998081595
758,958.000,0.0,2411.1096203386537
759,959.000,9.646254402834984,2413.486676597165
760,960.000,13.741316134498902,2415.861457865501
761,961.000,2.543698568937998,2418.233953431062
762,962.000,5.1754934130922265,2420.6041525869077
763,963.000,6.264090368174038,2422.972044631826
764,964.000,0.0,2425.337618870404
765,965.000,8.555529386908347,2427.7008646130917
766,966.000,7.355377823723757,2430.061771176276
767,967.000,14.613750117654035,2432.420327882346
768,968.000,5.6448959402391665,2434.776524059761
769,969.000,11.685549956878276,2437.130349043122
770,970.000,8.96815682676197,2439.481792173238
771,971.000,11.315634202805086,2441.8308427971947
772,972.000,20.62122673157637,2444.1774902684238
773,973.000,0.0,2446.521723946771
774,974.000,11.87278580143493,2448.863533198565
775,975.000,19.182166603314727,2451.202907396685
776,976.000,9.965833079367712,2453.5398359206324
777,977.000,9.711366843406267,2455.8743081565935
778,978.000,24.086493502484245,2458.2063134975156
779,979.000,19.291941656832932,2460.5358413431672
780,980.000,21.503364899785538,2462.8628811002145
781,981.000,19.992223817715967,2465.187422182284
782,982.000,22.884181989964873,2467.509454010035
783,983.000,26.055416988775505,2469.8289660112246
784,984.000,31.86083537921968,2472.14594762078
785,985.000,18.298711719135554,2474.4603882808647
786,986.000,36.742877559052886,2476.772277440947
787,987.000,42.820163442130706,2479.0816045578695
788,988.000,48.92289890408256,2481.3883590959176
789,989.000,61.41276247311316,2483.692530526887
790,990.000,75.13967766984706,2485.994108330153
791,991.000,88.11312900725943,2488.2930819927406
792,992.000,97.82065199061117,2490.589441009389
793,993.000,118.23853411737628,2492.8831748826237
794,994.000,149.9502108771744,2495.1742731228255
795,995.000,201.14301675170555,2497.4627252482946
796,996.000,270.9074762146747,2499.748520785325
797,997.000,355.2141847317316,2502.031649268268
798,998.000,492.35669976039617,2504.3121002396038
799,999.000,702.2325497499914,2506.5898632500084
800,1000.000,902.4351691415754,2508.8649278584244
801,1001.000,999.7180143678738,2511.137283632126
802,1002.000,890.1109748532085,2513.4069201467914
803,1003.000,690.0344720134317,2515.673826986568
804,1004.000,500.62593025585556,2517.9379937441445
805,1005.000,349.7440209791853,2520.199410020815
806,1006.000,262.70368457344966,2522.4580654265505
807,1007.000,205.0085694199306,2524.7139495800693
808,1008.000,159.4312818910994,2526.9670521089006
809,1009.000,140.24815935054403,2529.217362649456
810,1010.000,109.23973015290085,2531.464870847099
811,1011.000,95.86445464378903,2533.709566356211
812,1012.000,75.40360015973874,2535.9514388402613
813,1013.000,73.38726602812494,2538.190477971875
814,1014.000,67.96026156709513,2540.426673432905
815,1015.000,57.59150908550828,2542.6600149144915
816,1016.000,54.417805882856555,2544.8904921171434
817,1017.000,59.9268782492054,2547.1180947507946
818,1018.000,54.53918146511887,2549.342812534881
819,1019.000,51.95767980159417,2551.564635198406
820,1020.000,57.577382519992625,2553.7835524800075
821,1021.000,73.30520987197133,2555.9995541280286
822,1022.000,71.25739009941435,2558.212629900586
823,1023.000,82.99715043436163,2560.422769565638
824,1024.000,87.23640109894541,2562.6299629010546
825,1025.000,116.94284830531842,2564.8341996946815
826,1026.000,153.70095125558646,2567.0354697444136
827,1027.000,198.21171214173773,2569.2337628582623
828,1028.000,247.42109714557773,2571.4290688544224
829,1029.000,322.24262843865745,2573.6213775613423
830,1030.000,389.5167081822078,2575.810678817792
831,1031.000,432.85057052706907,2577.996962472931
832,1032.000,391.9324996136206,2580.1802183863792
833,1033.000,326.2910695717187,2582.3604364282814
834,1034.000,246.16116952062066,2584.5376064793795
835,1035.000,183.64396056891974,2586.71171843108
836,1036.000,140.49319681447832,2588.8827621855216
837,1037.000,104.4455053443553,2591.0507276556446
838,1038.000,82.59051023474058,2593.2156047652593
839,1039.000,56.97789055088515,2595.377383449115
840,1040.000,60.32132234703204,2597.536053652968
841,1041.000,53.773468666351164,2599.691605333649
842,1042.000,28.675707540865005,2601.844028459135
843,1043.000,26.610364991385268,2603.9933130086147
844,1044.000,27.97180102744278,2606.139448972557
845,1045.000,29.934165647217924,2608.2824263527823
846,1046.000,25.837153837471305,2610.4222351625285
847,1047.000,28.065728573477827,2612.558865426522
848,1048.000,22.62930881895818,2614.692307181042
849,1049.000,16.850075526007004,2616.822550473993
850,1050.000,12.44469063502629,2618.9495853649737
851,1051.000,26.303911074658117,2621.073401925342
852,1052.000,0.046267761714261724,2623.1939902382856
853,1053.000,10.661139601108516,2625.3113403988914
854,1054.000,15.500718485787274,2627.4254425142126
855,1055.000,4.100593296662737,2629.5362867033373
856,1056.000,4.064832902541184,2631.643863097459
857,1057.000,7.583264160059116,2633.748161839941
858,1058.000,11.21437091360849,2635.8491730863916
859,1059.000,4.198094995275824,2637.946887004724
860,1060.000,12.827846224766745,2640.041293775233
861,1061.000,0.0,2642.132383590658
862,1062.000,12.393239343743971,2644.220146656256
863,1063.000,0.0,2646.3045731898656
864,1064.000,3.0591145780226725,2648.385653421977
865,1065.000,16.616832404195065,2650.463377595805
866,1066.000,4.643204032650829,2652.5377359673494
867,1067.000,10.843856194528598,2654.608718805471
868,1068.000,0.0,2656.676316391956
869,1069.000,2.4973149784150337,2658.740519021585
870,1070.000,0.0,2660.8013170022045
871,1071.000,16.127452345208894,2662.858700654791
872,1072.000,0.0,2664.912660313522
873,1073.000,7.0484006741558005,2666.963186325844
874,1074.000,2.07060394745713,2669.0102690525428
875,1075.000,12.244378132189922,2671.05389886781
876,1076.000,0.0,2673.0940661593113
877,1077.000,4.34550767174278,2675.130761328257
878,1078.000,14.19727321053233,2677.163974789468
879,1079.000,10.563239028553653,2679.1936969714466
880,1080.000,12.643820683555077,2681.219918316445
881,1081.000,0.0,2683.2426292805317
882,1082.000,0.0,2685.2618203336615
883,1083.000,6.0358680402537175,2687.277481959746
884,1084.000,1.0530063432829593,2689.289604656717
885,1085.000,0.0,2691.2981789366013
886,1086.000,0.0,2693.303195325583
887,1087.000,0.0,2695.304644364078
888,1088.000,2.0303753932030304,2697.302516606797
889,1089.000,3.4926753771801486,2699.29680262282
890,1090.000,9.338398004341798,2701.2874929956583
891,1091.000,7.18031867667105,2703.274578323329
892,1092.000,0.0,2705.25804921842
893,1093.000,0.0,2707.2378963081583
894,1094.000,0.0,2709.214110234482
895,1095.000,6.491195345895903,2711.186681654104
896,1096.000,0.0,2713.1556012385863
897,1097.000,3.4853343255972504,2715.1208596744027
898,1098.000,10.708884336990195,2717.0824476630096
899,1099.000,5.167301079081426,2719.0403559209185
900,1100.000,11.955826820243146,2720.994575179757
901,1101.000,0.0,2722.945096186344
902,1102.000,0.0,2724.8919097027547
903,1103.000,5.8968344936088215,2726.835006506391
904,1104.000,0.0,2728.7743773900465
905,1105.000,0.0,2730.710013161982
906,1106.000,3.76731035401599,2732.641904645984
907,1107.000,0.4239163185543475,2734.5700426814456
908,1108.000,3.6023968765766767,2736.494418123423
909,1109.000,5.788191157287201,2738.4150218427126
910,1110.000,10.767308274085735,2740.3318447259144
911,1111.000,6.764900324495557,2742.2448776755045
912,1112.000,7.819184390099508,2744.1541116099006
913,1113.000,0.0,2746.0595374635313
914,1114.000,3.111017813093895,2747.9611461869063
915,1115.000,4.265263253317244,2749.858928746683
916,1116.000,4.125380874264465,2751.7528761257354
917,1117.000,1.501600676775979,2753.642979323224
918,1118.000,0.0,2755.5292293546618
919,1119.000,0.0,2757.411617251986
920,1120.000,3.4906729363756313,2759.2901340636245
921,1121.000,0.7529311454359231,2761.1647708545643
922,1122.000,0.0,2763.03551870642
923,1123.000,0.9351052824949875,2764.902368717505
924,1124.000,2.4522779971030104,2766.765312002897
925,1125.000,6.445604305492452,2768.6243396945074
926,1126.000,1.9901440588487276,2770.4794429411513
927,1127.000,0.0,2772.330612908612
928,1128.000,15.534953220285843,2774.177840779714
929,1129.000,4.20432824560794,2776.021117754392
930,1130.000,0.0,2777.8604350497544
931,1131.000,9.753454099845385,2779.6957839001548
932,1132.000,8.446644442737579,2781.5271555572626
933,1133.000,5.193069709872361,2783.3545412901276
934,1134.000,9.002251614747365,2785.1779323852525
935,1135.000,13.231436853342984,2786.997320146657
936,1136.000,12.747872104050202,2788.8126958959497
937,1137.000,9.78822002760353,2790.6240509723966
938,1138.000,12.71408626701168,2792.431376732988
939,1139.000,16.31603644749248,2794.2346645525076
940,1140.000,12.655697176398007,2796.033905823602
941,1141.000,19.102196043153526,2797.8290919568467
942,1142.000,25.412657619181118,2799.620214380819
943,1143.000,20.14824645783756,2801.4072645421625
944,1144.000,27.77173709434237,2803.190233905658
945,1145.000,26.31585804571114,2804.969113954289
946,1146.000,43.48650881068443,2806.7438961893154
947,1147.000,46.89430886966284,2808.514572130337
948,1148.000,42.85872368463424,2810.281133315366
949,1149.000,54.90927269910799,2812.043571300892
950,1150.000,81.37710933804783,2813.801877661952
951,1151.000,80.85162800779835,2815.5560439922015
952,1152.000,106.87537309602067,2817.3060619039793
953,1153.000,138.47330997162226,2819.0519230283776
954,1154.000,127.05035798469089,2820.793619015309
955,1155.000,144.33073446642084,2822.531141533579
956,1156.000,138.7550967290481,2824.2644822709517
957,1157.000,121.15704406578288,2825.993632934217
958,1158.000,106.64384375073678,2827.718585249263
959,1159.000,89.77873803885996,2829.43933096114
960,1160.000,71.71383016586697,2831.1558618341332
961,1161.000,56.335576348170434,2832.8681696518297
962,1162.000,54.79869378281455,2834.5762462171856
963,1163.000,47.20048964740272,2836.280083352597
964,1164.000,48.06112410003334,2837.9796728999668
965,1165.000,34.53626827922744,2839.6750067207727
966,1166.000,33.40160630386072,2841.3660766961393
967,1167.000,17.315987273096653,2843.052874726903
968,1168.000,23.185826266318145,2844.7353927336817
969,1169.000,26.949868343057915,2846.413622656942
970,1170.000,23.49917754292801,2848.087556457072
971,1171.000,26.24650888555425,2849.7571861144456
972,1172.000,28.684590370507976,2851.422503629492
973,1173.000,28.001747977235027,2853.083501022765
974,1174.000,31.460005664986966,2854.740170335013
975,1175.000,35.57770137275838,2856.3925036272417
976,1176.000,39.429557019208005,2858.040492980792
977,1177.000,48.086799502601025,2859.684130497399
978,1178.000,50.62518370073258,2861.3234082992676
979,1179.000,70.9269854708632,2862.9583185291367
980,1180.000,76.74653264965036,2864.58885335035
981,1181.000,104.02069405307566,2866.215004946924
982,1182.000,115.38183747638277,2867.836765523617
983,1183.000,119.20101469400424,2869.454127305996
984,1184.000,126.36467845949392,2871.067082540506
985,1185.000,101.08576250545866,2872.6756234945415
986,1186.000,73.09823254348976,2874.27974245651
987,1187.000,62.39877726409668,2875.8794317359034
988,1188.000,61.66717333663246,2877.4746836633676
989,1189.000,45.75536840923269,2879.0654905907672
990,1190.000,29.08010710874032,2880.6518448912598
991,1191.000,40.33989704064197,2882.233738959358
992,1192.000,23.814166788997227,2883.811165211003
993,1193.000,16.6675469163697,2885.3841160836305
994,1194.000,11.226446963759827,2886.9525840362403
995,1195.000,28.428243450533955,2888.516561549466
996,1196.000,21.013659874359746,2890.07604112564
997,1197.000,6.5813007111351,2891.631015288865
998,1198.000,21.363688414917306,2893.1814765850827
999,1199.000,14.422082417859656,2894.7274175821403
1000,1200.000,9.41489113013904,2896.268830869861
1001,1201.000,0.0,2897.805709060111
1002,1202.000,16.055530213131078,2899.338044786869
1003,1203.000,6.160330293705101,2900.8658307062947
1004,1204.000,4.539277503201902,2902.389059496798
1005,1205.000,1.7642661408949607,2903.907723859105
1006,1206.000,1.298355483670548,2905.4218165163293
1007,1207.000,5.655830785960461,2906.9313302140395
1008,1208.000,9.120884279672282,2908.436257720328
1009,1209.000,0.0,2909.9365918258786
1010,1210.000,8.032965655962926,2911.432325344037
1011,1211.000,4.024753889123531,2912.9234511108766
1012,1212.000,2.7718020147303832,2914.4099619852695
1013,1213.000,0.0,2915.891850848955
1014,1214.000,7.080726393394343,2917.369110606606
1015,1215.000,0.0,2918.8417341858976
1016,1216.000,0.5224314624201725,2920.30971453758
1017,1217.000,0.0,2921.7730446355426
1018,1218.000,9.735415523116444,2923.2317174768837
1019,1219.000,8.453247918021589,2924.6857260819784
1020,1220.000,0.0,2926.135063494549
1021,1221.000,0.49353421826708654,2927.579722781733
1022,1222.000,9.928360965849606,2929.0196970341503
1023,1223.000,0.0,2930.454979365973
1024,1224.000,0.0,2931.8855629149934
1025,1225.000,2.9388761573068223,2933.311440842693
1026,1226.000,6.524559665689139,2934.7326063343107
1027,1227.000,7.684308401087492,2936.1490525989125
1028,1228.000,8.124054130543755,2937.5607728694563
1029,1229.000,0.7116955971341667,2938.9677604028657
1030,1230.000,6.269310519905048,2940.370008480095
1031,1231.000,0.0,2941.767510406199
1032,1232.000,0.0,2943.1602595104005
1033,1233.000,0.0,2944.5482491461617
1034,1234.000,0.0,2945.931472691248
1035,1235.000,0.0,2947.309923547801
1036,1236.000,0.0,2948.683595142406
1037,1237.000,0.0,2950.0524809261574
1038,1238.000,0.0,2951.416574374731
1039,1239.000,0.0,2952.7758689884527
1040,1240.000,10.306006707637152,2954.130358292363
1041,1241.000,3.5384091637101847,2955.48003583629
1042,1242.000,0.0,2956.824895194915
1043,1243.000,9.052228032156563,2958.1649299678434
1044,1244.000,6.19440322032915,2959.5001337796707
1045,1245.000,0.0,2960.830500280053
1046,1246.000,7.349204856224787,2962.156023143775
1047,1247.000,0.0,2963.4766960708184
1048,1248.000,0.0,2964.792512786431
1049,1249.000,0.0,2966.1034670411927
1050,1250.000,0.0,2967.409552611089
1051,1251.000,0.0,2968.710763297575
1052,1252.000,5.690206072354613,2970.0070929276453
1053,1253.000,2.065638646095522,2971.2985353539043
1054,1254.000,0.0,2972.5850844546317
1055,1255.000,0.0,2973.8667341338537
1056,1256.000,11.4170126785898,2975.1434783214104
1057,1257.000,0.0,2976.4153109730246
1058,1258.000,5.839296929630564,2977.6822260703693
1059,1259.000,2.7608973788615003,2978.9442176211387
1060,1260.000,0.0,2980.201279659113
1061,1261.000,0.0,2981.453406244232
1062,1262.000,0.0,2982.7005914626584
1063,1263.000,0.0,2983.94282942685
1064,1264.000,1.869653724372256,2985.1801142756276
1065,1265.000,0.0,2986.41244017424
1066,1266.000,4.9039036855606355,2987.6398013144394
1067,1267.000,0.0,2988.862191914544
1068,1268.000,10.339709780491376,2990.0796062195086
1069,1269.000,0.3059164990067984,2991.2920385009934
1070,1270.000,0.3565399425669966,2992.499483057433
1071,1271.000,0.0,2993.7019342141034
1072,1272.000,0.0,2994.899386323192
1073,1273.000,0.0,2996.091833763864
1074,1274.000,0.0,2997.279270942336
1075,1275.000,0.0,2998.461692291937
1076,1276.000,4.528741726815497,2999.6390922731844
1077,1277.000,0.0,3000.8114653738467
1078,1278.000,1.6438298909838522,3001.978806109016
1079,1279.000,0.0,3003.1411090211745
1080,1280.000,2.115023319735883,3004.298368680264
1081,1281.000,0.0,3005.4505796837534
1082,1282.000,0.0,3006.5977366567095
1083,1283.000,3.126554748138915,3007.739834251861
1084,1284.000,2.95329785032618,3008.8768671496737
1085,1285.000,0.4823119415873407,3010.0088300584125
1086,1286.000,3.55295828578528,3011.135717714215
1087,1287.000,0.0,3012.257524881156
1088,1288.000,0.0,3013.374246351318
1089,1289.000,4.056525055138536,3014.4858769448615
1090,1290.000,0.0,3015.592411510091
1091,1291.000,0.0,3016.693844923523
1092,1292.000,0.0,3017.790172089958
1093,1293.000,0.0,3018.8813879425447
1094,1294.000,0.0,3019.967487442851
1095,1295.000,0.0,3021.0484655809346
1096,1296.000,0.0,3022.1243173754074
1097,1297.000,0.0,3023.195037873505
1098,1298.000,1.2352998488413505,3024.2606221511587
1099,1299.000,3.3255796869407277,3025.321065313059
1100,1300.000,0.0,3026.3763624927287
1101,1301.000,0.0,3027.4265088525876
1102,1302.000,1.2644914159764085,3028.4714995840236
1103,1303.000,4.600924092539117,3029.511329907461
1104,1304.000,0.0,3030.5459950724285
1105,1305.000,4.864633642373519,3031.5754903576267
1106,1306.000,1.3490619290014365,3032.5998110709984
1107,1307.000,8.432393450203108,3033.618952549797
1108,1308.000,0.0,3034.6329101606534
1109,1309.000,0.0,3035.641679299648
1110,1310.000,0.0,3036.6452553923737
1111,1311.000,0.9108321059902664,3037.64363389401
1112,1312.000,0.0,3038.636810289387
1113,1313.000,0.0,3039.6247800930605
1114,1314.000,0.0,3040.607538849372
1115,1315.000,1.0609538674766554,3041.5850821325234
1116,1316.000,0.0,3042.557405546643
1117,1317.000,0.0,3043.5245047258545
1118,1318.000,17.58768966565185,3044.486375334348
1119,1319.000,9.055163933556742,3045.443013066443
1120,1320.000,5.070670353336936,3046.394413646663
1121,1321.000,0.0,3047.340572829798
1122,1322.000,0.0,3048.28148640098
1123,1323.000,5.23973982425332,3049.2171501757466
1124,1324.000,0.0,3050.147560000111
1125,1325.000,0.0,3051.072711750628
1126,1326.000,0.0,3051.9926013344684
1127,1327.000,0.0,3052.9072246894825
1128,1328.000,0.0,3053.816577784271
1129,1329.000,0.0,3054.7206566182513
1130,1330.000,0.0,3055.619457221729
1131,1331.000,0.0,3056.5129756559645
1132,1332.000,0.4304769867585492,3057.4012080132416
1133,1333.000,10.723615583061928,3058.2841504169382
1134,1334.000,2.3035069784095867,3059.1617990215905
1135,1335.000,0.320198987033109,3060.034150012967
1136,1336.000,7.123426391868179,3060.9011996081317
1137,1337.000,0.4682219444821385,3061.762944055518
1138,1338.000,12.815136365008584,3062.619379634991
1139,1339.000,0.0,3063.4705026579236
1140,1340.000,0.0,3064.316309467257
1141,1341.000,8.844074562424339,3065.156796437576
1142,1342.000,0.0,3065.991959975173
1143,1343.000,0.0,3066.8217965181198
1144,1344.000,0.0,3067.646302536334
1145,1345.000,0.0,3068.465474531647
1146,1346.000,0.0,3069.2793090378764
1147,1347.000,3.9484363791098076,3070.08780262089
1148,1348.000,0.0,3070.890951878677
1149,1349.000,0.0,3071.688753441415
1150,1350.000,0.0,3072.48120397154
1151,1351.000,0.0,3073.2683001638147
1152,1352.000,6.0973062546045185,3074.0500387453953
1153,1353.000,5.547863524096101,3074.826416475904
1154,1354.000,0.0,3075.597430147491
1155,1355.000,1.0137124150887757,3076.363076584911
1156,1356.000,0.0,3077.1233526455862
1157,1357.000,0.0,3077.8782552196762
1158,1358.000,1.7976927698532563,3078.627781230147
1159,1359.000,0.0,3079.3719276328375
1160,1360.000,7.592496583465618,3080.1106914165343
1161,1361.000,0.0,3080.8440696030307
1162,1362.000,0.0,3081.572059247205
1163,1363.000,0.0,3082.294657437081
1164,1364.000,0.0,3083.011861293901
1165,1365.000,0.0,3083.723667972194
1166,1366.000,6.987256340156364,3084.4300746598437
1167,1367.000,0.0,3085.1310785781557
1168,1368.000,0.0,3085.8266769819284
1169,1369.000,1.0049728404806046,3086.5168671595193
1170,1370.000,0.0,3087.201646432916
1171,1371.000,4.262150842198025,3087.881012157802
1172,1372.000,3.17177227637103,3088.554961723629
1173,1373.000,1.1203094463194248,3089.2234925536804
1174,1374.000,10.209767894856668,3089.8866021051435
1175,1375.000,0.4291331308218105,3090.5442878691783
1176,1376.000,0.0,3091.196547370984
1177,1377.000,0.0,3091.843378169868
1178,1378.000,0.0,3092.4847778593157
1179,1379.000,0.0,3093.1207440670573
1180,1380.000,0.0,3093.7512744551386
1181,1381.000,0.814340280012857,3094.3763667199873
1182,1382.000,0.0,3094.9960185924824
1183,1383.000,7.417626161975932,3095.610227838024
1184,1384.000,2.476159743401695,3096.218992256598
1185,1385.000,0.0,3096.8223096828506
1186,1386.000,0.0,3097.4201779861523
1187,1387.000,0.0,3098.012595070667
1188,1388.000,0.0,3098.599558875422
1189,1389.000,3.6416196256241165,3099.1810673743757
1190,1390.000,2.326491423513289,3099.757118576487
1191,1391.000,9.31562647421788,3100.327710525782
1192,1392.000,1.9570386985765253,3100.8928413014237
1193,1393.000,1.9821619822191678,3101.452509017781
1194,1394.000,0.0,3102.0067118244974
1195,1395.000,0.0,3102.5554479065586
1196,1396.000,0.0,3103.0987154843606
1197,1397.000,6.165520186220874,3103.636512813779
1198,1398.000,2.936482813760449,3104.1688381862396
1199,1399.000,0.0,3104.695689928782
1200,1400.000,0.0,3105.2170664041346
1201,1401.000,0.0,3105.7329660107757
1202,1402.000,0.7075088169899573,3106.24338718301
1203,1403.000,0.0,3106.7483283910283
1204,1404.000,9.994234859013432,3107.2477881409864
1205,1405.000,0.0,3107.7417649750646
1206,1406.000,3.560523528459271,3108.230257471541
1207,1407.000,8.94158875514313,3108.713264244857
1208,1408.000,0.0,3109.1907839456912
1209,1409.000,0.0,3109.662815261022
1210,1410.000,6.321275085801517,3110.1293569141985
1211,1411.000,4.814729334989806,3110.5904076650104
1212,1412.000,1.7427686902465211,3111.0459663097536
1213,1413.000,16.602483318697523,3111.4960316813026
1214,1414.000,5.659765350823818,3111.940602649176
1215,1415.000,11.414696880394786,3112.379678119605
1216,1416.000,0.0,3112.813257035605
1217,1417.000,0.0,3113.241338377039
1218,1418.000,2.0665608393087496,3113.663921160691
1219,1419.000,10.190479559665164,3114.0810044403347
1220,1420.000,7.991982693203681,3114.4925873067964
1221,1421.000,0.0,3114.8986688880295
1222,1422.000,4.738115650819509,3115.2992483491803
1223,1423.000,7.332648107342266,3115.6943248926577
1224,1424.000,9.83666624180023,3116.0838977582
1225,1425.000,1.5306537770552495,3116.4679662229446
1226,1426.000,20.711370398502822,3116.846529601497
1227,1427.000,15.072301754000819,3117.2195872459993
1228,1428.000,18.439127453802485,3117.5871385461974
1229,1429.000,16.424486070488,3117.949182929512
1230,1430.000,21.32830213889747,3118.3057198611027
1231,1431.000,23.07326615605689,3118.656748843943
1232,1432.000,24.298238581116948,3119.002269418883
1233,1433.000,27.520941835279245,3119.3422811647206
1234,1434.000,28.522299301730072,3119.67678369827
1235,1435.000,41.83470832556986,3120.0057766744303
1236,1436.000,32.02596721374721,3120.329259786253
1237,1437.000,42.601673234988084,3120.6472327650117
1238,1438.000,57.92635661972963,3120.95969538027
1239,1439.000,58.89273056004822,3121.2666474399516
1240,1440.000,56.27885620959478,3121.568088790405
1241,1441.000,74.68303568352394,3121.864019316476
1242,1442.000,88.79633705842434,3122.154438941576
1243,1443.000,105.65825237225317,3122.439347627747
1244,1444.000,116.97071862426583,3122.718745375734
1245,1445.000,147.5750527749483,3122.9926322250517
1246,1446.000,155.32991674594723,3123.2610082540527
1247,1447.000,184.89674542000103,3123.523873579999
1248,1448.000,191.69892964087376,3123.781228359126
1249,1449.000,206.35909221328575,3124.0330727867145
1250,1450.000,220.90831290284268,3124.279407097157
1251,1451.000,204.54533943597107,3124.520231564029
1252,1452.000,184.58126949984444,3124.7555465001556
1253,1453.000,176.65800874232036,3124.9853522576796
1254,1454.000,167.24827877186908,3125.2096492281307
1255,1455.000,139.62119915750645,3125.4284378424936
1256,1456.000,111.0692624287185,3125.6417185712817
1257,1457.000,100.21902807540573,3125.849491924594
1258,1458.000,88.48049254780426,3126.051758452196
1259,1459.000,76.17152425641962,3126.2485187435805
1260,1460.000,74.73516857196046,3126.4397734280396
1261,1461.000,56.14849582526767,3126.6255231747323
1262,1462.000,57.98190830724616,3126.8057686927536
1263,1463.000,45.366158268799154,3126.980510731201
1264,1464.000,38.39837492075549,3127.1497500792443
1265,1465.000,46.73548943380365,3127.3134875661963
1266,1466.000,27.837813938421732,3127.4717240615782
1267,1467.000,30.187419524809684,3127.6244604751905
1268,1468.000,25.9641292428214,3127.7716977571786
1269,1469.000,21.983502101896192,3127.913436898104
1270,1470.000,22.04620107098708,3128.0496789290128
1271,1471.000,22.638295078497777,3128.1804249215024
1272,1472.000,14.544423012206607,3128.305675987793
1273,1473.000,20.15917371920841,3128.4254332807914
1274,1474.000,11.093712005836096,3128.539697994164
1275,1475.000,15.91535963759543,3128.6484713624045
1276,1476.000,19.782874339099635,3128.7517546609006
1277,1477.000,8.71602479399462,3128.8495492060056
1278,1478.000,16.39603564489971,3128.9418563551003
1279,1479.000,5.251953493328074,3129.028677506672
1280,1480.000,4.897393899625968,3129.110014100374
1281,1481.000,0.0,3129.1858676170987
1282,1482.000,9.501159420954991,3129.256239579045
1283,1483.000,5.143659450214727,3129.321131549785
1284,1484.000,4.364147865662289,3129.380545134338
1285,1485.000,8.541388020769773,3129.4344819792304
1286,1486.000,0.0,3129.4829437725743
1287,1487.000,0.0,3129.525932244128
1288,1488.000,0.0,3129.5634491653673
1289,1489.000,0.3959926504435316,3129.5954963495565
1290,1490.000,0.0,3129.6220756518123
1291,1491.000,3.0466120308219615,3129.643188969178
1292,1492.000,6.139379759315943,3129.658838240684
1293,1493.000,0.0,3129.6690254474265
1294,1494.000,0.0,3129.673752612627
1295,1495.000,6.318388198293178,3129.673021801707
1296,1496.000,0.0,3129.6668351223516
1297,1497.000,0.0,3129.6551947245825
1298,1498.000,0.0,3129.638102800825
1299,1499.000,0.0,3129.6155615859743
1300,1500.000,2.809771642531814,3129.587573357468
1301,1501.000,11.924108564648577,3129.554140435351
1302,1502.000,0.0,3129.515265182347
1303,1503.000,0.0,3129.470950003924
1304,1504.000,0.0,3129.421197348367
1305,1505.000,0.0,3129.366009706842
1306,1506.000,0.24857238653385139,3129.305389613466
1307,1507.000,0.8174783546196522,3129.2393396453804
1308,1508.000,1.0703955771905385,3129.1678624228093
1309,1509.000,0.0,3129.0909606091404
1310,1510.000,3.044646089017533,3129.0086369109827
1311,1511.000,8.212125921758798,3128.9208940782414
1312,1512.000,0.0,3128.8277349041837
1313,1513.000,1.2353047744909418,3128.729162225509
1314,1514.000,3.411175077581902,3128.625178922418
1315,1515.000,0.0,3128.5157879186777
1316,1516.000,5.092771818306119,3128.4009921816937
1317,1517.000,0.0,3128.280794722576
1318,1518.000,3.5975914037890107,3128.155198596211
1319,1519.000,0.0,3128.0242069013275
1320,1520.000,0.0,3127.8878227805626
1321,1521.000,1.2257855794632633,3127.7460494205366
1322,1522.000,0.0,3127.598890051918
1323,1523.000,0.0,3127.44634794949
1324,1524.000,2.1995855677751024,3127.2884264322247
1325,1525.000,3.7848191366547326,3127.1251288633453
1326,1526.000,0.0,3126.9564586504
1327,1527.000,0.0,3126.7824192453254
1328,1528.000,13.190270855478047,3126.603014144522
1329,1529.000,0.0,3126.4182468889153
1330,1530.000,8.435003935972418,3126.2281210640276
1331,1531.000,0.0,3126.0326403000486
1332,1532.000,1.4083177280995187,3125.8318082719006
1333,1533.000,1.6652723006905035,3125.6256286993093
1334,1534.000,0.0,3125.4141053468707
1335,1535.000,0.0,3125.1972420241223
1336,1536.000,0.0,3124.9750425856046
1337,1537.000,0.18759806905882215,3124.747510930941
1338,1538.000,3.8928439951014298,3124.5146510048985
1339,1539.000,1.429313202544563,3124.276466797455
1340,1540.000,0.0,3124.032962343874
1341,1541.000,0.0,3123.784141724768
1342,1542.000,0.0,3123.5300090661694
1343,1543.000,1.4157474603998708,3123.2705685396
1344,1544.000,0.0,3123.005824362137
1345,1545.000,0.0,3122.735780796483
1346,1546.000,5.214747848967363,3122.4604421510326
1347,1547.000,1.9784742200531582,3122.179812779947
1348,1548.000,4.394869916787684,3121.8938970832123
1349,1549.000,9.515242493280311,3121.6026995067195
1350,1550.000,1.6066004576764499,3121.3062245423234
1351,1551.000,4.212315272083288,3121.004476727917
1352,1552.000,0.0,3120.6974606474987
1353,1553.000,1.2489070687606727,3120.385180931239
1354,1554.000,0.0,3120.067642255553
1355,1555.000,0.0,3119.744849343164
1356,1556.000,9.87709603682697,3119.416806963173
1357,1557.000,0.0,3119.0835199311337
1358,1558.000,4.941416890887467,3118.7449931091123
1359,1559.000,13.124788594238453,3118.4012314057613
1360,1560.000,11.687223223615092,3118.052239776385
1361,1561.000,7.300637776986605,3117.6980232230135
1362,1562.000,7.943446205537839,3117.338586794462
1363,1563.000,12.809331413590826,3116.973935586409
1364,1564.000,9.440691258542302,3116.6040747414577
1365,1565.000,21.811433550790298,3116.2290094492096
1366,1566.000,21.147121053668798,3115.8487449463314
1367,1567.000,10.779797483381117,3115.463286516619
1368,1568.000,20.47169650892556,3115.0726394910744
1369,1569.000,23.606037752030716,3114.6768092479692
1370,1570.000,37.95270578708869,3114.275801212911
1371,1571.000,37.471166141081994,3113.869620858918
1372,1572.000,37.061303293516175,3113.458273706484
1373,1573.000,39.02589567635505,3113.041765323645
1374,1574.000,54.77827367394639,3112.620101326054
1375,1575.000,58.75790062295982,3112.19328737704
1376,1576.000,78.82324681231148,3111.7613291876887
1377,1577.000,86.81935748309888,3111.3242325169012
1378,1578.000,119.56451282853595,3110.882003171464
1379,1579.000,139.495748993877,3110.434647006123
1380,1580.000,171.3017150763526,3109.9821699236472
1381,1581.000,187.35176912510224,3109.5245778748977
1382,1582.000,209.99526014110143,3109.0618768588984
1383,1583.000,213.224541077097,3108.594072922903
1384,1584.000,211.80193683753805,3108.121172162462
1385,1585.000,195.52127727850393,3107.6431807214963
1386,1586.000,173.30409620763976,3107.16010479236
1387,1587.000,153.51890938408906,3106.671950615911
1388,1588.000,138.22835351841604,3106.178724481584
1389,1589.000,137.29263727254965,3105.6804327274504
1390,1590.000,117.54790125970703,3105.177081740293
1391,1591.000,109.65634804432511,3104.668677955675
1392,1592.000,118.4982921419969,3104.155227858003
1393,1593.000,144.643843019398,3103.636737980602
1394,1594.000,148.099957094219,3103.113214905781
1395,1595.000,174.6705317351002,3102.5846652648997
1396,1596.000,206.10453426155755,3102.0510957384427
1397,1597.000,266.3382809439213,3101.5125130560787
1398,1598.000,308.7544430032599,3100.96892399674
1399,1599.000,394.3441936113172,3100.420335388683
1400,1600.000,507.74949989044035,3099.8667541095597
1401,1601.000,585.6340329135114,3099.3081870864885
1402,1602.000,624.0531877038834,3098.7446412961167
1403,1603.000,585.8421622353067,3098.1761237646933
1404,1604.000,499.9405434318601,3097.60264156814
1405,1605.000,406.12226416788644,3097.0242018321137
1406,1606.000,318.6730842679199,3096.44081173208
1407,1607.000,241.1640445066223,3095.8524784933775
1408,1608.000,191.92461960871105,3095.259209391289
1409,1609.000,151.48347324888846,3094.6610117511113
1410,1610.000,127.34058305177587,3094.057892948224
1411,1611.000,111.34822059185126,3093.4498604081487
1412,1612.000,79.75323339336637,3092.8369216066335
1413,1613.000,72.5958829302931,3092.2190840697067
1414,1614.000,64.46577062624328,3091.5963553737565
1415,1615.000,48.6193418544085,3090.9687431455914
1416,1616.000,43.008127937486734,3090.3362550625134
1417,1617.000,49.069957147615696,3089.6988988523844
1418,1618.000,38.695511706300294,3089.0566822937
1419,1619.000,38.826857784354615,3088.4096132156455
1420,1620.000,20.976348501819757,3087.75769949818
1421,1621.000,27.713317927906246,3087.100949072094
1422,1622.000,26.176643080917984,3086.439369919082
1423,1623.000,21.191871928187993,3085.772970071812
1424,1624.000,22.261022386009245,3085.1017576139907
1425,1625.000,13.887724319565223,3084.425740680435
1426,1626.000,14.441499542861038,3083.744927457139
1427,1627.000,8.052855818655644,3083.059326181344
1428,1628.000,9.966970858394689,3082.3689451416053
1429,1629.000,12.884672322138613,3081.6737926778615
1430,1630.000,8.273161818495737,3080.973877181504
1431,1631.000,10.309757904557046,3080.269207095443
1432,1632.000,4.633626085819742,3079.55979091418
1433,1633.000,10.614490816127272,3078.845637183873
1434,1634.000,9.897927497594537,3078.1267545024057
1435,1635.000,0.0,3077.4031515194556
1436,1636.000,4.9837010634337275,3076.6748369365664
1437,1637.000,12.916718492789187,3075.9418195072108
1438,1638.000,4.963357963135877,3075.204108036864
1439,1639.000,0.0,3074.4617113830677
1440,1640.000,4.638595544497093,3073.714638455503
1441,1641.000,6.1141607839431344,3072.962898216057
1442,1642.000,11.85353032111152,3072.2064996788886
1443,1643.000,2.940799089495613,3071.4454519105043
1444,1644.000,0.0,3070.6797640298164
1445,1645.000,4.990581791776549,3069.9094452082236
1446,1646.000,2.1373063303299205,3069.13450466967
1447,1647.000,3.4543243092834928,3068.3549516907165
1448,1648.000,4.493036399388529,3067.5707956006113
1449,1649.000,1.403740218643179,3066.782045781357
1450,1650.000,4.067306332223325,3065.988711667777
1451,1651.000,8.078566252410383,3065.1908027475897
1452,1652.000,0.0,3064.3883285614706
1453,1653.000,0.12992729687539395,3063.5812987031245
1454,1654.000,5.251691180645139,3062.7697228193547
1455,1655.000,0.0,3061.953610610128
1456,1656.000,3.110213171351461,3061.1329718286484
1457,1657.000,5.548964718580919,3060.307816281419
1458,1658.000,0.0,3059.478153828317
1459,1659.000,7.687525617342089,3058.643994382658
1460,1660.000,0.0,3057.8053479112677
1461,1661.000,0.8114225654521761,3056.962224434548
1462,1662.000,2.4344629734550836,3056.114634026545
1463,1663.000,4.704271184979916,3055.26258681502
1464,1664.000,1.4476020184833942,3054.4060929815164
1465,1665.000,0.0,3053.5451627614316
1466,1666.000,0.7070935559213467,3052.6798064440786
1467,1667.000,0.0,3051.8100343727624
1468,1668.000,0.0,3050.9358569448414
1469,1669.000,0.0,3050.0572846118007
1470,1670.000,0.0,3049.174327879322
1471,1671.000,0.0,3048.286997307345
1472,1672.000,0.0,3047.3953035101426
1473,1673.000,5.862973843610689,3046.4992571563894
1474,1674.000,0.0,3045.598868969225
1475,1675.000,0.0,3044.694149726325
1476,1676.000,0.0,3043.7851102599766
1477,1677.000,5.98734754286852,3042.8717614571315
1478,1678.000,0.6401657405090191,3041.954114259491
1479,1679.000,0.0,3041.032179663565
1480,1680.000,6.49585427925922,3040.1059687207407
1481,1681.000,3.4733704626423787,3039.1754925373575
1482,1682.000,0.0,3038.240762274768
1483,1683.000,0.0,3037.3017891494114
1484,1684.000,0.0,3036.3585844328804
1485,1685.000,0.0,3035.41115945199
1486,1686.000,0.0,3034.4595255888444
1487,1687.000,5.222620719091083,3033.503694280909
1488,1688.000,0.0,3032.5436770210777
1489,1689.000,0.0,3031.579485357737
1490,1690.000,5.688368105156314,3030.611130894844
1491,1691.000,0.0,3029.638625291983
1492,1692.000,0.0,3028.661980264447
1493,1693.000,1.684776416706427,3027.6812075832936
1494,1694.000,0.0,3026.696319075423
1495,1695.000,0.0,3025.7073266236425
1496,1696.000,0.0,3024.7142421667363
1497,1697.000,7.61282230047027,3023.71707769953
1498,1698.000,3.2116817270311913,3022.7158452729686
1499,1699.000,1.6821290058283012,3021.710556994172
1500,1700.000,0.0,3020.7012250265166
1501,1701.000,0.0,3019.687861589695
1502,1702.000,0.0,3018.6704789597866
1503,1703.000,0.0,3017.6490894693293
1504,1704.000,4.068749492617826,3016.623705507382
1505,1705.000,0.0,3015.5943395196036
1506,1706.000,0.0,3014.5610040083056
1507,1707.000,0.0,3013.523711532539
1508,1708.000,0.3742342918540089,3012.482474708146
1509,1709.000,4.043084792159789,3011.4373062078403
1510,1710.000,9.742662238727462,3010.3882187612726
1511,1711.000,0.0,3009.335225155094
1512,1712.000,0.0,3008.278338233032
1513,1713.000,0.0,3007.2175708959544
1514,1714.000,0.0,3006.152936101939
1515,1715.000,0.0,3005.084446866344
1516,1716.000,7.09949873812775,3004.012116261872
1517,1717.000,11.83791358135386,3002.935957418646
1518,1718.000,0.0,3001.8559835242672
1519,1719.000,5.823341176104805,3000.7722078238953
1520,1720.000,5.89479437969203,2999.684643620308
1521,1721.000,2.053964726025697,2998.5933042739744
1522,1722.000,0.0,2997.498203203121
1523,1723.000,9.469724116194357,2996.399353883806
1524,1724.000,6.3657761500244305,2995.2967698499756
1525,1725.000,0.0,2994.190464693546
1526,1726.000,0.0,2993.0804520644656
1527,1727.000,1.9618693292190983,2991.9667456707807
1528,1728.000,1.9155257212892138,2990.849359278711
1529,1729.000,0.0,2989.728306712715
1530,1730.000,9.389054144445254,2988.6036018555546
1531,1731.000,4.347848351630091,2987.47525864837
1532,1732.000,0.0,2986.3432910907436
1533,1733.000,0.0,2985.2077132407735
1534,1734.000,0.0,2984.0685392151377
1535,1735.000,0.0,2982.925783189159
1536,1736.000,12.83718160311173,2981.7794593968883
1537,1737.000,11.036106868846218,2980.6295821311537
1538,1738.000,0.0,2979.4761657436447
1539,1739.000,2.3822223550268973,2978.319224644973
1540,1740.000,10.839565695258443,2977.1587733047418
1541,1741.000,0.0,2975.994826251616
1542,1742.000,5.822952926608195,2974.8273980733916
1543,1743.000,1.931261582938987,2973.6565034170612
1544,1744.000,0.0,2972.4821569888836
1545,1745.000,7.059120445545432,2971.3043735544547
1546,1746.000,10.871356061228653,2970.1231679387715
1547,1747.000,0.0,2968.938555026305
1548,1748.000,0.0,2967.750549761069
1549,1749.000,1.6814148533171647,2966.5591671466827
1550,1750.000,0.0,2965.3644222464454
1551,1751.000,14.784629816595043,2964.166330183405
1552,1752.000,4.473732859578831,2962.964906140421
1553,1753.000,0.0,2961.760165360237
1554,1754.000,0.0,2960.5521231455505
1555,1755.000,0.8365461409212003,2959.340794859079
1556,1756.000,0.0,2958.126195923631
1557,1757.000,2.2622891778314624,2956.9083418221685
1558,1758.000,11.769705902118403,2955.687248097882
1559,1759.000,0.0,2954.4629303542624
1560,1760.000,0.0,2953.235404255153
1561,1761.000,0.0,2952.0046855248374
1562,1762.000,2.014218051898297,2950.7707899481015
1563,1763.000,4.504276629708784,2949.5337333702914
1564,1764.000,0.4964373026014073,2948.2935316973985
1565,1765.000,11.565144103881266,2947.050200896119
1566,1766.000,10.055827006079653,2945.80375699392
1567,1767.000,5.263025920881773,2944.5542160791183
1568,1768.000,8.166476699063423,2943.3015943009364
1569,1769.000,7.09227813041889,2942.0459078695812
1570,1770.000,0.0,2940.787173056308
1571,1771.000,4.34097780651291,2939.525406193487
1572,1772.000,5.209878325319551,2938.2606236746806
1573,1773.000,18.5750570453024,2936.9928419546977
1574,1774.000,0.0,2935.722077549676
1575,1775.000,4.364073962854491,2934.4483470371456
1576,1776.000,4.283362943908287,2933.171667056092
1577,1777.000,6.269649692966141,2931.892054307034
1578,1778.000,0.0,2930.6095255520845
1579,1779.000,13.185881384971708,2929.324097615028
1580,1780.000,0.0,2928.0357873813755
1581,1781.000,1.2084192015518056,2926.744611798448
1582,1782.000,11.392737124567702,2925.450587875432
1583,1783.000,0.0,2924.1537326834605
1584,1784.000,0.0,2922.8540633556718
1585,1785.000,0.0,2921.5515970872807
1586,1786.000,0.0,2920.2463511356495
1587,1787.000,10.994440179646972,2918.9383428203532
1588,1788.000,10.112686476747513,2917.6275895232525
1589,1789.000,3.117801311443145,2916.3141086885566
1590,1790.000,10.022199177101811,2914.997917822898
1591,1791.000,10.891411504606822,2913.6790344953934
1592,1792.000,13.293451662278585,2912.3574763377214
1593,1793.000,0.0,2911.03326104418
1594,1794.000,1.8384436282321985,2909.706406371768
1595,1795.000,10.89553685975352,2908.3769301402463
1596,1796.000,3.9126017677990603,2907.044850232201
1597,1797.000,0.0,2905.7101845931247
1598,1798.000,6.816337768524136,2904.372951231476
1599,1799.000,5.126335781252692,2903.0331682187475
1600,1800.000,8.834746310456012,2901.690853689544
1601,1801.000,11.394418158363806,2900.346025841636
1602,1802.000,4.524826063955516,2898.9987029360445
1603,1803.000,7.608237702900169,2897.6489032971
1604,1804.000,2.7677906874932887,2896.296645312507
1605,1805.000,1.590785566575505,2894.9419474334245
1606,1806.000,0.0,2893.584828174526
1607,1807.000,0.0,2892.2253061140696
1608,1808.000,2.941071106030904,2890.863399893969
1609,1809.000,0.0,2889.4991282198603
1610,1810.000,6.318859138832522,2888.1325098611674
1611,1811.000,5.241487348820556,2886.7635636511795
1612,1812.000,6.684223512889275,2885.3923084871108
1613,1813.000,5.635423669831198,2884.018763330169
1614,1814.000,17.35951279436722,2882.642947205633
1615,1815.000,18.955300797088512,2881.2648792029113
1616,1816.000,9.738469524383618,2879.8845784756163
1617,1817.000,0.0,2878.502064241632
1618,1818.000,9.079325216820507,2877.1173557831794
1619,1819.000,9.43025055311,2875.73047244689
1620,1820.000,4.26835835612701,2874.341433643873
1621,1821.000,4.511816150224149,2872.9502588497758
1622,1822.000,7.216325395131662,2871.5569676048685
1623,1823.000,0.0,2870.1615795140956
1624,1824.000,12.27944475284312,2868.764114247157
1625,1825.000,0.0,2867.364591538573
1626,1826.000,7.478754812253555,2865.9630311877463
1627,1827.000,14.367377940959614,2864.5594530590406
1628,1828.000,3.785735918158025,2863.153877081842
1629,1829.000,2.052264749367623,2861.7463232506325
1630,1830.000,7.688616374945468,2860.3368116250545
1631,1831.000,12.782667670020146,2858.9253623299796
1632,1832.000,0.0,2857.511995555583
1633,1833.000,4.408121442596894,2856.096731557403
1634,1834.000,8.499610343584209,2854.6795906564157
1635,1835.000,9.655842760897485,2853.2605932391025
1636,1836.000,0.0,2851.83975975752
1637,1837.000,6.5840392706395505,2850.4171107293605
1638,1838.000,2.2775252619671846,2848.9926667380328
1639,1839.000,0.33434556727479503,2847.5664484327253
1640,1840.000,7.073760471533205,2846.138476528467
1641,1841.000,9.98346519379038,2844.70877180621
1642,1842.000,10.876081887111468,2843.2773551128885
1643,1843.000,13.406172638513908,2841.844247361486
1644,1844.000,5.202343468881736,2840.4094695311182
1645,1845.000,16.821675332920677,2838.9730426670794
1646,1846.000,7.467486119071964,2837.534987880928
1647,1847.000,5.0139386494483915,2836.0953263505517
1648,1848.000,3.06659767976862,2834.654079320231
1649,1849.000,12.869386899289111,2833.211268100711
1650,1850.000,2.013159930726033,2831.7669140692738
1651,1851.000,12.117164330203195,2830.321038669797
1652,1852.000,10.353886587167835,2828.8736634128322
1653,1853.000,0.0,2827.4248098756702
1654,1854.000,20.636100297594567,2825.9744997024054
1655,1855.000,0.0,2824.5227546040155
1656,1856.000,15.015218641590764,2823.0695963584094
1657,1857.000,11.679878189476312,2821.615046810524
1658,1858.000,0.0,2820.1591278723663
1659,1859.000,0.240045476899013,2818.701861523101
1660,1860.000,0.0,2817.243269809106
1661,1861.000,4.4360621559512765,2815.783374844049
1662,1862.000,15.056028191050245,2814.32219880895
1663,1863.000,12.774394047740316,2812.8597639522595
1664,1864.000,9.250108410083612,2811.3960925899164
1665,1865.000,16.50644989457942,2809.9312071054205
1666,1866.000,7.571130050098418,2808.4651299499014
1667,1867.000,8.619099357807045,2806.997883642193
1668,1868.000,5.08181423111364,2805.5294907688863
1669,1869.000,10.331030015584474,2804.0599739844156
1670,1870.000,14.21527498888372,2802.5893560111163
1671,1871.000,6.255004360703879,2801.117659639296
1672,1872.000,9.269743272694086,2799.644907727306
1673,1873.000,7.484112798397291,2798.1711232016028
1674,1874.000,11.327926943175498,2796.6963290568247
1675,1875.000,10.788450644141903,2795.220548355858
1676,1876.000,11.507088770098562,2793.7438042299013
1677,1877.000,13.746963121463068,2792.2661198785368
1678,1878.000,3.4592094301983707,2790.7875185698017
1679,1879.000,11.554664359746766,2789.3080236402534
1680,1880.000,3.989324504963406,2787.8276584950368
1681,1881.000,17.05004939203991,2786.34644660796
1682,1882.000,8.608492478448625,2784.8644115215516
1683,1883.000,2.805705152860355,2783.3815768471395
1684,1884.000,17.768479735086657,2781.8979662649135
1685,1885.000,18.403808476004087,2780.413603523996
1686,1886.000,6.788156557488946,2778.928512442511
1687,1887.000,12.99373009234796,2777.442716907652
1688,1888.000,27.2295901242519,2775.956240875748
1689,1889.000,6.588403627658408,2774.4691083723415
1690,1890.000,15.873103507760334,2772.98134349224
1691,1891.000,1.5185626003985817,2771.4929703996013
1692,1892.000,11.187083672007248,2770.0040133279927
1693,1893.000,7.679167419535133,2768.5144965804648
1694,1894.000,11.34257047038136,2767.0244445296184
1695,1895.000,2.5825723823354565,2765.5338816176645
1696,1896.000,14.452999643492149,2764.042832356508
1697,1897.000,17.375184672191608,2762.551321327808
1698,1898.000,12.753537816955486,2761.0593731830445
1699,1899.000,7.397790356410951,2759.567012643589
1700,1900.000,0.0,2758.0742645007776
1701,1901.000,10.821780384028898,2756.5811536159713
1702,1902.000,4.872346079369436,2755.0877049206306
1703,1903.000,5.917316583616412,2753.593943416384
1704,1904.000,0.0,2752.099894175089
1705,1905.000,14.833705661084423,2750.6055823389156
1706,1906.000,11.35770887960416,2749.111033120396
1707,1907.000,15.703356197492212,2747.616271802508
1708,1908.000,4.977928261258967,2746.121323738741
1709,1909.000,0.0,2744.626214353155
1710,1910.000,10.127212859537394,2743.1309691404626
1711,1911.000,9.616164333915549,2741.6356136660843
1712,1912.000,2.9648164337704657,2740.1401735662294
1713,1913.000,0.0,2738.6446745479598
1714,1914.000,6.4957726107491,2737.1491423892508
1715,1915.000,20.59605906092702,2735.653602939073
1716,1916.000,20.00577888254793,2734.158082117452
1717,1917.000,14.319892084459298,2732.6626059155406
1718,1918.000,1.044891604318309,2731.167200395682
1719,1919.000,11.960251308511488,2729.6718916914883
1720,1920.000,11.244827992100909,2728.176706007899
1721,1921.000,0.0,2726.681669621253
1722,1922.000,8.075785120633554,2725.1868088793663
1723,1923.000,7.82784879842211,2723.692150201578
1724,1924.000,2.175595921153217,2722.197720078847
1725,1925.000,3.7938829262034233,2720.7035450737967
1726,1926.000,4.734086179203587,2719.2096518207964
1727,1927.000,3.6243599739682395,2717.716067026032
1728,1928.000,0.6023025324402624,2716.2228174675597
1729,1929.000,7.3366630046070895,2714.729929995393
1730,1930.000,15.236032468440953,2713.237431531559
1731,1931.000,0.0,2711.7453490701664
1732,1932.000,7.353205322514896,2710.253709677485
1733,1933.000,4.907912507996116,2708.762540492004
1734,1934.000,5.198953275495114,2707.271868724505
1735,1935.000,11.05196234187315,2705.781721658127
1736,1936.000,12.266184351557968,2704.292126648442
1737,1937.000,7.143124876488855,2702.8031111235114
1738,1938.000,0.0015054160267027328,2701.3147025839735
1739,1939.000,15.960729396913848,2699.8269286030863
1740,1940.000,2.8013101731771712,2698.3398168268227
1741,1941.000,16.702948026078502,2696.8533949739217
1742,1942.000,7.1244541640376156,2695.3676908359625
1743,1943.000,2.510590722570214,2693.8827322774296
1744,1944.000,8.713951764207195,2692.3985472357926
1745,1945.000,1.6952902784441903,2690.915163721556
1746,1946.000,5.221320181653482,2689.4326098183465
1747,1947.000,20.507917317033844,2687.950913682966
1748,1948.000,3.904230454525532,2686.4701035454746
1749,1949.000,14.87374429075453,2684.9902077092456
1750,1950.000,13.44343044894913,2683.511254551051
1751,1951.000,7.894606478896094,2682.0332725211038
1752,1952.000,8.646469856847034,2680.556290143153
1753,1953.000,0.14545698545907726,2679.080336014541
1754,1954.000,0.0,2677.6054388062685
1755,1955.000,15.859996736932771,2676.131627263067
1756,1956.000,0.8617157965272781,2674.6589302034727
1757,1957.000,9.834733480116483,2673.1873765198834
1758,1958.000,18.09333882136025,2671.7169951786395
1759,1959.000,1.3474097799203264,2670.2478152200797
1760,1960.000,4.514489241375941,2668.779865758624
1761,1961.000,13.821016017175225,2667.3131759828248
1762,1962.000,10.032734844545303,2665.8477751554547
1763,1963.000,7.022095386436376,2664.3836926135637
1764,1964.000,6.909993231458429,2662.9209577685415
1765,1965.000,11.251478893793774,2661.4596001062064
1766,1966.000,1.8555178131477987,2659.9996491868524
1767,1967.000,1.3339823546698426,2658.54113464533
1768,1968.000,19.08327280888716,2657.084086191113
1769,1969.000,0.0,2655.6285336083643
1770,1970.000,0.0,2654.174506756005
1771,1971.000,13.194272432212074,2652.7220355677878
1772,1972.000,4.207920947643743,2651.2711500523565
1773,1973.000,6.123146706677744,2649.8218802933225
1774,1974.000,9.414571550668825,2648.3742564493314
1775,1975.000,4.481237245873672,2646.928308754126
1776,1976.000,0.0,2645.4840675166265
1777,1977.000,3.9754228790125126,2644.0415631209876
1778,1978.000,0.0,2642.6008260266703
1779,1979.000,0.0,2641.1618867685174
1780,1980.000,0.0,2639.724775956808
1781,1981.000,8.068437722658473,2638.2895242773416
1782,1982.000,1.3599205085010908,2636.8561624914987
1783,1983.000,2.273085563694167,2635.424721436306
1784,1984.000,0.0,2633.99523202451
1785,1985.000,0.0,2632.5677252446476
1786,1986.000,1.9228678388881235,2631.1422321611117
1787,1987.000,7.421750085784879,2629.7187839142152
1788,1988.000,0.0,2628.2974117202693
1789,1989.000,8.780217128361983,2626.878146871638
1790,1990.000,6.0857162631732535,2625.461020736827
1791,1991.000,0.0,2624.046064760537
1792,1992.000,4.8546185362729375,2622.633310463727
1793,1993.000,3.2835105562921854,2621.222789443708
1794,1994.000,12.185631625822225,2619.8145333741777
1795,1995.000,1.4177679946792523,2618.4085740053206
1796,1996.000,0.8200498361438804,2617.0049431638563
1797,1997.000,1.0208642468865037,2615.6036727531136
1798,1998.000,2.8025122468957306,2614.204794753104
1799,1999.000,12.516027779415253,2612.8083412205847
1800,2000.000,3.9366467108779943,2611.414344289122
