pixel_index,raman_shift_cm-1,intensity
0,200.000,216.619148
1,201.000,215.2689765
2,202.000,213.918805
3,203.000,206.510812
4,204.000,224.143783
5,205.000,215.611656
6,206.000,207.079529
7,207.000,212.1799455
8,208.000,217.280362
9,209.000,214.684229
10,210.000,214.531343
11,211.000,215.975852
12,212.000,213.68454
13,213.000,211.393228
14,214.000,209.27283
15,215.000,219.898969
16,216.000,212.738474
17,217.000,206.85187
18,218.000,213.185425
19,219.000,219.694717
20,220.000,213.88441
21,221.000,220.05293
22,222.000,221.54363
23,223.000,216.364524
24,224.000,222.234761
25,225.000,231.111654
26,226.000,225.98593
27,227.000,227.066657
28,228.000,221.65329
29,229.000,217.416272
30,230.000,220.469956
31,231.000,225.309386
32,232.000,230.63688
33,233.000,221.921544
34,234.000,225.59836
35,235.000,231.057522
36,236.000,219.775778
37,237.000,226.029105
38,238.000,224.429856
39,239.000,225.200162
40,240.000,219.938074
41,241.000,225.273033
42,242.000,226.74415249999998
43,243.000,228.215272
44,244.000,230.528083
45,245.000,223.559625
46,246.000,228.532877
47,247.000,230.51368
48,248.000,235.162713
49,249.000,236.272092
50,250.000,242.103455
51,251.000,234.035836
52,252.000,236.896641
53,253.000,240.988139
54,254.000,239.206752
55,255.000,241.700255
56,256.000,242.524438
57,257.000,239.58837
58,258.000,243.530367
59,259.000,230.632611
60,260.000,232.542599
61,261.000,238.200146
62,262.000,233.672824
63,263.000,236.55894
64,264.000,246.778869
65,265.000,245.031264
66,266.000,248.716177
67,267.000,247.228968
68,268.000,255.230955
69,269.000,237.896107
70,270.000,244.548171
71,271.000,245.895711
72,272.000,242.545645
73,273.000,253.001349
74,274.000,241.733624
75,275.000,254.307934
76,276.000,248.76831
77,277.000,244.842635
78,278.000,240.918951
79,279.000,247.780662
80,280.000,244.232862
81,281.000,250.344583
82,282.000,256.222141
83,283.000,250.440735
84,284.000,257.911167
85,285.000,253.845112
86,286.000,256.603354
87,287.000,253.949473
88,288.000,257.351561
89,289.000,256.332925
90,290.000,264.932198
91,291.000,263.125421
92,292.000,253.27987
93,293.000,262.152619
94,294.000,253.703251
95,295.000,263.980119
96,296.000,267.497781
97,297.000,266.230263
98,298.000,258.532796
99,299.000,265.275114
100,300.000,270.220177
101,301.000,258.155088
102,302.000,263.528605
103,303.000,269.127216
104,304.000,268.288541
105,305.000,261.967735
106,306.000,261.736559
107,307.000,257.580048
108,308.000,270.339381
109,309.000,271.40312
110,310.000,276.233369
111,311.000,270.475664
112,312.000,264.292507
113,313.000,275.517544
114,314.000,275.497015
115,315.000,268.641848
116,316.000,281.426789
117,317.000,274.60383
118,318.000,277.107941
119,319.000,280.252801
120,320.000,260.743544
121,321.000,272.158102
122,322.000,271.912187
123,323.000,278.060257
124,324.000,278.300065
125,325.000,270.119547
126,326.000,272.110401
127,327.000,278.585808
128,328.000,288.629801
129,329.000,280.14884
130,330.000,285.603184
131,331.000,271.664827
132,332.000,275.242129
133,333.000,285.408731
134,334.000,277.25747
135,335.000,290.739435
136,336.000,290.49983
137,337.000,279.259807
138,338.000,295.884551
139,339.000,291.090215
140,340.000,287.154835
141,341.000,291.327811
142,342.000,289.442733
143,343.000,298.527904
144,344.000,288.421252
145,345.000,302.162282
146,346.000,292.858506
147,347.000,290.460576
148,348.000,289.309413
149,349.000,295.905473
150,350.000,294.165299
151,351.000,294.462624
152,352.000,294.942759
153,353.000,284.590586
154,354.000,304.854329
155,355.000,296.129257
156,356.000,289.016901
157,357.000,284.051434
158,358.000,291.117024
159,359.000,291.992658
160,360.000,302.805669
161,361.000,306.532097
162,362.000,295.576117
163,363.000,303.097743
164,364.000,307.2858935
165,365.000,311.474044
166,366.000,309.403303
167,367.000,307.332562
168,368.000,306.66062650000003
169,369.000,305.988691
170,370.000,303.385735
171,371.000,295.051153
172,372.000,309.510624
173,373.000,297.516576
174,374.000,312.455911
175,375.000,314.969083
176,376.000,309.80496200000005
177,377.000,304.640841
178,378.000,314.641531
179,379.000,313.443741
180,380.000,313.600807
181,381.000,307.556612
182,382.000,312.176103
183,383.000,306.586763
184,384.000,310.831992
185,385.000,315.077221
186,386.000,313.001606
187,387.000,316.98427
188,388.000,307.517754
189,389.000,320.571032
190,390.000,309.284063
191,391.000,317.855782
192,392.000,312.299113
193,393.000,321.15082
194,394.000,316.0032625
195,395.000,310.855705
196,396.000,317.956193
197,397.000,320.223499
198,398.000,326.163759
199,399.000,321.08608
200,400.000,332.590268
201,401.000,322.786958
202,402.000,326.087601
203,403.000,322.515392
204,404.000,330.516534
205,405.000,330.049894
206,406.000,322.316921
207,407.000,321.849221
208,408.000,331.061711
209,409.000,330.342238
210,410.000,337.595991
211,411.000,338.530133
212,412.000,329.037847
213,413.000,346.277039
214,414.000,339.742788
215,415.000,346.12147
216,416.000,338.301445
217,417.000,326.984703
218,418.000,335.202159
219,419.000,331.397499
220,420.000,348.902448
221,421.000,343.353859
222,422.000,336.957714
223,423.000,335.158918
224,424.000,333.136064
225,425.000,333.883614
226,426.000,328.143985
227,427.000,338.765473
228,428.000,342.865615
229,429.000,343.531335
230,430.000,343.162902
231,431.000,341.118103
232,432.000,340.474719
233,433.000,351.974243
234,434.000,351.49595550000004
235,435.000,351.017668
236,436.000,349.602589
237,437.000,347.505645
238,438.000,347.759394
239,439.000,336.817892
240,440.000,351.673308
241,441.000,350.78349
242,442.000,344.457816
243,443.000,355.748957
244,444.000,352.177768
245,445.000,348.182953
246,446.000,353.115906
247,447.000,368.356917
248,448.000,358.661744
249,449.000,362.123988
250,450.000,360.922662
251,451.000,360.58781899999997
252,452.000,360.252976
253,453.000,357.341992
254,454.000,363.063893
255,455.000,355.422729
256,456.000,365.039891
257,457.000,356.956473
258,458.000,361.651468
259,459.000,363.546478
260,460.000,359.632591
261,461.000,360.919435
262,462.000,362.95195750000005
263,463.000,364.98448
264,464.000,361.113978
265,465.000,373.16473
266,466.000,369.034457
267,467.000,371.132564
268,468.000,378.701543
269,469.000,368.665652
270,470.000,368.367354
271,471.000,377.048471
272,472.000,377.148179
273,473.000,375.741275
274,474.000,368.529959
275,475.000,373.396391
276,476.000,375.73809
277,477.000,382.357576
278,478.000,370.480509
279,479.000,380.950618
280,480.000,384.6249345
281,481.000,388.299251
282,482.000,385.303834
283,483.000,389.123548
284,484.000,379.935262
285,485.000,379.212413
286,486.000,375.297247
287,487.000,390.300015
288,488.000,393.327863
289,489.000,392.821362
290,490.000,391.014083
291,491.000,386.159428
292,492.000,388.347367
293,493.000,388.556842
294,494.000,388.766317
295,495.000,390.145568
296,496.000,392.60533
297,497.000,384.186798
298,498.000,390.085205
299,499.000,396.95847
300,500.000,391.508709
301,501.000,399.112794
302,502.000,398.792875
303,503.000,397.003589
304,504.000,396.448218
305,505.000,400.465035
306,506.000,394.177062
307,507.000,393.655347
308,508.000,393.133632
309,509.000,394.526131
310,510.000,396.304661
311,511.000,397.938789
312,512.000,398.59315
313,513.000,406.849176
314,514.000,412.132601
315,515.000,407.789443
316,516.000,397.677004
317,517.000,406.73134
318,518.000,396.349588
319,519.000,415.796655
320,520.000,405.641282
321,521.000,405.676655
322,522.000,415.615128
323,523.000,406.308635
324,524.000,411.794224
325,525.000,416.278123
326,526.000,418.500023
327,527.000,418.9538
328,528.000,420.487201
329,529.000,418.925846
330,530.000,413.706416
331,531.000,411.608151
332,532.000,423.030813
333,533.000,414.613293
334,534.000,423.677048
335,535.000,425.609877
336,536.000,422.044489
337,537.000,415.228133
338,538.000,417.422945
339,539.000,429.253993
340,540.000,422.896959
341,541.000,428.14776
342,542.000,422.662732
343,543.000,425.892854
344,544.000,434.209745
345,545.000,424.57191
346,546.000,433.106296
347,547.000,432.864072
348,548.000,430.69358
349,549.000,435.895384
350,550.000,427.601844
351,551.000,424.758781
352,552.000,428.969069
353,553.000,435.175474
354,554.000,437.253538
355,555.000,432.616373
356,556.000,429.825709
357,557.000,430.511706
358,558.000,433.930654
359,559.000,439.214
360,560.000,441.839819
361,561.000,444.66878
362,562.000,429.674632
363,563.000,443.393738
364,564.000,439.772852
365,565.000,440.698228
366,566.000,442.186545
367,567.000,442.155659
368,568.000,442.49439
369,569.000,446.215107
370,570.000,441.307845
371,571.000,444.60351149999997
372,572.000,447.899178
373,573.000,451.343765
374,574.000,453.988445
375,575.000,448.018964
376,576.000,445.209923
377,577.000,443.563921
378,578.000,448.048378
379,579.000,444.397699
380,580.000,454.681803
381,581.000,442.053871
382,582.000,450.922351
383,583.000,451.3631885
384,584.000,451.804026
385,585.000,460.199943
386,586.000,454.242971
387,587.000,467.268625
388,588.000,464.44957850000003
389,589.000,461.630532
390,590.000,460.495092
391,591.000,457.789268
392,592.000,466.821586
393,593.000,467.286578
394,594.000,460.158631
395,595.000,470.200251
396,596.000,463.182014
397,597.000,477.51079
398,598.000,475.918143
399,599.000,479.57397
400,600.000,483.450997
401,601.000,477.414756
402,602.000,482.213742
403,603.000,487.604185
404,604.000,495.53532
405,605.000,490.888804
406,606.000,488.678311
407,607.000,493.467961
408,608.000,491.692503
409,609.000,498.896688
410,610.000,497.17822
411,611.000,510.109432
412,612.000,509.138517
413,613.000,536.264951
414,614.000,550.249697
415,615.000,552.732668
416,616.000,578.499994
417,617.000,604.686473
418,618.000,633.972642
419,619.000,646.740261
420,620.000,641.2005943333334
421,621.000,635.6609276666667
422,622.000,630.121261
423,623.000,613.156379
424,624.000,581.690522
425,625.000,566.876367
426,626.000,560.200043
427,627.000,545.649324
428,628.000,529.741942
429,629.000,526.310323
430,630.000,524.13637
431,631.000,519.885988
432,632.000,518.071848
433,633.000,513.473139
434,634.000,503.739568
435,635.000,515.971371
436,636.000,514.712057
437,637.000,513.487406
438,638.000,509.655831
439,639.000,494.773365
440,640.000,506.611926
441,641.000,506.842669
442,642.000,503.013858
443,643.000,513.458003
444,644.000,505.865864
445,645.000,503.436924
446,646.000,511.659356
447,647.000,501.975423
448,648.000,503.335448
449,649.000,515.173954
450,650.000,513.610462
451,651.000,512.679605
452,652.000,508.940319
453,653.000,509.160955
454,654.000,520.347717
455,655.000,525.010765
456,656.000,517.453748
457,657.000,516.097926
458,658.000,519.154382
459,659.000,515.662906
460,660.000,517.413458
461,661.000,513.283182
462,662.000,518.950354
463,663.000,517.880336
464,664.000,528.71767
465,665.000,531.461846
466,666.000,524.590015
467,667.000,525.67504
468,668.000,518.397625
469,669.000,523.348334
470,670.000,527.55985
471,671.000,526.493712
472,672.000,524.153403
473,673.000,526.631753
474,674.000,523.726459
475,675.000,531.739454
476,676.000,533.243195
477,677.000,540.048992
478,678.000,535.205446
479,679.000,524.70304
480,680.000,538.249642
481,681.000,527.399247
482,682.000,542.631707
483,683.000,530.802241
484,684.000,531.638418
485,685.000,541.689997
486,686.000,536.893654
487,687.000,528.064785
488,688.000,543.771363
489,689.000,533.526079
490,690.000,531.682885
491,691.000,548.935294
492,692.000,541.338975
493,693.000,537.434663
494,694.000,546.752384
495,695.000,537.327932
496,696.000,537.264672
497,697.000,544.303354
498,698.000,557.123075
499,699.000,552.630482
500,700.000,551.659381
501,701.000,546.299801
502,702.000,547.198002
503,703.000,547.836786
504,704.000,551.785312
505,705.000,539.16089
506,706.000,560.845102
507,707.000,550.757203
508,708.000,556.01447
509,709.000,562.847577
510,710.000,554.623702
511,711.000,563.720383
512,712.000,559.892598
513,713.000,552.540882
514,714.000,566.862164
515,715.000,567.291035
516,716.000,567.719906
517,717.000,567.715936
518,718.000,566.1425895
519,719.000,564.569243
520,720.000,568.862427
521,721.000,565.970081
522,722.000,567.99272
523,723.000,568.873083
524,724.000,565.7746
525,725.000,568.334786
526,726.000,568.807528
527,727.000,567.815903
528,728.000,573.152212
529,729.000,564.125734
530,730.000,580.423432
531,731.000,570.591413
532,732.000,575.638522
533,733.000,575.113188
534,734.000,569.297987
535,735.000,581.730681
536,736.000,572.15456
537,737.000,582.757422
538,738.000,577.375357
539,739.000,571.959215
540,740.000,572.700536
541,741.000,578.989726
542,742.000,581.335841
543,743.000,579.039523
544,744.000,573.111386
545,745.000,584.431898
546,746.000,580.86542
547,747.000,582.464188
548,748.000,583.557645
549,749.000,589.423105
550,750.000,590.158072
551,751.000,585.270347
552,752.000,600.113608
553,753.000,603.270515
554,754.000,602.3620275000001
555,755.000,601.45354
556,756.000,586.945749
557,757.000,597.213883
558,758.000,596.333359
559,759.000,589.497341
560,760.000,594.632199
561,761.000,597.057961
562,762.000,603.831072
563,763.000,612.263799
564,764.000,605.959711
565,765.000,603.322302
566,766.000,591.021634
567,767.000,596.214508
568,768.000,610.6767
569,769.000,608.703257
570,770.000,605.091601
571,771.000,616.790439
572,772.000,606.118529
573,773.000,611.142288
574,774.000,615.694906
575,775.000,623.140218
576,776.000,623.558267
577,777.000,623.976316
578,778.000,623.605662
579,779.000,632.939807
580,780.000,622.998203
581,781.000,629.416971
582,782.000,631.423019
583,783.000,636.488802
584,784.000,641.554585
585,785.000,646.620368
586,786.000,646.777339
587,787.000,654.385821
588,788.000,660.475708
589,789.000,669.105171
590,790.000,674.50109
591,791.000,695.072188
592,792.000,707.959565
593,793.000,705.727342
594,794.000,716.8575885
595,795.000,727.987835
596,796.000,717.97153
597,797.000,721.948652
598,798.000,700.442704
599,799.000,702.713376
600,800.000,690.257748
601,801.000,689.501681
602,802.000,675.681578
603,803.000,673.620734
604,804.000,658.717355
605,805.000,666.577723
606,806.000,654.660853
607,807.000,649.353994
608,808.000,654.513402
609,809.000,649.822355
610,810.000,648.996022
611,811.000,643.815988
612,812.000,650.764405
613,813.000,642.112197
614,814.000,657.88038
615,815.000,650.623587
616,816.000,639.329344
617,817.000,642.122449
618,818.000,652.997988
619,819.000,649.408328
620,820.000,648.34487
621,821.000,649.3883
622,822.000,647.670215
623,823.000,653.986964
624,824.000,643.642392
625,825.000,649.926755
626,826.000,653.683637
627,827.000,662.174255
628,828.000,649.387678
629,829.000,653.60888
630,830.000,661.898924
631,831.000,655.88319
632,832.000,652.826547
633,833.000,666.762531
634,834.000,656.789827
635,835.000,664.574415
636,836.000,657.282278
637,837.000,663.124921
638,838.000,662.424173
639,839.000,667.478599
640,840.000,659.710856
641,841.000,665.680941
642,842.000,654.468153
643,843.000,665.509007
644,844.000,672.589956
645,845.000,671.931135
646,846.000,667.297767
647,847.000,671.024329
648,848.000,669.199592
649,849.000,665.801787
650,850.000,669.700105
651,851.000,669.40549
652,852.000,666.079697
653,853.000,667.750689
654,854.000,666.980775
655,855.000,672.162042
656,856.000,680.024574
657,857.000,673.471116
658,858.000,681.517215
659,859.000,683.305393
660,860.000,675.901794
661,861.000,675.289919
662,862.000,684.660439
663,863.000,690.257619
664,864.000,688.076318
665,865.000,683.082879
666,866.000,686.436682
667,867.000,682.51399
668,868.000,695.423141
669,869.000,687.739523
670,870.000,689.603563
671,871.000,691.467603
672,872.000,691.428406
673,873.000,685.024083
674,874.000,685.171541
675,875.000,685.159399
676,876.000,694.202132
677,877.000,693.437711
678,878.000,694.024148
679,879.000,697.967008
680,880.000,693.725242
681,881.000,701.902047
682,882.000,702.425877
683,883.000,694.554403
684,884.000,700.141182
685,885.000,701.726369
686,886.000,696.340885
687,887.000,705.786365
688,888.000,704.345853
689,889.000,695.05212
690,890.000,698.563691
691,891.000,697.204751
692,892.000,703.850322
693,893.000,700.56892
694,894.000,702.325408
695,895.000,700.128923
696,896.000,704.162475
697,897.000,702.295116
698,898.000,712.307916
699,899.000,709.503611
700,900.000,708.016024
701,901.000,703.96521
702,902.000,712.219288
703,903.000,716.43447
704,904.000,721.829525
705,905.000,719.34657
706,906.000,719.294971
707,907.000,718.838743
708,908.000,723.060629
709,909.000,721.635534
710,910.000,712.942021
711,911.000,710.790592
712,912.000,720.715754
713,913.000,723.754357
714,914.000,717.42414
715,915.000,720.393128
716,916.000,715.180921
717,917.000,721.782112
718,918.000,717.15472
719,919.000,721.479975
720,920.000,723.040848
721,921.000,727.404371
722,922.000,731.767894
723,923.000,721.908615
724,924.000,728.016774
725,925.000,733.725109
726,926.000,731.704955
727,927.000,725.342568
728,928.000,728.154464
729,929.000,733.844104
730,930.000,734.467185
731,931.000,739.277924
732,932.000,737.39528
733,933.000,727.893449
734,934.000,733.379192
735,935.000,741.337313
736,936.000,737.538007
737,937.000,749.19369
738,938.000,751.3317
739,939.000,736.777171
740,940.000,739.11842
741,941.000,738.99433
742,942.000,738.87024
743,943.000,750.356696
744,944.000,747.25955
745,945.000,740.254352
746,946.000,737.487322
747,947.000,740.805199
748,948.000,753.915044
749,949.000,763.30658
750,950.000,749.883489
751,951.000,757.276209
752,952.000,755.690353
753,953.000,758.006845
754,954.000,755.977018
755,955.000,759.818964
756,956.000,769.752747
757,957.000,762.842211
758,958.000,757.368447
759,959.000,759.970281
760,960.000,757.233471
761,961.000,766.867544
762,962.000,768.1643165
763,963.000,769.461089
764,964.000,773.719016
765,965.000,761.25829
766,966.000,768.71323
767,967.000,763.528915
768,968.000,760.496817
769,969.000,775.695991
770,970.000,773.376155
771,971.000,766.599429
772,972.000,766.828358
773,973.000,774.870863
774,974.000,782.913368
775,975.000,790.955873
776,976.000,788.683695
777,977.000,802.627596
778,978.000,789.543664
779,979.000,790.577069
780,980.000,790.247791
781,981.000,779.216768
782,982.000,788.608174
783,983.000,797.947892
784,984.000,802.74323
785,985.000,810.864016
786,986.000,825.087695
787,987.000,816.649557
788,988.000,829.106966
789,989.000,839.431783
790,990.000,848.592045
791,991.000,864.891064
792,992.000,875.704424
793,993.000,906.464049
794,994.000,941.40147
795,995.000,989.541655
796,996.000,1050.801491
797,997.000,1134.874019
798,998.000,1288.242763
799,999.000,1477.517279
800,1000.000,1687.821942
801,1001.000,1690.2990925
802,1002.000,1692.776243
803,1003.000,1475.512373
804,1004.000,1289.796842
805,1005.000,1155.406217
806,1006.000,1060.4118
807,1007.000,1009.44058
808,1008.000,952.458716
809,1009.000,925.460077
810,1010.000,905.702108
811,1011.000,884.013227
812,1012.000,878.200429
813,1013.000,876.346124
814,1014.000,862.084247
815,1015.000,843.487107
816,1016.000,854.586447
817,1017.000,851.224562
818,1018.000,862.634911
819,1019.000,856.277419
820,1020.000,858.695428
821,1021.000,874.638004
822,1022.000,874.65377
823,1023.000,873.492308
824,1024.000,903.131632
825,1025.000,917.997625
826,1026.000,950.123618
827,1027.000,1000.322212
828,1028.000,1067.10472
829,1029.000,1123.279028
830,1030.000,1201.67014
831,1031.000,1203.5938055
832,1032.000,1205.517471
833,1033.000,1139.78829
834,1034.000,1058.825905
835,1035.000,999.615256
836,1036.000,952.296127
837,1037.000,921.604074
838,1038.000,912.199181
839,1039.000,878.374676
840,1040.000,871.2159713333333
841,1041.000,864.0572666666667
842,1042.000,856.898562
843,1043.000,854.709973
844,1044.000,842.929895
845,1045.000,846.899563
846,1046.000,837.802237
847,1047.000,840.630207
848,1048.000,841.309665
849,1049.000,835.383532
850,1050.000,834.512518
851,1051.000,835.723367
852,1052.000,835.293663
853,1053.000,830.080034
854,1054.000,830.741598
855,1055.000,844.34409
856,1056.000,840.888381
857,1057.000,839.407415
858,1058.000,838.2193345000001
859,1059.000,837.031254
860,1060.000,841.723884
861,1061.000,833.533709
862,1062.000,832.622977
863,1063.000,841.623679
864,1064.000,830.873288
865,1065.000,834.098807
866,1066.000,840.83757
867,1067.000,844.130877
868,1068.000,833.048363
869,1069.000,835.149262
870,1070.000,839.826857
871,1071.000,846.253956
872,1072.000,840.133468
873,1073.000,845.169389
874,1074.000,845.692807
875,1075.000,842.005642
876,1076.000,842.419471
877,1077.000,835.482045
878,1078.000,846.694673
879,1079.000,839.573359
880,1080.000,844.324391
881,1081.000,845.98802
882,1082.000,843.289981
883,1083.000,841.657796
884,1084.000,848.478023
885,1085.000,831.339046
886,1086.000,848.607421
887,1087.000,841.910864
888,1088.000,844.361313
889,1089.000,847.735738
890,1090.000,835.985333
891,1091.000,838.2344224999999
892,1092.000,840.483512
893,1093.000,838.484764
894,1094.000,842.249365
895,1095.000,860.266868
896,1096.000,856.088293
897,1097.000,855.592349
898,1098.000,857.218189
899,1099.000,854.139881
900,1100.000,847.921616
901,1101.000,857.203647
902,1102.000,860.298181
903,1103.000,863.5564959999999
904,1104.000,866.814811
905,1105.000,859.293687
906,1106.000,855.762894
907,1107.000,860.688834
908,1108.000,860.342758
909,1109.000,849.212769
910,1110.000,868.347633
911,1111.000,864.264995
912,1112.000,871.751823
913,1113.000,871.542453
914,1114.000,863.268638
915,1115.000,860.581212
916,1116.000,865.903428
917,1117.000,866.944587
918,1118.000,877.044107
919,1119.000,880.30415
920,1120.000,868.630224
921,1121.000,868.381234
922,1122.000,868.858033
923,1123.000,870.497733
924,1124.000,875.005369
925,1125.000,874.784371
926,1126.000,874.563373
927,1127.000,876.767658
928,1128.000,880.021723
929,1129.000,879.146677
930,1130.000,867.751388
931,1131.000,871.716806
932,1132.000,870.671945
933,1133.000,878.368697
934,1134.000,884.694067
935,1135.000,892.340959
936,1136.000,892.384554
937,1137.000,892.428149
938,1138.000,890.031206
939,1139.000,887.990499
940,1140.000,878.603809
941,1141.000,898.886501
942,1142.000,887.551706
943,1143.000,903.006327
944,1144.000,912.922345
945,1145.000,906.104426
946,1146.000,908.836468
947,1147.000,915.804596
948,1148.000,911.92155
949,1149.000,935.001371
950,1150.000,966.199712
951,1151.000,967.568964
952,1152.000,989.155898
953,1153.000,1003.156443
954,1154.000,1015.732229
955,1155.000,1020.188138
956,1156.000,1017.8088614999999
957,1157.000,1015.429585
958,1158.000,995.646424
959,1159.000,975.836683
960,1160.000,961.900661
961,1161.000,939.410357
962,1162.000,939.194602
963,1163.000,933.686683
964,1164.000,928.178764
965,1165.000,922.670845
966,1166.000,924.688687
967,1167.000,925.5563715
968,1168.000,926.424056
969,1169.000,912.997017
970,1170.000,924.342625
971,1171.000,922.142417
972,1172.000,920.528566
973,1173.000,932.685304
974,1174.000,922.208821
975,1175.000,929.226457
976,1176.000,946.406123
977,1177.000,941.394478
978,1178.000,963.535933
979,1179.000,976.355468
980,1180.000,982.416259
981,1181.000,1003.654519
982,1182.000,1004.054606
983,1183.000,1004.454693
984,1184.000,1004.85478
985,1185.000,1002.190406
986,1186.000,986.352736
987,1187.000,975.388851
988,1188.000,964.739621
989,1189.000,956.310659
990,1190.000,939.097706
991,1191.000,931.686265
992,1192.000,920.571131
993,1193.000,928.206689
994,1194.000,931.945171
995,1195.000,919.480372
996,1196.000,919.383695
997,1197.000,909.980781
998,1198.000,913.717834
999,1199.000,911.666474
1000,1200.000,916.855593
1001,1201.000,915.866235
1002,1202.000,921.04686
1003,1203.000,911.998153
1004,1204.000,915.055433
1005,1205.000,904.711711
1006,1206.000,925.311259
1007,1207.000,913.30685
1008,1208.000,918.344896
1009,1209.000,917.38857
1010,1210.000,919.2927425
1011,1211.000,921.196915
1012,1212.000,918.261329
1013,1213.000,917.733531
1014,1214.000,915.626722
1015,1215.000,913.45861
1016,1216.000,912.554571
1017,1217.000,916.513362
1018,1218.000,915.3197035000001
1019,1219.000,914.126045
1020,1220.000,918.872654
1021,1221.000,923.290465
1022,1222.000,913.65073
1023,1223.000,918.084103
1024,1224.000,928.454095
1025,1225.000,908.180964
1026,1226.000,930.56245
1027,1227.000,916.447311
1028,1228.000,924.190868
1029,1229.000,917.389851
1030,1230.000,925.814328
1031,1231.000,924.543271
1032,1232.000,922.38791
1033,1233.000,932.730341
1034,1234.000,924.735494
1035,1235.000,920.277145
1036,1236.000,922.651564
1037,1237.000,925.300474
1038,1238.000,919.535192
1039,1239.000,920.165524
1040,1240.000,928.510425
1041,1241.000,926.903431
1042,1242.000,930.758781
1043,1243.000,928.452966
1044,1244.000,927.148632
1045,1245.000,925.242073
1046,1246.000,935.10894
1047,1247.000,926.325459
1048,1248.000,929.269479
1049,1249.000,938.706942
1050,1250.000,925.577893
1051,1251.000,918.920813
1052,1252.000,932.120915
1053,1253.000,931.046379
1054,1254.000,932.007259
1055,1255.000,934.739725
1056,1256.000,935.822556
1057,1257.000,937.057932
1058,1258.000,926.333077
1059,1259.000,932.159128
1060,1260.000,936.578013
1061,1261.000,935.080857
1062,1262.000,935.701612
1063,1263.000,936.18708
1064,1264.000,931.354407
1065,1265.000,930.833396
1066,1266.000,930.312385
1067,1267.000,937.945462
1068,1268.000,943.481024
1069,1269.000,937.734278
1070,1270.000,939.957218
1071,1271.000,927.644015
1072,1272.000,939.911452
1073,1273.000,932.563039
1074,1274.000,947.563271
1075,1275.000,934.908987
1076,1276.000,938.670186
1077,1277.000,942.427878
1078,1278.000,931.476247
1079,1279.000,949.609657
1080,1280.000,942.622239
1081,1281.000,937.604944
1082,1282.000,953.095304
1083,1283.000,938.407034
1084,1284.000,947.223891
1085,1285.000,943.6652845
1086,1286.000,940.106678
1087,1287.000,943.964012
1088,1288.000,949.131382
1089,1289.000,946.05887
1090,1290.000,946.374433
1091,1291.000,948.072304
1092,1292.000,949.770175
1093,1293.000,943.076917
1094,1294.000,941.957351
1095,1295.000,954.248138
1096,1296.000,946.880414
1097,1297.000,943.024774
1098,1298.000,949.902089
1099,1299.000,946.110615
1100,1300.000,957.737535
1101,1301.000,940.505129
1102,1302.000,946.220101
1103,1303.000,941.807185
1104,1304.000,949.83604
1105,1305.000,943.983462
1106,1306.000,944.088519
1107,1307.000,949.426392
1108,1308.000,950.037991
1109,1309.000,958.612324
1110,1310.000,955.60643
1111,1311.000,950.002304
1112,1312.000,953.693864
1113,1313.000,966.209527
1114,1314.000,955.085659
1115,1315.000,954.803826
1116,1316.000,951.360041
1117,1317.000,958.935481
1118,1318.000,952.315819
1119,1319.000,957.66516
1120,1320.000,953.165874
1121,1321.000,955.069735
1122,1322.000,952.368964
1123,1323.000,945.844678
1124,1324.000,956.059693
1125,1325.000,948.570245
1126,1326.000,954.866005
1127,1327.000,962.066356
1128,1328.000,952.991422
1129,1329.000,963.259951
1130,1330.000,951.941698
1131,1331.000,954.358309
1132,1332.000,963.046811
1133,1333.000,958.229792
1134,1334.000,955.327882
1135,1335.000,951.448589
1136,1336.000,955.294265
1137,1337.000,966.155758
1138,1338.000,960.830665
1139,1339.000,956.876791
1140,1340.000,963.478943
1141,1341.000,958.061293
1142,1342.000,960.217945
1143,1343.000,963.861379
1144,1344.000,963.857459
1145,1345.000,965.741866
1146,1346.000,970.806919
1147,1347.000,965.77073
1148,1348.000,960.558124
1149,1349.000,955.463597
1150,1350.000,960.328754
1151,1351.000,950.18132
1152,1352.000,963.481706
1153,1353.000,952.187474
1154,1354.000,967.254793
1155,1355.000,974.065458
1156,1356.000,970.174194
1157,1357.000,972.419199
1158,1358.000,974.664204
1159,1359.000,953.673327
1160,1360.000,953.653964
1161,1361.000,953.634601
1162,1362.000,956.333643
1163,1363.000,958.471101
1164,1364.000,957.127609
1165,1365.000,959.121296
1166,1366.000,963.317904
1167,1367.000,966.167178
1168,1368.000,959.094239
1169,1369.000,958.021654
1170,1370.000,956.949069
1171,1371.000,958.217327
1172,1372.000,964.082613
1173,1373.000,973.085887
1174,1374.000,973.006721
1175,1375.000,965.550142
1176,1376.000,961.774098
1177,1377.000,968.926297
1178,1378.000,969.616704
1179,1379.000,961.03688
1180,1380.000,967.221481
1181,1381.000,960.883836
1182,1382.000,975.979076
1183,1383.000,979.018465
1184,1384.000,974.005847
1185,1385.000,968.663632
1186,1386.000,984.558792
1187,1387.000,968.456996
1188,1388.000,979.374882
1189,1389.000,974.193223
1190,1390.000,969.816171
1191,1391.000,965.12188
1192,1392.000,968.619323
1193,1393.000,972.116766
1194,1394.000,960.365553
1195,1395.000,962.65238
1196,1396.000,977.453508
1197,1397.000,970.115884
1198,1398.000,982.253273
1199,1399.000,971.869721
1200,1400.000,980.547373
1201,1401.000,974.054818
1202,1402.000,979.98323
1203,1403.000,974.621808
1204,1404.000,977.114518
1205,1405.000,973.914196
1206,1406.000,981.570222
1207,1407.000,968.779522
1208,1408.000,979.409372
1209,1409.000,970.958424
1210,1410.000,975.814774
1211,1411.000,982.717714
1212,1412.000,981.824769
1213,1413.000,974.878095
1214,1414.000,971.431998
1215,1415.000,985.376685
1216,1416.000,982.448633
1217,1417.000,979.091755
1218,1418.000,980.202383
1219,1419.000,985.648644
1220,1420.000,992.463902
1221,1421.000,974.470054
1222,1422.000,983.564037
1223,1423.000,997.477196
1224,1424.000,993.190349
1225,1425.000,988.19415
1226,1426.000,985.465683
1227,1427.000,995.579525
1228,1428.000,999.064708
1229,1429.000,986.680614
1230,1430.000,994.411181
1231,1431.000,998.443428
1232,1432.000,1000.562215
1233,1433.000,1013.18144
1234,1434.000,1014.708576
1235,1435.000,1012.32342
1236,1436.000,1008.850971
1237,1437.000,1028.577168
1238,1438.000,1028.874688
1239,1439.000,1045.230478
1240,1440.000,1052.09712
1241,1441.000,1065.538505
1242,1442.000,1072.590417
1243,1443.000,1087.364187
1244,1444.000,1105.216077
1245,1445.000,1119.349927
1246,1446.000,1137.055874
1247,1447.000,1160.475186
1248,1448.000,1175.631347
1249,1449.000,1192.363434
1250,1450.000,1195.46658
1251,1451.000,1192.090383
1252,1452.000,1172.171086
1253,1453.000,1173.796061
1254,1454.000,1147.554335
1255,1455.000,1113.665284
1256,1456.000,1082.457988
1257,1457.000,1093.795641
1258,1458.000,1080.936662
1259,1459.000,1049.768962
1260,1460.000,1048.030644
1261,1461.000,1037.43733
1262,1462.000,1034.139399
1263,1463.000,1026.914742
1264,1464.000,1023.414287
1265,1465.000,1013.511762
1266,1466.000,1003.452063
1267,1467.000,1006.504144
1268,1468.000,1003.716245
1269,1469.000,999.030313
1270,1470.000,991.100416
1271,1471.000,1004.797551
1272,1472.000,986.047695
1273,1473.000,998.383211
1274,1474.000,999.036249
1275,1475.000,996.006832
1276,1476.000,995.388524
1277,1477.000,991.113248
1278,1478.000,990.648119
1279,1479.000,978.941178
1280,1480.000,1000.914689
1281,1481.000,990.666139
1282,1482.000,981.31068
1283,1483.000,993.436347
1284,1484.000,982.394959
1285,1485.000,992.281414
1286,1486.000,994.964153
1287,1487.000,988.15394
1288,1488.000,982.443182
1289,1489.000,979.371998
1290,1490.000,985.297264
1291,1491.000,986.25031
1292,1492.000,976.98784
1293,1493.000,987.557294
1294,1494.000,974.922453
1295,1495.000,981.364375
1296,1496.000,981.819872
1297,1497.000,981.003431
1298,1498.000,981.410573
1299,1499.000,985.981404
1300,1500.000,992.030305
1301,1501.000,982.800098
1302,1502.000,985.128248
1303,1503.000,974.068716
1304,1504.000,978.199203
1305,1505.000,968.326334
1306,1506.000,974.4277795
1307,1507.000,980.529225
1308,1508.000,972.917875
1309,1509.000,970.771043
1310,1510.000,972.60684
1311,1511.000,981.034263
1312,1512.000,977.896807
1313,1513.000,979.369773
1314,1514.000,977.567027
1315,1515.000,975.764281
1316,1516.000,969.497871
1317,1517.000,977.22394
1318,1518.000,987.41118
1319,1519.000,973.418396
1320,1520.000,980.101001
1321,1521.000,981.699859
1322,1522.000,977.402783
1323,1523.000,982.550328
1324,1524.000,988.990528
1325,1525.000,985.687242
1326,1526.000,990.337899
1327,1527.000,981.817462
1328,1528.000,987.849056
1329,1529.000,985.730682
1330,1530.000,981.8697885
1331,1531.000,978.008895
1332,1532.000,984.861071
1333,1533.000,985.321716
1334,1534.000,983.871957
1335,1535.000,974.431951
1336,1536.000,987.369744
1337,1537.000,968.884477
1338,1538.000,976.072028
1339,1539.000,985.128343
1340,1540.000,982.62382
1341,1541.000,982.731369
1342,1542.000,986.411627
1343,1543.000,986.986009
1344,1544.000,983.686239
1345,1545.000,979.150329
1346,1546.000,978.099931
1347,1547.000,988.087797
1348,1548.000,988.134258
1349,1549.000,989.4260409999999
1350,1550.000,990.717824
1351,1551.000,983.23829
1352,1552.000,977.839963
1353,1553.000,981.669054
1354,1554.000,985.499747
1355,1555.000,983.164006
1356,1556.000,981.891578
1357,1557.000,981.680637
1358,1558.000,997.623907
1359,1559.000,986.266923
1360,1560.000,991.880458
1361,1561.000,985.534245
1362,1562.000,988.7970095000001
1363,1563.000,992.059774
1364,1564.000,991.360582
1365,1565.000,999.124364
1366,1566.000,998.653789
1367,1567.000,998.183214
1368,1568.000,996.744111
1369,1569.000,1002.085884
1370,1570.000,996.655133
1371,1571.000,1015.638153
1372,1572.000,1009.542715
1373,1573.000,1020.93057
1374,1574.000,1032.650525
1375,1575.000,1042.762876
1376,1576.000,1056.987201
1377,1577.000,1065.435013
1378,1578.000,1083.29815
1379,1579.000,1110.685847
1380,1580.000,1135.548586
1381,1581.000,1163.053964
1382,1582.000,1186.960427
1383,1583.000,1190.517139
1384,1584.000,1177.765505
1385,1585.000,1165.013871
1386,1586.000,1149.159812
1387,1587.000,1123.018761
1388,1588.000,1110.840802
1389,1589.000,1098.006577
1390,1590.000,1095.762661
1391,1591.000,1099.664037
1392,1592.000,1093.829172
1393,1593.000,1105.152242
1394,1594.000,1126.59299
1395,1595.000,1155.522836
1396,1596.000,1171.552917
1397,1597.000,1227.991972
1398,1598.000,1289.157657
1399,1599.000,1385.325243
1400,1600.000,1476.140139
1401,1601.000,1556.768191
1402,1602.000,1560.865599
1403,1603.000,1564.963007
1404,1604.000,1467.625769
1405,1605.000,1390.8612345
1406,1606.000,1314.0967
1407,1607.000,1237.3321655
1408,1608.000,1160.567631
1409,1609.000,1127.164691
1410,1610.000,1100.161143
1411,1611.000,1067.179549
1412,1612.000,1041.901292
1413,1613.000,1041.520188
1414,1614.000,1020.268087
1415,1615.000,1024.473288
1416,1616.000,1007.478412
1417,1617.000,1002.062035
1418,1618.000,995.976128
1419,1619.000,999.429023
1420,1620.000,994.929683
1421,1621.000,988.43595
1422,1622.000,990.678827
1423,1623.000,984.283456
1424,1624.000,983.981632
1425,1625.000,982.652632
1426,1626.000,977.444364
1427,1627.000,981.687137
1428,1628.000,980.42318
1429,1629.000,978.936792
1430,1630.000,978.538927
1431,1631.000,965.299705
1432,1632.000,973.487213
1433,1633.000,963.799532
1434,1634.000,976.099359
1435,1635.000,969.765981
1436,1636.000,960.39887
1437,1637.000,963.018497
1438,1638.000,965.638124
1439,1639.000,958.083094
1440,1640.000,968.292626
1441,1641.000,976.251191
1442,1642.000,962.985554
1443,1643.000,965.360703
1444,1644.000,962.807142
1445,1645.000,960.121098
1446,1646.000,957.635166
1447,1647.000,955.821915
1448,1648.000,972.312104
1449,1649.000,962.455501
1450,1650.000,961.817226
1451,1651.000,968.02021
1452,1652.000,962.313884
1453,1653.000,957.755
1454,1654.000,960.64401
1455,1655.000,953.835914
1456,1656.000,958.88564
1457,1657.000,956.791541
1458,1658.000,962.519087
1459,1659.000,957.371714
1460,1660.000,956.365202
1461,1661.000,956.57164
1462,1662.000,960.376476
1463,1663.000,953.882976
1464,1664.000,951.318492
1465,1665.000,961.444918
1466,1666.000,946.287915
1467,1667.000,949.048021
1468,1668.000,954.835913
1469,1669.000,949.564056
1470,1670.000,959.203043
1471,1671.000,951.7496
1472,1672.000,955.943772
1473,1673.000,952.620377
1474,1674.000,957.698056
1475,1675.000,955.557619
1476,1676.000,945.497077
1477,1677.000,946.024398
1478,1678.000,940.851456
1479,1679.000,941.7654574999999
1480,1680.000,942.679459
1481,1681.000,944.078077
1482,1682.000,951.205891
1483,1683.000,951.591804
1484,1684.000,950.17602
1485,1685.000,944.406559
1486,1686.000,942.490365
1487,1687.000,950.039562
1488,1688.000,955.37351
1489,1689.000,947.951807
1490,1690.000,945.602464
1491,1691.000,952.088421
1492,1692.000,938.77962
1493,1693.000,951.817371
1494,1694.000,945.531782
1495,1695.000,942.889513
1496,1696.000,935.341604
1497,1697.000,935.593816
1498,1698.000,949.714828
1499,1699.000,958.615441
1500,1700.000,951.354711
1501,1701.000,934.705997
1502,1702.000,940.851389
1503,1703.000,936.357139
1504,1704.000,941.604306
1505,1705.000,938.748124
1506,1706.000,944.261224
1507,1707.000,938.584127
1508,1708.000,936.912609
1509,1709.000,936.514274
1510,1710.000,932.294156
1511,1711.000,939.233851
1512,1712.000,933.315851
1513,1713.000,938.134251
1514,1714.000,940.709716
1515,1715.000,940.616151
1516,1716.000,945.680807
1517,1717.000,948.16758
1518,1718.000,942.1534925000001
1519,1719.000,936.139405
1520,1720.000,930.1661905000001
1521,1721.000,924.192976
1522,1722.000,933.19328
1523,1723.000,938.616011
1524,1724.000,932.39724
1525,1725.000,941.212696
1526,1726.000,925.488803
1527,1727.000,925.358896
1528,1728.000,932.442381
1529,1729.000,929.512609
1530,1730.000,928.2999
1531,1731.000,935.341486
1532,1732.000,936.164284
1533,1733.000,930.364077
1534,1734.000,930.153068
1535,1735.000,938.734759
1536,1736.000,939.85324
1537,1737.000,927.299838
1538,1738.000,925.054168
1539,1739.000,930.680945
1540,1740.000,926.140767
1541,1741.000,932.021319
1542,1742.000,928.511716
1543,1743.000,926.762127
1544,1744.000,922.292123
1545,1745.000,924.212473
1546,1746.000,922.883574
1547,1747.000,929.565905
1548,1748.000,925.977884
1549,1749.000,929.325246
1550,1750.000,922.16535
1551,1751.000,920.700434
1552,1752.000,923.588625
1553,1753.000,913.087552
1554,1754.000,920.749541
1555,1755.000,930.649849
1556,1756.000,935.884016
1557,1757.000,925.551215
1558,1758.000,920.39789
1559,1759.000,917.551639
1560,1760.000,925.203364
1561,1761.000,925.378782
1562,1762.000,912.538314
1563,1763.000,910.064759
1564,1764.000,920.497849
1565,1765.000,913.293033
1566,1766.000,925.501765
1567,1767.000,909.700138
1568,1768.000,917.367256
1569,1769.000,912.198924
1570,1770.000,924.512235
1571,1771.000,913.425836
1572,1772.000,912.696427
1573,1773.000,914.056545
1574,1774.000,914.476559
1575,1775.000,928.079122
1576,1776.000,917.824829
1577,1777.000,919.777705
1578,1778.000,910.559755
1579,1779.000,918.0420485
1580,1780.000,925.524342
1581,1781.000,919.959733
1582,1782.000,920.585222
1583,1783.000,912.583785
1584,1784.000,906.052317
1585,1785.000,914.592278
1586,1786.000,920.086241
1587,1787.000,907.079019
1588,1788.000,914.102108
1589,1789.000,910.709878
1590,1790.000,921.728388
1591,1791.000,909.654662
1592,1792.000,908.74219
1593,1793.000,896.720909
1594,1794.000,912.012891
1595,1795.000,903.008158
1596,1796.000,909.201932
1597,1797.000,912.120091
1598,1798.000,898.953271
1599,1799.000,903.615761
1600,1800.000,906.101884
1601,1801.000,911.024832
1602,1802.000,904.869135
1603,1803.000,911.327431
1604,1804.000,903.83225
1605,1805.000,907.613872
1606,1806.000,900.788444
1607,1807.000,896.396629
1608,1808.000,905.747111
1609,1809.000,894.546867
1610,1810.000,904.857455
1611,1811.000,905.162988
1612,1812.000,901.606704
1613,1813.000,895.547057
1614,1814.000,897.183301
1615,1815.000,895.742838
1616,1816.000,894.220405
1617,1817.000,899.440791
1618,1818.000,898.438395
1619,1819.000,891.829115
1620,1820.000,894.712827
1621,1821.000,891.289982
1622,1822.000,892.011011
1623,1823.000,893.379643
1624,1824.000,898.98804
1625,1825.000,887.220754
1626,1826.000,894.39863
1627,1827.000,894.037702
1628,1828.000,899.338412
1629,1829.000,888.940452
1630,1830.000,895.164811
1631,1831.000,897.17933
1632,1832.000,900.949024
1633,1833.000,888.654446
1634,1834.000,888.0005455
1635,1835.000,887.346645
1636,1836.000,894.579471
1637,1837.000,881.455928
1638,1838.000,888.53281
1639,1839.000,887.578405
1640,1840.000,886.624
1641,1841.000,885.181465
1642,1842.000,887.038002
1643,1843.000,877.112568
1644,1844.000,885.735539
1645,1845.000,882.717437
1646,1846.000,888.419571
1647,1847.000,886.137145
1648,1848.000,884.094177
1649,1849.000,881.39373
1650,1850.000,878.693283
1651,1851.000,880.364927
1652,1852.000,879.3272485
1653,1853.000,878.28957
1654,1854.000,886.522181
1655,1855.000,867.756822
1656,1856.000,881.029892
1657,1857.000,877.806375
1658,1858.000,879.797777
1659,1859.000,875.874318
1660,1860.000,881.521798
1661,1861.000,888.181712
1662,1862.000,886.261926
1663,1863.000,887.082453
1664,1864.000,887.009099
1665,1865.000,886.935745
1666,1866.000,877.043444
1667,1867.000,872.154946
1668,1868.000,867.266448
1669,1869.000,877.419786
1670,1870.000,882.864212
1671,1871.000,871.391812
1672,1872.000,875.792956
1673,1873.000,866.634194
1674,1874.000,869.874673
1675,1875.000,873.115152
1676,1876.000,869.533095
1677,1877.000,866.49678
1678,1878.000,867.447798
1679,1879.000,876.507769
1680,1880.000,862.691314
1681,1881.000,867.418019
1682,1882.000,864.623546
1683,1883.000,868.8132115000001
1684,1884.000,873.002877
1685,1885.000,864.1696360000001
1686,1886.000,855.336395
1687,1887.000,862.081314
1688,1888.000,856.226871
1689,1889.000,862.539802
1690,1890.000,863.110049
1691,1891.000,868.216067
1692,1892.000,857.746686
1693,1893.000,866.348432
1694,1894.000,860.090348
1695,1895.000,868.360105
1696,1896.000,865.240996
1697,1897.000,862.121887
1698,1898.000,853.489587
1699,1899.000,859.437167
1700,1900.000,855.943442
1701,1901.000,845.004757
1702,1902.000,862.847828
1703,1903.000,856.683128
1704,1904.000,852.850887
1705,1905.000,858.222098
1706,1906.000,860.437812
1707,1907.000,854.216517
1708,1908.000,852.773156
1709,1909.000,845.453559
1710,1910.000,845.634661
1711,1911.000,852.677236
1712,1912.000,848.93347
1713,1913.000,858.074947
1714,1914.000,851.86883
1715,1915.000,845.955342
1716,1916.000,851.44266
1717,1917.000,849.605538
1718,1918.000,841.698783
1719,1919.000,855.442426
1720,1920.000,857.771583
1721,1921.000,850.757614
1722,1922.000,846.205835
1723,1923.000,848.618244
1724,1924.000,843.173166
1725,1925.000,853.819135
1726,1926.000,851.918409
1727,1927.000,839.724651
1728,1928.000,850.936904
1729,1929.000,837.205266
1730,1930.000,839.625783
1731,1931.000,851.212104
1732,1932.000,846.549001
1733,1933.000,839.206598
1734,1934.000,842.442736
1735,1935.000,848.440733
1736,1936.000,849.719186
1737,1937.000,840.829819
1738,1938.000,845.605318
1739,1939.000,840.661077
1740,1940.000,833.081771
1741,1941.000,847.230701
1742,1942.000,839.438081
1743,1943.000,838.081344
1744,1944.000,840.378533
1745,1945.000,847.378962
1746,1946.000,831.863443
1747,1947.000,832.4468065
1748,1948.000,833.03017
1749,1949.000,825.880131
1750,1950.000,823.074752
1751,1951.000,831.543599
1752,1952.000,840.422368
1753,1953.000,835.611434
1754,1954.000,836.865205
1755,1955.000,833.992813
1756,1956.000,831.706225
1757,1957.000,827.467931
1758,1958.000,824.456577
1759,1959.000,831.622314
1760,1960.000,840.395756
1761,1961.000,829.157207
1762,1962.000,829.883153
1763,1963.000,830.756407
1764,1964.000,827.939369
1765,1965.000,832.349475
1766,1966.000,828.482241
1767,1967.000,828.932652
1768,1968.000,827.437631
1769,1969.000,820.255502
1770,1970.000,817.273435
1771,1971.000,821.634943
1772,1972.000,810.951664
1773,1973.000,818.517993
1774,1974.000,825.726761
1775,1975.000,821.227766
1776,1976.000,829.168673
1777,1977.000,813.847016
1778,1978.000,820.750883
1779,1979.000,823.890591
1780,1980.000,821.246706
1781,1981.000,819.992215
1782,1982.000,820.188883
1783,1983.000,811.616178
1784,1984.000,820.649356
1785,1985.000,813.309778
1786,1986.000,822.640053
1787,1987.000,811.058531
1788,1988.000,805.876373
1789,1989.000,807.249181
1790,1990.000,803.386194
1791,1991.000,815.997731
1792,1992.000,803.445242
1793,1993.000,821.935616
1794,1994.000,811.985361
1795,1995.000,804.277221
1796,1996.000,807.879973
1797,1997.000,807.784544
1798,1998.000,808.309141
1799,1999.000,802.534831
1800,2000.000,813.381292
