pixel_index,raman_shift_cm-1,intensity
0,200.000,0.05105616211094127
1,201.000,0.04952124518744498
2,202.000,0.04830205391775921
3,203.000,0.04736476862477939
4,204.000,0.04667556963140094
5,205.000,0.04620063726051929
6,206.000,0.04598616033297595
7,207.000,0.04626597720597135
8,208.000,0.04653228104912025
9,209.000,0.044768444409973414
10,210.000,0.0444661345283427
11,211.000,0.04522886438135013
12,212.000,0.04463311750757246
13,213.000,0.042706107697321
14,214.000,0.04113420463501339
15,215.000,0.040901747961612694
16,216.000,0.040182589936046224
17,217.000,0.040599557688382956
18,218.000,0.04216893411675185
19,219.000,0.042590477328877774
20,220.000,0.0418524610724896
21,221.000,0.04495833055490761
22,222.000,0.04750180289571608
23,223.000,0.049130576964319085
24,224.000,0.05067112699898712
25,225.000,0.05164583643155199
26,226.000,0.05021781751998898
27,227.000,0.04887841811232085
28,228.000,0.04929697712835568
29,229.000,0.04746963152621007
30,230.000,0.04550641414967234
31,231.000,0.04729270659004621
32,232.000,0.047530028108295874
33,233.000,0.04872132137497077
34,234.000,0.04899870150110034
35,235.000,0.04845407053427743
36,236.000,0.04635585655971452
37,237.000,0.04467252915521312
38,238.000,0.04444249301822747
39,239.000,0.04316008371009628
40,240.000,0.04364361048816363
41,241.000,0.04471366969407791
42,242.000,0.044121737880249506
43,243.000,0.04429266905391232
44,244.000,0.0450093341574867
45,245.000,0.04599715922242343
46,246.000,0.04765668500779851
47,247.000,0.049153104866366926
48,248.000,0.05031741684287234
49,249.000,0.0521819176461216
50,250.000,0.054184162793970564
51,251.000,0.054584414052090205
52,252.000,0.05529479650165586
53,253.000,0.054887910791727994
54,254.000,0.05623994045618659
55,255.000,0.05587190693071175
56,256.000,0.05515537087984072
57,257.000,0.053464706857394746
58,258.000,0.0509059532686169
59,259.000,0.04794011099737099
60,260.000,0.046289708307798785
61,261.000,0.04579259365958916
62,262.000,0.04728561752729044
63,263.000,0.04865615810934023
64,264.000,0.05447534097950901
65,265.000,0.05627342265038605
66,266.000,0.05695734588469426
67,267.000,0.05805733355792485
68,268.000,0.0558829303925766
69,269.000,0.054810362024350995
70,270.000,0.052902210569547116
71,271.000,0.05219991601538468
72,272.000,0.05269822192447221
73,273.000,0.0531712482189861
74,274.000,0.05428184123529856
75,275.000,0.05316958777810421
76,276.000,0.051550224192400726
77,277.000,0.04989116321782255
78,278.000,0.04898083767464921
79,279.000,0.04936461961951511
80,280.000,0.04932258143487588
81,281.000,0.05149646417577445
82,282.000,0.05414289252470188
83,283.000,0.055682575743438635
84,284.000,0.05613049910569884
85,285.000,0.05606282169611622
86,286.000,0.05577192535253096
87,287.000,0.05714378857673399
88,288.000,0.057618169423039864
89,289.000,0.05806124291455321
90,290.000,0.05769232837002414
91,291.000,0.05681132971739305
92,292.000,0.057143444101227694
93,293.000,0.05793067992508897
94,294.000,0.05756539698523427
95,295.000,0.05643615295704701
96,296.000,0.05885098537851235
97,297.000,0.060135917325184474
98,298.000,0.05878353854944133
99,299.000,0.05904234987402568
100,300.000,0.05816334290268715
101,301.000,0.057770578104273856
102,302.000,0.0581426210027511
103,303.000,0.056580187776713836
104,304.000,0.054258600368319865
105,305.000,0.053063514726069225
106,306.000,0.055044840714124986
107,307.000,0.0558527519937345
108,308.000,0.05519868116107906
109,309.000,0.056437137689293364
110,310.000,0.05930202120708054
111,311.000,0.05929825623924824
112,312.000,0.060338234283995165
113,313.000,0.05909147885879255
114,314.000,0.05894487528826914
115,315.000,0.061348996001502676
116,316.000,0.061682662816115744
117,317.000,0.061021020292303566
118,318.000,0.05767501994410552
119,319.000,0.05620754434151194
120,320.000,0.05629515836503914
121,321.000,0.054123425343416784
122,322.000,0.05333658008765748
123,323.000,0.051662987999901704
124,324.000,0.053377324046046344
125,325.000,0.056270069546441974
126,326.000,0.05774228797503625
127,327.000,0.05844010809067805
128,328.000,0.05697420108983785
129,329.000,0.05789294581007744
130,330.000,0.05729051989482338
131,331.000,0.05615269669903223
132,332.000,0.05628207185158593
133,333.000,0.054442867447066494
134,334.000,0.056674049943126976
135,335.000,0.05897626546880081
136,336.000,0.0619642038666816
137,337.000,0.06267974747365834
138,338.000,0.061538452690780794
139,339.000,0.06336992693344129
140,340.000,0.06114699528956389
141,341.000,0.06273482783606181
142,342.000,0.06458534469045318
143,343.000,0.06342048297668039
144,344.000,0.06330077545433051
145,345.000,0.06320173102311641
146,346.000,0.062062413066533845
147,347.000,0.06114413933722765
148,348.000,0.060607850908407694
149,349.000,0.05844802404597986
150,350.000,0.05699965333943924
151,351.000,0.05901400281106721
152,352.000,0.05987010956799307
153,353.000,0.058187406111539025
154,354.000,0.055580576947442506
155,355.000,0.052890115888663124
156,356.000,0.05117609692572224
157,357.000,0.0523646146292268
158,358.000,0.0530252780246284
159,359.000,0.05176164905141046
160,360.000,0.05468627616864176
161,361.000,0.05867690183559737
162,362.000,0.06213729400417741
163,363.000,0.06357181534358569
164,364.000,0.06451868029222987
165,365.000,0.0641771366937636
166,366.000,0.06502986342954305
167,367.000,0.06363081107473366
168,368.000,0.06159525801764917
169,369.000,0.05735438755730787
170,370.000,0.05444831438504331
171,371.000,0.054441261399231174
172,372.000,0.055663225393998844
173,373.000,0.05564662741789227
174,374.000,0.05685153543913404
175,375.000,0.05867376700996936
176,376.000,0.060956619111545166
177,377.000,0.05978276848999236
178,378.000,0.060841093668101864
179,379.000,0.05795257878989424
180,380.000,0.056325379052333334
181,381.000,0.05630561096940715
182,382.000,0.055489667782029
183,383.000,0.05483404583245441
184,384.000,0.053611412570320725
185,385.000,0.05475641327680183
186,386.000,0.054864078865189465
187,387.000,0.0549857388316882
188,388.000,0.05447773444086004
189,389.000,0.05396269988775328
190,390.000,0.05401952704626979
191,391.000,0.05329691296017562
192,392.000,0.05232906621486088
193,393.000,0.05210002682368513
194,394.000,0.05158209115281748
195,395.000,0.05219800805817493
196,396.000,0.05334914736156677
197,397.000,0.05514675903263023
198,398.000,0.05630340557621601
199,399.000,0.0576182958684324
200,400.000,0.05871741695250419
201,401.000,0.05908409104658037
202,402.000,0.058800870328098075
203,403.000,0.05659453970579281
204,404.000,0.05580981000405028
205,405.000,0.05357138141903412
206,406.000,0.05453521217029991
207,407.000,0.056116169732813304
208,408.000,0.05585379472989733
209,409.000,0.05693700166846619
210,410.000,0.05898082894424306
211,411.000,0.06301894526174882
212,412.000,0.06609530602585524
213,413.000,0.06508077495787186
214,414.000,0.0643982699435179
215,415.000,0.060256819542846965
216,416.000,0.05897000750754574
217,417.000,0.059138148651923926
218,418.000,0.056909385752807
219,419.000,0.057125165904777786
220,420.000,0.05622048773463743
221,421.000,0.05735873590967062
222,422.000,0.05595246815635333
223,423.000,0.05218342839635574
224,424.000,0.04975627524818475
225,425.000,0.04687723490367456
226,426.000,0.04809573630264787
227,427.000,0.05005228019577756
228,428.000,0.05047253276000208
229,429.000,0.05205496091116307
230,430.000,0.0539488005554717
231,431.000,0.056069950268315634
232,432.000,0.05632675643569994
233,433.000,0.05686572537499341
234,434.000,0.05856182281423169
235,435.000,0.05712810438696302
236,436.000,0.05599234018163175
237,437.000,0.054872959986221645
238,438.000,0.05101542499697245
239,439.000,0.05012715868323515
240,440.000,0.05044410363786593
241,441.000,0.050495200668026166
242,442.000,0.049640823911997624
243,443.000,0.05175910897067924
244,444.000,0.05404201574753281
245,445.000,0.05431403689187075
246,446.000,0.05645024363068695
247,447.000,0.058459092833029164
248,448.000,0.05878779954130593
249,449.000,0.059241129096738336
250,450.000,0.0597947648635974
251,451.000,0.05684469327818334
252,452.000,0.05476952271812219
253,453.000,0.054302544208559504
254,454.000,0.052677080312690576
255,455.000,0.052449825815752305
256,456.000,0.051937036006290356
257,457.000,0.05129494235482163
258,458.000,0.05071554095067591
259,459.000,0.05026529474119895
260,460.000,0.04939829953966121
261,461.000,0.0487835191292198
262,462.000,0.049970353336878465
263,463.000,0.04958795951675318
264,464.000,0.05190635175367928
265,465.000,0.05425691258663803
266,466.000,0.054403252111873454
267,467.000,0.054741401885313505
268,468.000,0.05537067264519365
269,469.000,0.056609006836471513
270,470.000,0.05489841551826697
271,471.000,0.05429087974829748
272,472.000,0.052416848081167595
273,473.000,0.052680331642575906
274,474.000,0.052774144580761934
275,475.000,0.0516307376301467
276,476.000,0.050287125514646695
277,477.000,0.0516166614996873
278,478.000,0.05342746314130129
279,479.000,0.056895199686189765
280,480.000,0.05800656810532503
281,481.000,0.05860847721570209
282,482.000,0.05628494696273783
283,483.000,0.05552029804818964
284,484.000,0.05318939791639109
285,485.000,0.052529909105313716
286,486.000,0.05317594850564685
287,487.000,0.054208476344576255
288,488.000,0.055038901281523056
289,489.000,0.05686331988812934
290,490.000,0.056926608205733274
291,491.000,0.055779037324526305
292,492.000,0.05359329655263674
293,493.000,0.05157774364163133
294,494.000,0.049806448153889724
295,495.000,0.05001470938578243
296,496.000,0.049716910991566006
297,497.000,0.049589793754587046
298,498.000,0.05041210039723997
299,499.000,0.05138786244256511
300,500.000,0.051794241038323995
301,501.000,0.05326362409443043
302,502.000,0.054640857937476875
303,503.000,0.05346495397048133
304,504.000,0.05153313194748661
305,505.000,0.05003318858297291
306,506.000,0.04722005611148643
307,507.000,0.0457066574123965
308,508.000,0.044019061325522225
309,509.000,0.043063727854159344
310,510.000,0.04421657401262209
311,511.000,0.048140964265716055
312,512.000,0.04950893010011512
313,513.000,0.05176496119805294
314,514.000,0.05022714708345309
315,515.000,0.050551183910977786
316,516.000,0.050190688522753615
317,517.000,0.048144543625342054
318,518.000,0.047340591531223324
319,519.000,0.04669462542947385
320,520.000,0.04750591500792327
321,521.000,0.04895166899917154
322,522.000,0.0491455280661827
323,523.000,0.0507342936923996
324,524.000,0.050379571532274486
325,525.000,0.05348742737038283
326,526.000,0.05454365117134407
327,527.000,0.05274149028029989
328,528.000,0.0537860173917294
329,529.000,0.05138057287665627
330,530.000,0.04942317713591334
331,531.000,0.048950836403522775
332,532.000,0.049699369030471265
333,533.000,0.049726935755798375
334,534.000,0.048792138118444864
335,535.000,0.04970479873685408
336,536.000,0.04908939892849491
337,537.000,0.0483992154330083
338,538.000,0.048705377708682884
339,539.000,0.046672818292417845
340,540.000,0.0479063566191412
341,541.000,0.048706553522794946
342,542.000,0.049944430425702534
343,543.000,0.05012209796103445
344,544.000,0.048979876496287864
345,545.000,0.05088126381495297
346,546.000,0.0513101600167565
347,547.000,0.051031352810543995
348,548.000,0.048567220137744116
349,549.000,0.046275277853369746
350,550.000,0.04658666623608097
351,551.000,0.045420893488641825
352,552.000,0.04495970341534417
353,553.000,0.04420092325943203
354,554.000,0.042928322637769016
355,555.000,0.04348924513300712
356,556.000,0.04350397370861862
357,557.000,0.04480732802822012
358,558.000,0.04348403703499519
359,559.000,0.04407088327514916
360,560.000,0.04534784162851691
361,561.000,0.04593658642683124
362,562.000,0.04571001524206757
363,563.000,0.044735823829966014
364,564.000,0.043188797933555484
365,565.000,0.043134209959322885
366,566.000,0.04309245442693681
367,567.000,0.04393504239578842
368,568.000,0.04202014404975906
369,569.000,0.04227559187413033
370,570.000,0.04339696194200868
371,571.000,0.0445307420290147
372,572.000,0.04529323578989338
373,573.000,0.04463436386976704
374,574.000,0.04396525377917669
375,575.000,0.042198129931893556
376,576.000,0.04132993012470322
377,577.000,0.03860928016646334
378,578.000,0.03653958680132842
379,579.000,0.035628618185802645
380,580.000,0.035463167025524184
381,581.000,0.03680847365071037
382,582.000,0.03659744443567955
383,583.000,0.03763177286486691
384,584.000,0.040196259264711466
385,585.000,0.04196400411775842
386,586.000,0.045414057883692086
387,587.000,0.044704357534598727
388,588.000,0.04484361588333725
389,589.000,0.04543571728216379
390,590.000,0.0435240296821193
391,591.000,0.043873539643359924
392,592.000,0.040898748082095635
393,593.000,0.041561012148804866
394,594.000,0.042863383829489225
395,595.000,0.044494237574669165
396,596.000,0.0474174286652529
397,597.000,0.04861365332017878
398,598.000,0.05060978425041752
399,599.000,0.0526193014879514
400,600.000,0.054480143841428436
401,601.000,0.057623585577306145
402,602.000,0.05775854737574873
403,603.000,0.059712929685750045
404,604.000,0.060118064280226265
405,605.000,0.061390466237274406
406,606.000,0.06194217963853117
407,607.000,0.062478711157894204
408,608.000,0.06099530098750318
409,609.000,0.06228906498452764
410,610.000,0.06934582304555466
411,611.000,0.07670852604558372
412,612.000,0.08573213941958974
413,613.000,0.09829998952074903
414,614.000,0.115696130307799
415,615.000,0.13938064798139765
416,616.000,0.16345196856142105
417,617.000,0.1866686215743274
418,618.000,0.20449490097006515
419,619.000,0.21982796812790534
420,620.000,0.22581683516689166
421,621.000,0.2181897319738496
422,622.000,0.202720473855508
423,623.000,0.18225158687830634
424,624.000,0.1599431554051597
425,625.000,0.1384112640846986
426,626.000,0.11825470418857337
427,627.000,0.10108964020367077
428,628.000,0.08931606768417719
429,629.000,0.08225676377764936
430,630.000,0.07307089989616816
431,631.000,0.06616460662287393
432,632.000,0.06257560193486394
433,633.000,0.060679033071982066
434,634.000,0.059437692075671206
435,635.000,0.05562906403567466
436,636.000,0.05253425448333019
437,637.000,0.05021728108675146
438,638.000,0.04711492445238603
439,639.000,0.045751142906658424
440,640.000,0.042690995473744525
441,641.000,0.0405487180925359
442,642.000,0.040935111480185346
443,643.000,0.0414577219025405
444,644.000,0.040724785083101754
445,645.000,0.03835646222983339
446,646.000,0.03797594363067813
447,647.000,0.03843796624205152
448,648.000,0.03774384705536498
449,649.000,0.037667099709662984
450,650.000,0.037421260060477135
451,651.000,0.038540542475157064
452,652.000,0.04118088808680716
453,653.000,0.04133612233380044
454,654.000,0.040945747508290234
455,655.000,0.041453394047455
456,656.000,0.042080242441760105
457,657.000,0.04116048486640542
458,658.000,0.03920283163319259
459,659.000,0.03504477682491637
460,660.000,0.03337215577931959
461,661.000,0.03530716201226491
462,662.000,0.03667648171304524
463,663.000,0.038656288406353094
464,664.000,0.039769382843032296
465,665.000,0.03954551551123689
466,666.000,0.03960267948338971
467,667.000,0.038447362795065096
468,668.000,0.03677756557883605
469,669.000,0.03446090453300542
470,670.000,0.03263562123360086
471,671.000,0.03269050474450937
472,672.000,0.03228495066561475
473,673.000,0.03413159973349267
474,674.000,0.035864580214311374
475,675.000,0.03529791170706991
476,676.000,0.03705540302992026
477,677.000,0.03622851592223625
478,678.000,0.03688126578934412
479,679.000,0.03663675282218551
480,680.000,0.033596759940981
481,681.000,0.032556173804494805
482,682.000,0.03262899287781304
483,683.000,0.03174504731938206
484,684.000,0.03286451416434967
485,685.000,0.03149806834193845
486,686.000,0.029716783366417095
487,687.000,0.028240699275568024
488,688.000,0.03006173119142578
489,689.000,0.028947473496962577
490,690.000,0.029109509954474654
491,691.000,0.030471712172289462
492,692.000,0.030244380350949125
493,693.000,0.026979705506440393
494,694.000,0.02834532730790046
495,695.000,0.028944178566997793
496,696.000,0.029118613651495453
497,697.000,0.031539614121959186
498,698.000,0.032803441318478774
499,699.000,0.03227458036825852
500,700.000,0.034520100048415575
501,701.000,0.03115177732710943
502,702.000,0.028873310150159124
503,703.000,0.026034403994574247
504,704.000,0.025466867379920304
505,705.000,0.027143974147095653
506,706.000,0.02825068807941469
507,707.000,0.029866932402282262
508,708.000,0.03214438207825461
509,709.000,0.0317454652185998
510,710.000,0.03261805066637358
511,711.000,0.03084573443831704
512,712.000,0.03243436961048182
513,713.000,0.032672890513936244
514,714.000,0.03321655576582281
515,715.000,0.03420103726008358
516,716.000,0.03408529032541579
517,717.000,0.03472608101797044
518,718.000,0.03456458804220001
519,719.000,0.03241867791217537
520,720.000,0.031210804166179627
521,721.000,0.030182967505291633
522,722.000,0.029575098570150532
523,723.000,0.02856367295870922
524,724.000,0.028836920692851455
525,725.000,0.026335118629167074
526,726.000,0.026911308635018123
527,727.000,0.02640399024466641
528,728.000,0.026657054874771026
529,729.000,0.02793932687031549
530,730.000,0.0266862040026578
531,731.000,0.027471144282373083
532,732.000,0.026603414818991818
533,733.000,0.0265936479036662
534,734.000,0.027802314640945465
535,735.000,0.02604124737503455
536,736.000,0.02561481817659634
537,737.000,0.02382689097334785
538,738.000,0.0234361708536701
539,739.000,0.02372938195890554
540,740.000,0.020749334162023108
541,741.000,0.020960637866278102
542,742.000,0.019703447186545403
543,743.000,0.020591833223946223
544,744.000,0.020896929950121997
545,745.000,0.020860223517987445
546,746.000,0.02137184279121996
547,747.000,0.020892116979839063
548,748.000,0.02220997051065021
549,749.000,0.024794604503343524
550,750.000,0.026608618918249904
551,751.000,0.031506002798228114
552,752.000,0.03274917823681769
553,753.000,0.033302071476871795
554,754.000,0.03335528811657298
555,755.000,0.031884776292149995
556,756.000,0.029395990252373053
557,757.000,0.02433791945106901
558,758.000,0.021264158126092857
559,759.000,0.02189757717778614
560,760.000,0.024305530511528037
561,761.000,0.02888243463680618
562,762.000,0.028773970399372028
563,763.000,0.027603233474509818
564,764.000,0.027580292744740262
565,765.000,0.02660261433082055
566,766.000,0.024140486829776528
567,767.000,0.02367158831441409
568,768.000,0.023231221739725964
569,769.000,0.024867030412832707
570,770.000,0.026471902258769612
571,771.000,0.02936085253022486
572,772.000,0.030219508431950103
573,773.000,0.03080232180912975
574,774.000,0.0324458779274067
575,775.000,0.03593336382509206
576,776.000,0.03703480360692631
577,777.000,0.0397789777496984
578,778.000,0.039930079460070635
579,779.000,0.039735543843375125
580,780.000,0.03976786494014098
581,781.000,0.041843430337810156
582,782.000,0.04396339691087259
583,783.000,0.04664498628109683
584,784.000,0.049419441288809894
585,785.000,0.055036723629290435
586,786.000,0.05824942521369345
587,787.000,0.06354348483438742
588,788.000,0.07207298311621607
589,789.000,0.08119999357805423
590,790.000,0.09116431655967704
591,791.000,0.10413480450036636
592,792.000,0.11478035792608272
593,793.000,0.12605015755527185
594,794.000,0.13183440199325533
595,795.000,0.13433216754191127
596,796.000,0.13041184431741995
597,797.000,0.1254600942096122
598,798.000,0.11794239117343114
599,799.000,0.10792838541239373
600,800.000,0.09520919252978673
601,801.000,0.08600525937728906
602,802.000,0.07626292276786584
603,803.000,0.0680196820499916
604,804.000,0.05910736469105955
605,805.000,0.05252683497711007
606,806.000,0.04671766711903207
607,807.000,0.042017123596658705
608,808.000,0.03870259687854664
609,809.000,0.03482110327353585
610,810.000,0.03194625975022403
611,811.000,0.03304882569255722
612,812.000,0.03200751120254538
613,813.000,0.028640933915996834
614,814.000,0.027748151670097945
615,815.000,0.026989002621216444
616,816.000,0.02629223040593635
617,817.000,0.024862809476111646
618,818.000,0.023792419653560028
619,819.000,0.022743810813871865
620,820.000,0.023268445230461753
621,821.000,0.02340636664274493
622,822.000,0.02106253930823754
623,823.000,0.020821990813124996
624,824.000,0.021310628247387192
625,825.000,0.020770196013695143
626,826.000,0.02161949861335632
627,827.000,0.02281355286568276
628,828.000,0.021576640874972377
629,829.000,0.023616215967716285
630,830.000,0.02236688995388587
631,831.000,0.022525465335295154
632,832.000,0.021801648478541633
633,833.000,0.023223785972140816
634,834.000,0.02206316917925921
635,835.000,0.022183044430999808
636,836.000,0.022536122690066697
637,837.000,0.02329653995820329
638,838.000,0.02042995803822463
639,839.000,0.019446276920151922
640,840.000,0.01814450318876545
641,841.000,0.019340861060124406
642,842.000,0.01883145354162441
643,843.000,0.019539152219487918
644,844.000,0.0204216148545003
645,845.000,0.02148397755718417
646,846.000,0.021223804361686246
647,847.000,0.02189575081876873
648,848.000,0.019088812580436543
649,849.000,0.01680996245390597
650,850.000,0.014991996988304673
651,851.000,0.013298621843458033
652,852.000,0.013030947951796781
653,853.000,0.012972460748685665
654,854.000,0.013846415190813607
655,855.000,0.015775849903161377
656,856.000,0.018001869528285242
657,857.000,0.01882825771778091
658,858.000,0.01882392977603257
659,859.000,0.01969010217422373
660,860.000,0.020457040723603517
661,861.000,0.020472357459176724
662,862.000,0.02202854561142806
663,863.000,0.020373391283945955
664,864.000,0.021564012798491548
665,865.000,0.02296970459035583
666,866.000,0.022667117621629967
667,867.000,0.02127913540627638
668,868.000,0.02139482973748422
669,869.000,0.021858549683313237
670,870.000,0.021747170245849858
671,871.000,0.019206756467771455
672,872.000,0.01760784146672095
673,873.000,0.015192756920658624
674,874.000,0.015023929091740816
675,875.000,0.01523496904468009
676,876.000,0.01501645038551089
677,877.000,0.016308821282792874
678,878.000,0.01952724728152437
679,879.000,0.02045898052096029
680,880.000,0.020602191133543248
681,881.000,0.020414393976274533
682,882.000,0.019569036376188727
683,883.000,0.01916869513277923
684,884.000,0.01969600500828173
685,885.000,0.01937581072465947
686,886.000,0.017752621375395482
687,887.000,0.01620059863441752
688,888.000,0.015977176630959163
689,889.000,0.014113101897941469
690,890.000,0.013232206946403278
691,891.000,0.012228114504788227
692,892.000,0.010722996180938997
693,893.000,0.009992967514989747
694,894.000,0.011348001646640146
695,895.000,0.011905150539483576
696,896.000,0.013137291620746542
697,897.000,0.012374090725813117
698,898.000,0.012652167536517633
699,899.000,0.01266555045895283
700,900.000,0.014192056600848895
701,901.000,0.015421620856782059
702,902.000,0.017087163360530094
703,903.000,0.01738415809531505
704,904.000,0.019633728396948207
705,905.000,0.022388614336329823
706,906.000,0.0234944743466669
707,907.000,0.020484618842181238
708,908.000,0.017553011405103822
709,909.000,0.01600881109173263
710,910.000,0.014878379848640511
711,911.000,0.014304922402052105
712,912.000,0.012676089353033822
713,913.000,0.011926808774312904
714,914.000,0.011618357003910567
715,915.000,0.01194771447847973
716,916.000,0.010797849598766155
717,917.000,0.008754000004285561
718,918.000,0.010009132000616025
719,919.000,0.011232273412878933
720,920.000,0.011383446184764404
721,921.000,0.01301562989663135
722,922.000,0.014341655577672781
723,923.000,0.015379494999611725
724,924.000,0.01428057270854578
725,925.000,0.013491526619059134
726,926.000,0.012296423884238464
727,927.000,0.012578724791978881
728,928.000,0.01519424336975365
729,929.000,0.014422466976244695
730,930.000,0.013040882305099042
731,931.000,0.013878028939679795
732,932.000,0.0136497551424186
733,933.000,0.013189104478099092
734,934.000,0.015093987780531804
735,935.000,0.01639511943530725
736,936.000,0.01713834886752694
737,937.000,0.01832381820862635
738,938.000,0.017844605377249436
739,939.000,0.016334688194469385
740,940.000,0.015495487993328214
741,941.000,0.015106994001231855
742,942.000,0.012512345339098785
743,943.000,0.01045037672371241
744,944.000,0.010525282029782345
745,945.000,0.012232333926474784
746,946.000,0.013143985875505365
747,947.000,0.014506589823558286
748,948.000,0.015214719916027965
749,949.000,0.018413325101782667
750,950.000,0.021143761090598182
751,951.000,0.021590036478256264
752,952.000,0.022114923882754104
753,953.000,0.021937005126793457
754,954.000,0.02192671776123406
755,955.000,0.02389413036404341
756,956.000,0.022071781639160893
757,957.000,0.021460078463682936
758,958.000,0.020825517703491475
759,959.000,0.020429406098768376
760,960.000,0.021402882124993427
761,961.000,0.020903365579237287
762,962.000,0.023175787376893145
763,963.000,0.024677049142699956
764,964.000,0.022519018031430086
765,965.000,0.02142963594871483
766,966.000,0.020186666217215928
767,967.000,0.019496728519528665
768,968.000,0.017991086344301736
769,969.000,0.01689935556772786
770,970.000,0.018007341157781763
771,971.000,0.019536648985956525
772,972.000,0.021883712028074927
773,973.000,0.02686742954951328
774,974.000,0.030145088886405377
775,975.000,0.03528875500336188
776,976.000,0.04082089529162453
777,977.000,0.041418029984928884
778,978.000,0.038630536500936036
779,979.000,0.03545873277365555
780,980.000,0.03274965386381416
781,981.000,0.03157646056784607
782,982.000,0.03403307647732549
783,983.000,0.03971944303415472
784,984.000,0.045344038583316745
785,985.000,0.05276801663409991
786,986.000,0.060888688763656114
787,987.000,0.06793162991968395
788,988.000,0.07434708492952785
789,989.000,0.08254321912566723
790,990.000,0.09282804513765767
791,991.000,0.10760734435348693
792,992.000,0.13004925543407134
793,993.000,0.15396308102544362
794,994.000,0.18998797959974484
795,995.000,0.2482010589046294
796,996.000,0.3589617490464739
797,997.000,0.5026461796355036
798,998.000,0.6797095288928373
799,999.000,0.8442445877392979
800,1000.000,0.9581912554130841
801,1001.000,1.0
802,1002.000,0.9595479349101219
803,1003.000,0.8458433883453047
804,1004.000,0.6824015215332303
805,1005.000,0.5066258445289356
806,1006.000,0.3653908935821087
807,1007.000,0.25574543811148837
808,1008.000,0.1991515573593206
809,1009.000,0.16435592127450058
810,1010.000,0.1415218894440115
811,1011.000,0.12191430935470264
812,1012.000,0.10644958401691032
813,1013.000,0.09555884686747303
814,1014.000,0.0875484946300874
815,1015.000,0.08211760501533256
816,1016.000,0.07785574107658927
817,1017.000,0.07613528228046691
818,1018.000,0.07802637883090636
819,1019.000,0.08054139846162205
820,1020.000,0.0855059842635123
821,1021.000,0.08867515776074937
822,1022.000,0.0948107316045356
823,1023.000,0.10391556262084005
824,1024.000,0.12440238383908421
825,1025.000,0.1526754816085703
826,1026.000,0.19991141080664515
827,1027.000,0.26066012667000243
828,1028.000,0.3312322339829861
829,1029.000,0.39559161385352787
830,1030.000,0.4417604567620585
831,1031.000,0.4577240907364063
832,1032.000,0.440300186947696
833,1033.000,0.3929092663277694
834,1034.000,0.3307306550827352
835,1035.000,0.2586505814719115
836,1036.000,0.1965980773233499
837,1037.000,0.1454965318837603
838,1038.000,0.11360614477939734
839,1039.000,0.09454582656377389
840,1040.000,0.07937384035815662
841,1041.000,0.06901112560346216
842,1042.000,0.059366298419841736
843,1043.000,0.05115537534076719
844,1044.000,0.048032503860202205
845,1045.000,0.04317163912002745
846,1046.000,0.03900122451495011
847,1047.000,0.03576039869605066
848,1048.000,0.0335661663281063
849,1049.000,0.03194628507582714
850,1050.000,0.02764359308540758
851,1051.000,0.026532032197377105
852,1052.000,0.02538526076349794
853,1053.000,0.025516058944085894
854,1054.000,0.02670082868678235
855,1055.000,0.026742422763094225
856,1056.000,0.02782297878627186
857,1057.000,0.028397378527618703
858,1058.000,0.027202982226810946
859,1059.000,0.02612252274479795
860,1060.000,0.022803458022996735
861,1061.000,0.020636116258637573
862,1062.000,0.01886492290559121
863,1063.000,0.01929570324477695
864,1064.000,0.01896768972574151
865,1065.000,0.017848244253333954
866,1066.000,0.01768882993621279
867,1067.000,0.01806451093230867
868,1068.000,0.017344547336051907
869,1069.000,0.01873877910894209
870,1070.000,0.019046124647881472
871,1071.000,0.018868963402241267
872,1072.000,0.020138213707585343
873,1073.000,0.020308971452405143
874,1074.000,0.01972267909512809
875,1075.000,0.017569387732277585
876,1076.000,0.015585695256233016
877,1077.000,0.015432896203113642
878,1078.000,0.0145078444937704
879,1079.000,0.013552025315950378
880,1080.000,0.015513944381558828
881,1081.000,0.013807295373462605
882,1082.000,0.013709829598453082
883,1083.000,0.01153564333728095
884,1084.000,0.0108167228511785
885,1085.000,0.010638925254783573
886,1086.000,0.009830274254699971
887,1087.000,0.00884493815778726
888,1088.000,0.007755207965641326
889,1089.000,0.005677939170776145
890,1090.000,0.0036247881154349453
891,1091.000,0.0012294523615840216
892,1092.000,0.0028381288465261245
893,1093.000,0.004583641024330067
894,1094.000,0.008034727052983446
895,1095.000,0.013369810629451159
896,1096.000,0.014827216149731192
897,1097.000,0.015569834863005831
898,1098.000,0.015783147854193127
899,1099.000,0.014601585343792273
900,1100.000,0.01394833529066928
901,1101.000,0.01596082011600726
902,1102.000,0.01655733088866416
903,1103.000,0.01716962177973379
904,1104.000,0.019139899422291943
905,1105.000,0.01707089919564687
906,1106.000,0.014517491822619145
907,1107.000,0.012206670596099218
908,1108.000,0.011489778594316644
909,1109.000,0.013334510498468174
910,1110.000,0.01643557114304507
911,1111.000,0.01755633893109757
912,1112.000,0.017605960662486934
913,1113.000,0.017120548951950615
914,1114.000,0.017282143026736013
915,1115.000,0.016760736739888978
916,1116.000,0.018018928504674254
917,1117.000,0.01802661431674582
918,1118.000,0.018894771708697945
919,1119.000,0.019827423416080018
920,1120.000,0.019828265957881546
921,1121.000,0.018693528231985168
922,1122.000,0.01736424433235002
923,1123.000,0.0155043678113749
924,1124.000,0.016083134935373607
925,1125.000,0.019768656693304444
926,1126.000,0.020410360045577856
927,1127.000,0.02011509254693627
928,1128.000,0.017939243478784686
929,1129.000,0.015285989577926009
930,1130.000,0.013558206048862072
931,1131.000,0.013688044302967599
932,1132.000,0.015164055770041308
933,1133.000,0.01831706723504567
934,1134.000,0.022980434352232244
935,1135.000,0.02881207047026555
936,1136.000,0.028696316092564778
937,1137.000,0.030104296922116993
938,1138.000,0.027573404103082972
939,1139.000,0.025134671547776027
940,1140.000,0.02581891869912119
941,1141.000,0.02834659371786166
942,1142.000,0.03151033929228769
943,1143.000,0.03680268840853465
944,1144.000,0.03982150406547536
945,1145.000,0.0417452242596808
946,1146.000,0.04595199422409138
947,1147.000,0.054207970355109755
948,1148.000,0.06319832403974456
949,1149.000,0.0769971166552611
950,1150.000,0.09616249019903306
951,1151.000,0.11640225387644536
952,1152.000,0.13564084810202365
953,1153.000,0.1537832715856319
954,1154.000,0.16397449709714304
955,1155.000,0.16704027784376957
956,1156.000,0.16650665288966054
957,1157.000,0.15474835701402162
958,1158.000,0.13831141328257687
959,1159.000,0.11925715995551399
960,1160.000,0.10057904381841228
961,1161.000,0.0831292440577071
962,1162.000,0.06891892824997604
963,1163.000,0.06025918911343906
964,1164.000,0.0564280415856391
965,1165.000,0.05220989799612311
966,1166.000,0.05055512388698253
967,1167.000,0.047913447415799885
968,1168.000,0.04537058813568198
969,1169.000,0.0458314407389844
970,1170.000,0.045457481364624096
971,1171.000,0.043441235132150514
972,1172.000,0.044981840312515724
973,1173.000,0.04618641936763407
974,1174.000,0.05041757681190641
975,1175.000,0.05546159628515284
976,1176.000,0.06299410352631303
977,1177.000,0.07443718013895842
978,1178.000,0.08740985203276913
979,1179.000,0.10286780876756887
980,1180.000,0.11535848305044083
981,1181.000,0.1263786859373693
982,1182.000,0.13508294515369385
983,1183.000,0.13602330708312513
984,1184.000,0.13276861728459374
985,1185.000,0.126129365560965
986,1186.000,0.1138011459691593
987,1187.000,0.10114601547081105
988,1188.000,0.08490490789666652
989,1189.000,0.06876927756919667
990,1190.000,0.056968300143744724
991,1191.000,0.048031895911183474
992,1192.000,0.04144372296795113
993,1193.000,0.0354030198431978
994,1194.000,0.031165987146125642
995,1195.000,0.02810924064666213
996,1196.000,0.025240054216784907
997,1197.000,0.022285868878335263
998,1198.000,0.01968423973133739
999,1199.000,0.018115830265017906
1000,1200.000,0.01991385152053893
1001,1201.000,0.01770107059275282
1002,1202.000,0.018879322956478525
1003,1203.000,0.017762518606548355
1004,1204.000,0.017345776225950776
1005,1205.000,0.01621530051175646
1006,1206.000,0.015952938443213018
1007,1207.000,0.016445001959674136
1008,1208.000,0.01833842444841191
1009,1209.000,0.019020359225325082
1010,1210.000,0.01974084425489915
1011,1211.000,0.017195569512163472
1012,1212.000,0.016736193688850067
1013,1213.000,0.014665623009327779
1014,1214.000,0.013199833611157084
1015,1215.000,0.01094645977018396
1016,1216.000,0.009187902208753297
1017,1217.000,0.010164813177522354
1018,1218.000,0.010306035878630243
1019,1219.000,0.009858106147777075
1020,1220.000,0.012657971233155823
1021,1221.000,0.011278359459363603
1022,1222.000,0.0122435241150342
1023,1223.000,0.012223680463045885
1024,1224.000,0.012930246608336604
1025,1225.000,0.011586442890147826
1026,1226.000,0.011414784066777912
1027,1227.000,0.012790722710525518
1028,1228.000,0.011320819144295807
1029,1229.000,0.01192976788749156
1030,1230.000,0.015032008040214088
1031,1231.000,0.013392971538927094
1032,1232.000,0.014563748784392339
1033,1233.000,0.014169365038823867
1034,1234.000,0.01395706277162133
1035,1235.000,0.010896931635102237
1036,1236.000,0.009717765755645556
1037,1237.000,0.008451318365676886
1038,1238.000,0.007706929167506831
1039,1239.000,0.009674113072134786
1040,1240.000,0.011340480658635469
1041,1241.000,0.010911800410914583
1042,1242.000,0.012359291254077831
1043,1243.000,0.013517621232174178
1044,1244.000,0.012372654511932918
1045,1245.000,0.012791818083942485
1046,1246.000,0.014024787830648743
1047,1247.000,0.012129506897071094
1048,1248.000,0.011501372374878815
1049,1249.000,0.010808137977461642
1050,1250.000,0.009823603144149502
1051,1251.000,0.008567650619809393
1052,1252.000,0.009558952279795896
1053,1253.000,0.010937707169422823
1054,1254.000,0.01104735021601524
1055,1255.000,0.012902804807437298
1056,1256.000,0.013593314420078021
1057,1257.000,0.012053994320750288
1058,1258.000,0.011897371071444446
1059,1259.000,0.012034529757212363
1060,1260.000,0.01164505931335547
1061,1261.000,0.011271764137560371
1062,1262.000,0.010149886336443656
1063,1263.000,0.009786967396787983
1064,1264.000,0.00915314256907778
1065,1265.000,0.008797075072634537
1066,1266.000,0.010811176373407288
1067,1267.000,0.01032729969738692
1068,1268.000,0.011318357186239844
1069,1269.000,0.010602911646604147
1070,1270.000,0.011621394999419351
1071,1271.000,0.011081062730463926
1072,1272.000,0.00925716097524933
1073,1273.000,0.009807238598851211
1074,1274.000,0.008998465173181706
1075,1275.000,0.009909498020509033
1076,1276.000,0.012278935489673853
1077,1277.000,0.010073648893121045
1078,1278.000,0.01222398684678853
1079,1279.000,0.01116020836398036
1080,1280.000,0.013527141719020749
1081,1281.000,0.014235876079311656
1082,1282.000,0.014066009502923511
1083,1283.000,0.01389474863026985
1084,1284.000,0.012020361305073318
1085,1285.000,0.012869102177216414
1086,1286.000,0.012892752583815703
1087,1287.000,0.011633867389047151
1088,1288.000,0.01422476638305841
1089,1289.000,0.014159709251050603
1090,1290.000,0.013507145387070122
1091,1291.000,0.01411789590479735
1092,1292.000,0.013900731535848572
1093,1293.000,0.012446787058840102
1094,1294.000,0.012603848591657479
1095,1295.000,0.01107067771080222
1096,1296.000,0.012530529202813723
1097,1297.000,0.012655073003773951
1098,1298.000,0.01362171409334395
1099,1299.000,0.011902934738619102
1100,1300.000,0.010287296185716764
1101,1301.000,0.01043267071889817
1102,1302.000,0.009051782501969356
1103,1303.000,0.007115569634704845
1104,1304.000,0.005839579781901651
1105,1305.000,0.0057986129108862725
1106,1306.000,0.0098225095732964
1107,1307.000,0.010884180857720839
1108,1308.000,0.01144483540906607
1109,1309.000,0.013520379128356177
1110,1310.000,0.016435097213051118
1111,1311.000,0.018060763282383267
1112,1312.000,0.017186989469357376
1113,1313.000,0.017286157553551663
1114,1314.000,0.015714082811252222
1115,1315.000,0.01613469927163427
1116,1316.000,0.01577894832394
1117,1317.000,0.014300142695473014
1118,1318.000,0.01308352161756542
1119,1319.000,0.012467937094296116
1120,1320.000,0.012006939096140316
1121,1321.000,0.010411374554937859
1122,1322.000,0.007708340874585184
1123,1323.000,0.008545991721232717
1124,1324.000,0.007387015689376726
1125,1325.000,0.009621147565638003
1126,1326.000,0.010673121854901524
1127,1327.000,0.011177375395506419
1128,1328.000,0.012703256547322088
1129,1329.000,0.012803158762482995
1130,1330.000,0.014079478788005927
1131,1331.000,0.012417046225102464
1132,1332.000,0.009837441022288687
1133,1333.000,0.010459021629490358
1134,1334.000,0.01038608514830842
1135,1335.000,0.011338898539434978
1136,1336.000,0.011648996076116516
1137,1337.000,0.011304063800237093
1138,1338.000,0.012259365971959786
1139,1339.000,0.013337626311707075
1140,1340.000,0.013946518564632233
1141,1341.000,0.013085086090201533
1142,1342.000,0.013336620430741564
1143,1343.000,0.01600769717510579
1144,1344.000,0.018040592120155435
1145,1345.000,0.01736158212116127
1146,1346.000,0.018146476865486674
1147,1347.000,0.014888836876436808
1148,1348.000,0.012968661852090179
1149,1349.000,0.00898291942546369
1150,1350.000,0.005576126923230536
1151,1351.000,0.005031872386193846
1152,1352.000,0.007112911911417024
1153,1353.000,0.010350956319588381
1154,1354.000,0.01633738431320364
1155,1355.000,0.019244624154192393
1156,1356.000,0.020843503112296866
1157,1357.000,0.018021277239176653
1158,1358.000,0.015411166350959966
1159,1359.000,0.009671735769069783
1160,1360.000,0.005027346718264105
1161,1361.000,0.001998456597163518
1162,1362.000,0.0
1163,1363.000,0.001505440194864609
1164,1364.000,0.005555803025264464
1165,1365.000,0.006965081687156632
1166,1366.000,0.007324383992803074
1167,1367.000,0.006241537106572603
1168,1368.000,0.004684199408998396
1169,1369.000,0.004722771542224822
1170,1370.000,0.006127822201317843
1171,1371.000,0.007806165364102421
1172,1372.000,0.008883603632007546
1173,1373.000,0.011227203040582417
1174,1374.000,0.013710846168134666
1175,1375.000,0.013950679025141926
1176,1376.000,0.01370871769065497
1177,1377.000,0.010216575925352656
1178,1378.000,0.007809926981043925
1179,1379.000,0.009010325725516822
1180,1380.000,0.01215381234657275
1181,1381.000,0.012585551850052019
1182,1382.000,0.015153716367534155
1183,1383.000,0.01672408467272686
1184,1384.000,0.019722125638276935
1185,1385.000,0.020939299948733905
1186,1386.000,0.021902487749503576
1187,1387.000,0.018945762739287705
1188,1388.000,0.01679607443860138
1189,1389.000,0.0168661169005709
1190,1390.000,0.01494134135573913
1191,1391.000,0.009598586717288072
1192,1392.000,0.009543635449803068
1193,1393.000,0.00652282068341574
1194,1394.000,0.008558009534153395
1195,1395.000,0.01001367561584914
1196,1396.000,0.012949525950528536
1197,1397.000,0.014292215338755916
1198,1398.000,0.016990934269520117
1199,1399.000,0.019819657053020728
1200,1400.000,0.020291604873616993
1201,1401.000,0.01821077673029517
1202,1402.000,0.01972409954572717
1203,1403.000,0.01750653332769309
1204,1404.000,0.01857149910444151
1205,1405.000,0.016826576746002478
1206,1406.000,0.015899097881004
1207,1407.000,0.015060516785518632
1208,1408.000,0.01669062713055113
1209,1409.000,0.017600141039750473
1210,1410.000,0.016787247614204345
1211,1411.000,0.01675962502225574
1212,1412.000,0.01911683569974788
1213,1413.000,0.019012388595321828
1214,1414.000,0.019801338107289884
1215,1415.000,0.018829929732220585
1216,1416.000,0.02105156567576346
1217,1417.000,0.02234169109664814
1218,1418.000,0.022668510371308924
1219,1419.000,0.023859939319978218
1220,1420.000,0.02465805619662096
1221,1421.000,0.027455416017585152
1222,1422.000,0.028447665565823666
1223,1423.000,0.028911012382556216
1224,1424.000,0.03100725432674528
1225,1425.000,0.03194341586456353
1226,1426.000,0.03418320627080647
1227,1427.000,0.03317836668502895
1228,1428.000,0.03155259676217893
1229,1429.000,0.03408539544920282
1230,1430.000,0.03846823829647209
1231,1431.000,0.04309402274361339
1232,1432.000,0.04438033605559401
1233,1433.000,0.048857587437136814
1234,1434.000,0.05393317510373541
1235,1435.000,0.058305063568701715
1236,1436.000,0.06372468194553264
1237,1437.000,0.07114648614554143
1238,1438.000,0.07896267548564918
1239,1439.000,0.08966719051668229
1240,1440.000,0.10292972922431852
1241,1441.000,0.11690647626936318
1242,1442.000,0.129644495921625
1243,1443.000,0.14662117545853287
1244,1444.000,0.16404588726414157
1245,1445.000,0.1853704109531666
1246,1446.000,0.20766970151604702
1247,1447.000,0.2309049239376457
1248,1448.000,0.24742286032985417
1249,1449.000,0.26044780466474765
1250,1450.000,0.2681151455332099
1251,1451.000,0.2665663430284103
1252,1452.000,0.2509096606413416
1253,1453.000,0.23056414522267107
1254,1454.000,0.20906330928668915
1255,1455.000,0.18492571114309214
1256,1456.000,0.16185876388032674
1257,1457.000,0.14073273051223983
1258,1458.000,0.12113013516624245
1259,1459.000,0.1079686671870581
1260,1460.000,0.09875733110756636
1261,1461.000,0.08981287438308158
1262,1462.000,0.07688685399412203
1263,1463.000,0.06904544187292323
1264,1464.000,0.06418914895494485
1265,1465.000,0.05765052288362313
1266,1466.000,0.050354174025814276
1267,1467.000,0.04629887428776214
1268,1468.000,0.04120276062275776
1269,1469.000,0.03759299948482645
1270,1470.000,0.036540122044956734
1271,1471.000,0.035966878145821585
1272,1472.000,0.035102161961941464
1273,1473.000,0.035022436814414123
1274,1474.000,0.036207079816097755
1275,1475.000,0.03332931722560764
1276,1476.000,0.031336196767754274
1277,1477.000,0.03281702865171882
1278,1478.000,0.028817137202605453
1279,1479.000,0.028214738838113346
1280,1480.000,0.0266446092465367
1281,1481.000,0.025680127290184568
1282,1482.000,0.026842540327453205
1283,1483.000,0.028180890633045057
1284,1484.000,0.02911469168520262
1285,1485.000,0.025710534381819333
1286,1486.000,0.02584939357651126
1287,1487.000,0.026346122104587717
1288,1488.000,0.022880779729725152
1289,1489.000,0.02314731637233943
1290,1490.000,0.019882975751350056
1291,1491.000,0.018256484449725115
1292,1492.000,0.01844315731698526
1293,1493.000,0.018610244964754562
1294,1494.000,0.017836552550297435
1295,1495.000,0.01636688315095458
1296,1496.000,0.018072153939554993
1297,1497.000,0.02012919914360977
1298,1498.000,0.021833257489104488
1299,1499.000,0.02365058872865861
1300,1500.000,0.02363903155757905
1301,1501.000,0.021768154053719253
1302,1502.000,0.01862850282025031
1303,1503.000,0.016289056394051413
1304,1504.000,0.013461130839578802
1305,1505.000,0.01082268169293073
1306,1506.000,0.009429094843002726
1307,1507.000,0.009093406820679424
1308,1508.000,0.010516737617166188
1309,1509.000,0.011403635560706338
1310,1510.000,0.013515894814569586
1311,1511.000,0.01420693122836467
1312,1512.000,0.013615945076209397
1313,1513.000,0.013515926004342376
1314,1514.000,0.015144965382066231
1315,1515.000,0.014537543792121861
1316,1516.000,0.013625385902781664
1317,1517.000,0.014914185285245716
1318,1518.000,0.015295661507140734
1319,1519.000,0.01597309826554927
1320,1520.000,0.018024943741661633
1321,1521.000,0.019666020303813668
1322,1522.000,0.021113466574152185
1323,1523.000,0.021852331135382857
1324,1524.000,0.02509788478563376
1325,1525.000,0.026232670790382776
1326,1526.000,0.027500616984733765
1327,1527.000,0.027051015814326774
1328,1528.000,0.025232875392567102
1329,1529.000,0.023802920002272982
1330,1530.000,0.024400584230698096
1331,1531.000,0.022313139522603057
1332,1532.000,0.02406072165194488
1333,1533.000,0.022294314950326213
1334,1534.000,0.020431060338560184
1335,1535.000,0.019934573855679084
1336,1536.000,0.01949484677138815
1337,1537.000,0.01816565723993599
1338,1538.000,0.01868031762215029
1339,1539.000,0.020887537069121196
1340,1540.000,0.0240462823086978
1341,1541.000,0.02503268905978419
1342,1542.000,0.02666985934579027
1343,1543.000,0.025522004793709353
1344,1544.000,0.024575808253687968
1345,1545.000,0.025215853552986906
1346,1546.000,0.026828102390833487
1347,1547.000,0.028331901392347546
1348,1548.000,0.02904126561743384
1349,1549.000,0.029445587603569752
1350,1550.000,0.02989339523882901
1351,1551.000,0.029130560179795616
1352,1552.000,0.0269701237926413
1353,1553.000,0.02428694742459187
1354,1554.000,0.024960418107347993
1355,1555.000,0.025959090607586676
1356,1556.000,0.02944650978264768
1357,1557.000,0.03164989972281882
1358,1558.000,0.032299106020205956
1359,1559.000,0.03338386328862053
1360,1560.000,0.03427285924936173
1361,1561.000,0.0356179142284094
1362,1562.000,0.03683399456615173
1363,1563.000,0.03757055059124584
1364,1564.000,0.04053830604210253
1365,1565.000,0.043065301362227616
1366,1566.000,0.04415542787011118
1367,1567.000,0.04636849090924527
1368,1568.000,0.04783401151988035
1369,1569.000,0.049852906100829424
1370,1570.000,0.052743119234713254
1371,1571.000,0.058227669771512724
1372,1572.000,0.06655255214088587
1373,1573.000,0.07615384370587186
1374,1574.000,0.0861351257332633
1375,1575.000,0.09923790107663617
1376,1576.000,0.11340045584101348
1377,1577.000,0.13385773287688613
1378,1578.000,0.15812115598616747
1379,1579.000,0.18682042148809927
1380,1580.000,0.21551407103447384
1381,1581.000,0.2403062293302477
1382,1582.000,0.25944787976161415
1383,1583.000,0.26648508058709636
1384,1584.000,0.2620268733960814
1385,1585.000,0.24776651186462395
1386,1586.000,0.22668069881807093
1387,1587.000,0.20574040898857807
1388,1588.000,0.18753082806134375
1389,1589.000,0.1735377554724694
1390,1590.000,0.1644782465910611
1391,1591.000,0.16469321707969492
1392,1592.000,0.16971647408468082
1393,1593.000,0.1804774724679985
1394,1594.000,0.1977348536812682
1395,1595.000,0.22701604801765804
1396,1596.000,0.2733817565657593
1397,1597.000,0.34513428832307885
1398,1598.000,0.4283471990131144
1399,1599.000,0.5241386622581575
1400,1600.000,0.6099992355398995
1401,1601.000,0.6721514219211193
1402,1602.000,0.6957534551349646
1403,1603.000,0.6799216029961529
1404,1604.000,0.6203206406201655
1405,1605.000,0.5337503460862111
1406,1606.000,0.4377872117943297
1407,1607.000,0.3491331056541975
1408,1608.000,0.2687030092675277
1409,1609.000,0.21342756862747855
1410,1610.000,0.16776829482223782
1411,1611.000,0.137079214366584
1412,1612.000,0.1165702195761604
1413,1613.000,0.10245413551031705
1414,1614.000,0.08788456040648084
1415,1615.000,0.07784891777712123
1416,1616.000,0.07204948423398352
1417,1617.000,0.06612607152559623
1418,1618.000,0.060316449138547626
1419,1619.000,0.05704463171145337
1420,1620.000,0.052663979932061324
1421,1621.000,0.05155352104270465
1422,1622.000,0.048607732342110535
1423,1623.000,0.046052474986100794
1424,1624.000,0.04332621188819112
1425,1625.000,0.0420334615398507
1426,1626.000,0.04249240280500611
1427,1627.000,0.04020916192217075
1428,1628.000,0.03981254923155764
1429,1629.000,0.03657155159074271
1430,1630.000,0.0349792713398995
1431,1631.000,0.03446566719507333
1432,1632.000,0.03186365245158237
1433,1633.000,0.029546377279878282
1434,1634.000,0.02862369028455642
1435,1635.000,0.026558669176562216
1436,1636.000,0.025461184274737314
1437,1637.000,0.025425461978189352
1438,1638.000,0.02631972287867724
1439,1639.000,0.025977120553264208
1440,1640.000,0.02809338330477046
1441,1641.000,0.029875872364555103
1442,1642.000,0.029496280300205464
1443,1643.000,0.026576628568406604
1444,1644.000,0.026366336293318342
1445,1645.000,0.024394140012656128
1446,1646.000,0.023089325741162642
1447,1647.000,0.025561226723463146
1448,1648.000,0.027103163451219842
1449,1649.000,0.028340531574445462
1450,1650.000,0.02992663053497858
1451,1651.000,0.029482281584021313
1452,1652.000,0.028157662530204644
1453,1653.000,0.02467570359011105
1454,1654.000,0.025108611556537465
1455,1655.000,0.024573753496350517
1456,1656.000,0.023783224067929393
1457,1657.000,0.024173467980471954
1458,1658.000,0.02550731435344149
1459,1659.000,0.026067500286637676
1460,1660.000,0.02556070149924009
1461,1661.000,0.02601226625102261
1462,1662.000,0.02549885802014284
1463,1663.000,0.023383989097167802
1464,1664.000,0.023336810808470238
1465,1665.000,0.021580350264796846
1466,1666.000,0.021476037614472424
1467,1667.000,0.02101925147861461
1468,1668.000,0.02254038475554526
1469,1669.000,0.02291292701906034
1470,1670.000,0.023517305748995816
1471,1671.000,0.027489079050766026
1472,1672.000,0.02789307159887826
1473,1673.000,0.027575288354043246
1474,1674.000,0.026551305967423465
1475,1675.000,0.023424842430398222
1476,1676.000,0.02141342133023352
1477,1677.000,0.017754526750012486
1478,1678.000,0.016000386152841932
1479,1679.000,0.015259440621527304
1480,1680.000,0.017417754322049384
1481,1681.000,0.020546085688470488
1482,1682.000,0.02146732168229339
1483,1683.000,0.022548465220153763
1484,1684.000,0.024255808878063088
1485,1685.000,0.0255089473422804
1486,1686.000,0.02510913114652379
1487,1687.000,0.026001347649552458
1488,1688.000,0.025351907077003785
1489,1689.000,0.02642380094998313
1490,1690.000,0.027677940139427915
1491,1691.000,0.028095848476139152
1492,1692.000,0.026102734821598295
1493,1693.000,0.022633399922235353
1494,1694.000,0.020940749925058483
1495,1695.000,0.021497044996721417
1496,1696.000,0.024186614463721605
1497,1697.000,0.026386920993933333
1498,1698.000,0.026415137805052124
1499,1699.000,0.02727760331047142
1500,1700.000,0.02798614735861164
1501,1701.000,0.02742646913079865
1502,1702.000,0.0258755829622286
1503,1703.000,0.02279882076317483
1504,1704.000,0.021293584354087847
1505,1705.000,0.022872208878202595
1506,1706.000,0.023812785441566002
1507,1707.000,0.023322695677264266
1508,1708.000,0.02266979429110525
1509,1709.000,0.02114570311565464
1510,1710.000,0.021045286510370784
1511,1711.000,0.02063458946297785
1512,1712.000,0.022409612489399686
1513,1713.000,0.025513118038398352
1514,1714.000,0.029080011659305773
1515,1715.000,0.03228267985269397
1516,1716.000,0.03337349577076486
1517,1717.000,0.03234385217157418
1518,1718.000,0.028906984135218992
1519,1719.000,0.026685868090933377
1520,1720.000,0.023574251027121528
1521,1721.000,0.023046817975746713
1522,1722.000,0.022871537883906876
1523,1723.000,0.022994335372473272
1524,1724.000,0.024160018573474107
1525,1725.000,0.025192048319248418
1526,1726.000,0.024403983551119095
1527,1727.000,0.022431515323400975
1528,1728.000,0.022573190480929428
1529,1729.000,0.023941139618206687
1530,1730.000,0.023769279309985365
1531,1731.000,0.026747520944255344
1532,1732.000,0.029624394890398847
1533,1733.000,0.030953346559215448
1534,1734.000,0.03141003743278878
1535,1735.000,0.03146660911530239
1536,1736.000,0.02948202673106232
1537,1737.000,0.029059548755850078
1538,1738.000,0.02918949793090147
1539,1739.000,0.02860064117185618
1540,1740.000,0.026726956955981686
1541,1741.000,0.026515934430221943
1542,1742.000,0.026838327002383974
1543,1743.000,0.026751150066352175
1544,1744.000,0.02574165546479393
1545,1745.000,0.026872992830968903
1546,1746.000,0.02703563656393967
1547,1747.000,0.027649457260748724
1548,1748.000,0.029248915908931163
1549,1749.000,0.02877768977828163
1550,1750.000,0.02639318396274801
1551,1751.000,0.024751214317570904
1552,1752.000,0.025342726474058868
1553,1753.000,0.027822152310404084
1554,1754.000,0.029871532127981756
1555,1755.000,0.031445626529423745
1556,1756.000,0.032431974063271855
1557,1757.000,0.03440142749375694
1558,1758.000,0.035475537756143975
1559,1759.000,0.03145545885617413
1560,1760.000,0.028425886964126085
1561,1761.000,0.025297910846388084
1562,1762.000,0.02716853571108126
1563,1763.000,0.02693191500570341
1564,1764.000,0.026979664871579934
1565,1765.000,0.02481977338636718
1566,1766.000,0.0266438378605766
1567,1767.000,0.02935623776790668
1568,1768.000,0.029754008918550352
1569,1769.000,0.028747477023923065
1570,1770.000,0.02783132643380776
1571,1771.000,0.02838205687124653
1572,1772.000,0.03128514421835982
1573,1773.000,0.032931926409017036
1574,1774.000,0.03373477404493068
1575,1775.000,0.0327532748944159
1576,1776.000,0.035644179914755006
1577,1777.000,0.03707842482794726
1578,1778.000,0.03872481664208242
1579,1779.000,0.039642156196006466
1580,1780.000,0.037538304903666
1581,1781.000,0.03737171364278863
1582,1782.000,0.03811073309730292
1583,1783.000,0.037601822860328635
1584,1784.000,0.035593989051511656
1585,1785.000,0.03292939392232724
1586,1786.000,0.03459702787911847
1587,1787.000,0.035963334313735676
1588,1788.000,0.03900835519318484
1589,1789.000,0.03779471162029534
1590,1790.000,0.03621870742729555
1591,1791.000,0.03428117690851152
1592,1792.000,0.03392318395152887
1593,1793.000,0.03359676021433199
1594,1794.000,0.032813433403202204
1595,1795.000,0.031237642079178056
1596,1796.000,0.03222812865619458
1597,1797.000,0.03380596043070505
1598,1798.000,0.03488855411278245
1599,1799.000,0.034844274114711735
1600,1800.000,0.03624752167851263
1601,1801.000,0.037071560191304045
1602,1802.000,0.03854709262447658
1603,1803.000,0.039116727317375206
1604,1804.000,0.03882065354973112
1605,1805.000,0.03642525646577494
1606,1806.000,0.03461014580951933
1607,1807.000,0.03481724207781992
1608,1808.000,0.034985174810563305
1609,1809.000,0.03591845107929208
1610,1810.000,0.036041173964160754
1611,1811.000,0.03705646224363431
1612,1812.000,0.036349241422837436
1613,1813.000,0.03494009799524419
1614,1814.000,0.03595484966960747
1615,1815.000,0.034101865085765834
1616,1816.000,0.034131840074763
1617,1817.000,0.034543836604884214
1618,1818.000,0.03482364779149503
1619,1819.000,0.03381904466943122
1620,1820.000,0.03501742140602928
1621,1821.000,0.034510213912890546
1622,1822.000,0.03392995645974126
1623,1823.000,0.03412471761423832
1624,1824.000,0.036687454386495
1625,1825.000,0.03710089606094361
1626,1826.000,0.038010659711516806
1627,1827.000,0.038336494601328444
1628,1828.000,0.040495503583030286
1629,1829.000,0.04183594040572538
1630,1830.000,0.04367641377175849
1631,1831.000,0.041952494702716774
1632,1832.000,0.0425393390285649
1633,1833.000,0.04100183168632629
1634,1834.000,0.040723125648985496
1635,1835.000,0.03875185966126636
1636,1836.000,0.0376458181624484
1637,1837.000,0.03702220965464651
1638,1838.000,0.03935403073404002
1639,1839.000,0.038501976312041934
1640,1840.000,0.0380608436695416
1641,1841.000,0.03675568946702021
1642,1842.000,0.038088879418351394
1643,1843.000,0.03791846022155112
1644,1844.000,0.03900149821126599
1645,1845.000,0.040185035646844974
1646,1846.000,0.04072688455299319
1647,1847.000,0.04105422884960117
1648,1848.000,0.04177925070319317
1649,1849.000,0.03939597340739076
1650,1850.000,0.040712300543022856
1651,1851.000,0.03859505834867141
1652,1852.000,0.038463622170183086
1653,1853.000,0.03846810701633648
1654,1854.000,0.03938525197556717
1655,1855.000,0.03942446959792735
1656,1856.000,0.03892815247894869
1657,1857.000,0.04018048249960535
1658,1858.000,0.042031076025336074
1659,1859.000,0.04432212103230926
1660,1860.000,0.04896797087689166
1661,1861.000,0.05140168582292391
1662,1862.000,0.05455917374716839
1663,1863.000,0.055821241846901744
1664,1864.000,0.05406533515512702
1665,1865.000,0.050180791972458345
1666,1866.000,0.048280263313911845
1667,1867.000,0.046440871988145435
1668,1868.000,0.04587310344511908
1669,1869.000,0.04489730701067881
1670,1870.000,0.044378263820052485
1671,1871.000,0.04585435867997586
1672,1872.000,0.046736950736303295
1673,1873.000,0.04621709985073805
1674,1874.000,0.043024392320517885
1675,1875.000,0.04357230885741504
1676,1876.000,0.044693850557461556
1677,1877.000,0.044861493374290275
1678,1878.000,0.04538599388943645
1679,1879.000,0.044362997209023876
1680,1880.000,0.04526212781071732
1681,1881.000,0.04739353588513821
1682,1882.000,0.04714631406395142
1683,1883.000,0.046590158315799046
1684,1884.000,0.04445449364526846
1685,1885.000,0.04457535462397962
1686,1886.000,0.042598649219596864
1687,1887.000,0.043243044377876884
1688,1888.000,0.042130443925449845
1689,1889.000,0.04331553104144608
1690,1890.000,0.04528525829050987
1691,1891.000,0.04792015659734904
1692,1892.000,0.04938075703237863
1693,1893.000,0.05211984626780603
1694,1894.000,0.05148624226083226
1695,1895.000,0.05139001333191583
1696,1896.000,0.05173879279188261
1697,1897.000,0.049744580192037056
1698,1898.000,0.04750759433352652
1699,1899.000,0.0470852798156736
1700,1900.000,0.044936135187735995
1701,1901.000,0.04493002579397255
1702,1902.000,0.04685568364131777
1703,1903.000,0.04912862275392248
1704,1904.000,0.05051644613234977
1705,1905.000,0.051734319527247094
1706,1906.000,0.05104471121982159
1707,1907.000,0.048278744074563895
1708,1908.000,0.047038973690552564
1709,1909.000,0.04704919751662199
1710,1910.000,0.04712402179589443
1711,1911.000,0.047153379251424786
1712,1912.000,0.04890362910183221
1713,1913.000,0.051218059010011696
1714,1914.000,0.05135302813302363
1715,1915.000,0.05075678898209095
1716,1916.000,0.05113985986877888
1717,1917.000,0.0528015694258789
1718,1918.000,0.05290446538587563
1719,1919.000,0.05526284662405166
1720,1920.000,0.05540647062147927
1721,1921.000,0.05527090359184305
1722,1922.000,0.0573853547537835
1723,1923.000,0.056901757610307184
1724,1924.000,0.056154805683790596
1725,1925.000,0.05581501224998568
1726,1926.000,0.05499720626421606
1727,1927.000,0.05525892993169947
1728,1928.000,0.055830246844779434
1729,1929.000,0.05579905289146559
1730,1930.000,0.053948290345162214
1731,1931.000,0.05471607297481437
1732,1932.000,0.057885255781514384
1733,1933.000,0.05819379673036523
1734,1934.000,0.061184223863504736
1735,1935.000,0.06210010531756145
1736,1936.000,0.059721067518001804
1737,1937.000,0.06081818462338768
1738,1938.000,0.061580887811333106
1739,1939.000,0.060297242249715464
1740,1940.000,0.058355251276408636
1741,1941.000,0.06009288661608752
1742,1942.000,0.06174711935629202
1743,1943.000,0.06152788775928322
1744,1944.000,0.06258241202079662
1745,1945.000,0.06222827286958274
1746,1946.000,0.05799842295155752
1747,1947.000,0.05547330874880993
1748,1948.000,0.054186941408454085
1749,1949.000,0.05334748364601151
1750,1950.000,0.0542972968954431
1751,1951.000,0.05824542622791382
1752,1952.000,0.06088927132444803
1753,1953.000,0.06327046780556798
1754,1954.000,0.06423258710840948
1755,1955.000,0.06289088184996619
1756,1956.000,0.062163648593605646
1757,1957.000,0.06139557312226568
1758,1958.000,0.06211285635901695
1759,1959.000,0.06299420411293113
1760,1960.000,0.06389889777376032
1761,1961.000,0.06559558275634668
1762,1962.000,0.0669341951822708
1763,1963.000,0.06741686619677675
1764,1964.000,0.06704732917026084
1765,1965.000,0.06653120158543838
1766,1966.000,0.06657201076899984
1767,1967.000,0.06615254610845227
1768,1968.000,0.06364322460856522
1769,1969.000,0.0606850215144947
1770,1970.000,0.05887614390144151
1771,1971.000,0.0578712326748714
1772,1972.000,0.059860063405471765
1773,1973.000,0.06121859131740508
1774,1974.000,0.06317142135934763
1775,1975.000,0.0652136206362526
1776,1976.000,0.06674453464732635
1777,1977.000,0.06874385270092905
1778,1978.000,0.06904136363841375
1779,1979.000,0.0675301732722018
1780,1980.000,0.06819855042877346
1781,1981.000,0.06678286843343191
1782,1982.000,0.0691654307200514
1783,1983.000,0.06883080011906192
1784,1984.000,0.06781239843228044
1785,1985.000,0.06731116827629424
1786,1986.000,0.06470010208840693
1787,1987.000,0.06447548102086706
1788,1988.000,0.06228872254405755
1789,1989.000,0.06154337373699275
1790,1990.000,0.06361323048246902
1791,1991.000,0.06392638213124764
1792,1992.000,0.06660965288709274
1793,1993.000,0.06816957895336095
1794,1994.000,0.06923519024985993
1795,1995.000,0.06823424314910406
1796,1996.000,0.06624485686299839
1797,1997.000,0.06502519174163884
1798,1998.000,0.0654791168647789
1799,1999.000,0.06851050131217196
1800,2000.000,0.07502321416357141
