raman_shift_cm-1,intensity
200.000000,0.0005162339338
201.000000,0.0004904614881
202.000000,0.0005677253608
203.000000,0.0005141842877
204.000000,0.0004501385785
205.000000,0.000539876321
206.000000,0.0006341281802
207.000000,0.0005984476931
208.000000,0.0004333775557
209.000000,0.0003772204765
210.000000,0.0004414467841
211.000000,0.000507918498
212.000000,0.0002712945557
213.000000,0.0004819302638
214.000000,0.000379230197
215.000000,0.0004306064828
216.000000,0.0004494193119
217.000000,0.0004722272527
218.000000,0.0005450324466
219.000000,0.0006081329217
220.000000,0.0004910403781
221.000000,0.0006405525192
222.000000,0.0004373991015
223.000000,0.000539082042
224.000000,0.0005942905893
225.000000,0.0005133574076
226.000000,0.0004296189309
227.000000,0.0004118090679
228.000000,0.0004582218452
229.000000,0.0005260268353
230.000000,0.0004030584735
231.000000,0.0004831157775
232.000000,0.0004881239521
233.000000,0.0005581442053
234.000000,0.000525538829
235.000000,0.0005396235344
236.000000,0.000438716827
237.000000,0.0004911518272
238.000000,0.0005825243192
239.000000,0.0006534835479
240.000000,0.0003782476217
241.000000,0.000655560375
242.000000,0.0006387694443
243.000000,0.0005823270288
244.000000,0.0005306555218
245.000000,0.0004728318314
246.000000,0.00065004042
247.000000,0.0007002785075
248.000000,0.0006844305734
249.000000,0.0006357919605
250.000000,0.0005400342105
251.000000,0.0003834789803
252.000000,0.0005038801937
253.000000,0.0005699879544
254.000000,0.0003755192594
255.000000,0.0005438826486
256.000000,0.0005473719418
257.000000,0.000574005068
258.000000,0.0003860043168
259.000000,0.0004382612696
260.000000,0.0004608035117
261.000000,0.0003874824525
262.000000,0.000678415136
263.000000,0.0004549030795
264.000000,0.0005374070194
265.000000,0.000478668807
266.000000,0.0006628894565
267.000000,0.0006365944773
268.000000,0.0005679099548
269.000000,0.0002842401232
270.000000,0.0005098105335
271.000000,0.0005729928869
272.000000,0.0006050371651
273.000000,0.0004428671519
274.000000,0.0006868759517
275.000000,0.0003726487886
276.000000,0.000438556266
277.000000,0.000598231363
278.000000,0.0005096492362
279.000000,0.0007050005596
280.000000,0.0005236308637
281.000000,0.0004414772968
282.000000,0.0004670582359
283.000000,0.0003957179758
284.000000,0.0003770826937
285.000000,0.0005679101052
286.000000,0.0005630039074
287.000000,0.0006343617035
288.000000,0.0004294638647
289.000000,0.0006738539394
290.000000,0.0004762233032
291.000000,0.0006624219124
292.000000,0.0004617216425
293.000000,0.0004314711743
294.000000,0.0005300174518
295.000000,0.0006082037708
296.000000,0.0005211791053
297.000000,0.00044654509
298.000000,0.0003709959664
299.000000,0.0003649860241
300.000000,0.0005554265822
301.000000,0.0006041499975
302.000000,0.0004887697789
303.000000,0.0003977834449
304.000000,0.0005925449887
305.000000,0.0003772223735
306.000000,0.0004339761065
307.000000,0.0005674060046
308.000000,0.0002803115621
309.000000,0.0005439842581
310.000000,0.000447204994
311.000000,0.000516318989
312.000000,0.0004978429723
313.000000,0.000525646836
314.000000,0.0005748750296
315.000000,0.00042964347
316.000000,0.0006476014281
317.000000,0.0005781355593
318.000000,0.0005899225768
319.000000,0.0006220590165
320.000000,0.0005843549281
321.000000,0.0005900276434
322.000000,0.0005132029898
323.000000,0.0003629902832
324.000000,0.0004921873862
325.000000,0.0004287648506
326.000000,0.000363466749
327.000000,0.0005316110114
328.000000,0.0004489357908
329.000000,0.0004028354961
330.000000,0.0004015412379
331.000000,0.0005327086646
332.000000,0.0005417599695
333.000000,0.0006381645493
334.000000,0.0005045535755
335.000000,0.0006101554733
336.000000,0.0006462246527
337.000000,0.0006210416265
338.000000,0.0002695217883
339.000000,0.0006289478927
340.000000,0.0005400690922
341.000000,0.0005485120289
342.000000,0.0005432856721
343.000000,0.0005444669207
344.000000,0.0005381611415
345.000000,0.0004703571472
346.000000,0.0003161139535
347.000000,0.000495415266
348.000000,0.0004259630626
349.000000,0.0006143823539
350.000000,0.0004775193873
351.000000,0.0005147738621
352.000000,0.0004214962864
353.000000,0.000455425461
354.000000,0.0005053655016
355.000000,0.000358012667
356.000000,0.0005366503561
357.000000,0.0004960065637
358.000000,0.0003880740422
359.000000,0.0002668552628
360.000000,0.0005580165866
361.000000,0.0004769860944
362.000000,0.0004537770875
363.000000,0.000483196206
364.000000,0.0006884933172
365.000000,0.0005018999988
366.000000,0.0005155767174
367.000000,0.000358242527
368.000000,0.0006717190755
369.000000,0.0005987696591
370.000000,0.000613750381
371.000000,0.0005118605476
372.000000,0.0005987954852
373.000000,0.0005442617784
374.000000,0.0005685234533
375.000000,0.0004920230676
376.000000,0.0003598917593
377.000000,0.0006102045579
378.000000,0.0003138621123
379.000000,0.0004834037514
380.000000,0.0004869849078
381.000000,0.0004031912822
382.000000,0.0005688301572
383.000000,0.0004875258345
384.000000,0.0004639133534
385.000000,0.0005596261671
386.000000,0.0004600263313
387.000000,0.0006466249142
388.000000,0.0005429155527
389.000000,0.0004603803287
390.000000,0.0003134311733
391.000000,0.0003771268632
392.000000,0.0006166302493
393.000000,0.000502932236
394.000000,0.0004797260987
395.000000,0.0006724102291
396.000000,0.0003798671131
397.000000,0.0004496137433
398.000000,0.0004609687656
399.000000,0.0005669098045
400.000000,0.0004419716414
401.000000,0.0004470330123
402.000000,0.0003479100535
403.000000,0.0005814106994
404.000000,0.00058914104
405.000000,0.0004609413637
406.000000,0.0005249655668
407.000000,0.0003794201034
408.000000,0.000461557164
409.000000,0.0006465879696
410.000000,0.0005224209848
411.000000,0.0007399399507
412.000000,0.0004302406836
413.000000,0.0005670454322
414.000000,0.0004895241296
415.000000,0.0005657149205
416.000000,0.0005084711376
417.000000,0.0004531323275
418.000000,0.0004225510677
419.000000,0.000815977778
420.000000,0.0005017017264
421.000000,0.0003078330741
422.000000,0.0004447027905
423.000000,0.0005774313445
424.000000,0.0004596918766
425.000000,0.0006458035319
426.000000,0.0006100657905
427.000000,0.0004946600274
428.000000,0.0004627411179
429.000000,0.0004095523434
430.000000,0.0004401064505
431.000000,0.000362860405
432.000000,0.0006306869152
433.000000,0.0006693909236
434.000000,0.0003847816018
435.000000,0.0003923027004
436.000000,0.0003336964478
437.000000,0.0004142399136
438.000000,0.0002000704495
439.000000,0.0003965561393
440.000000,0.0006405566158
441.000000,0.0004763800232
442.000000,0.0005964890838
443.000000,0.0004622183473
444.000000,0.0006872678118
445.000000,0.0005312099703
446.000000,0.0004731763217
447.000000,0.0007667086495
448.000000,0.0004791101033
449.000000,0.0003895273718
450.000000,0.0005319345311
451.000000,0.0005079552891
452.000000,0.0006185679806
453.000000,0.0004198703688
454.000000,0.0005926052284
455.000000,0.0005975097297
456.000000,0.0004455691106
457.000000,0.0005287668448
458.000000,0.0004294735389
459.000000,0.0007472375582
460.000000,0.0004423525777
461.000000,0.0004675706819
462.000000,0.0004064077691
463.000000,0.0004784947868
464.000000,0.0005126365988
465.000000,0.0005901223943
466.000000,0.0004524161371
467.000000,0.0004950108193
468.000000,0.0003720648373
469.000000,0.0004311013096
470.000000,0.0007895523023
471.000000,0.0006182281936
472.000000,0.000436096172
473.000000,0.0003806359894
474.000000,0.0004169570677
475.000000,0.0005124884681
476.000000,0.0005182751705
477.000000,0.0004405138747
478.000000,0.0003864428098
479.000000,0.0006574912833
480.000000,0.0005605780872
481.000000,0.000478111864
482.000000,0.0004936647677
483.000000,0.0004629432512
484.000000,0.0002224604376
485.000000,0.0005278032202
486.000000,0.0004093581194
487.000000,0.0004163232217
488.000000,0.0004527481753
489.000000,0.0005901911332
490.000000,0.000400098321
491.000000,0.0003739177074
492.000000,0.0005815296453
493.000000,0.0005931841719
494.000000,0.0004220611448
495.000000,0.0005744060445
496.000000,0.0004892194638
497.000000,0.0005487331711
498.000000,0.0003927341423
499.000000,0.0006023509622
500.000000,0.0006396240564
501.000000,0.0005832475985
502.000000,0.000575622036
503.000000,0.0001428141286
504.000000,0.0005463642594
505.000000,0.0005180226341
506.000000,0.0005061349512
507.000000,0.0004580607173
508.000000,0.0005269409396
509.000000,0.0005629092636
510.000000,0.0004956191978
511.000000,0.0004759737668
512.000000,0.0006455976833
513.000000,0.0004124099591
514.000000,0.0006262951085
515.000000,0.0005413026248
516.000000,0.0004435418095
517.000000,0.0004953347367
518.000000,0.0004327040434
519.000000,0.0005925906442
520.000000,0.0005602658741
521.000000,0.0004701987288
522.000000,0.0004160707551
523.000000,0.000556890494
524.000000,0.0006228963009
525.000000,0.0005162260375
526.000000,0.00056991048
527.000000,0.0004909522753
528.000000,0.0005358064837
529.000000,0.0005004312994
530.000000,0.0005594899649
531.000000,0.0003796515081
532.000000,0.0005956084259
533.000000,0.0005087751447
534.000000,0.0005682274703
535.000000,0.0004989540687
536.000000,0.0005656607146
537.000000,0.0004270299317
538.000000,0.0006538864393
539.000000,0.0003653256274
540.000000,0.0004324907986
541.000000,0.000560742666
542.000000,0.0006842498127
543.000000,0.0005665973351
544.000000,0.00051484412
545.000000,0.0003980089987
546.000000,0.000522307939
547.000000,0.0005404019198
548.000000,0.0007124389319
549.000000,0.0006066276163
550.000000,0.0003925817157
551.000000,0.0007492901728
552.000000,0.0005082805361
553.000000,0.0004610556594
554.000000,0.0006977579118
555.000000,0.000546631291
556.000000,0.0005162585851
557.000000,0.0005763340135
558.000000,0.0006404695956
559.000000,0.0006569128547
560.000000,0.0004217355768
561.000000,0.0007608638737
562.000000,0.0006575508361
563.000000,0.0005268887745
564.000000,0.0004849891161
565.000000,0.000472109472
566.000000,0.0005836216215
567.000000,0.0005088814711
568.000000,0.0004997309407
569.000000,0.0006600255225
570.000000,0.0006181967161
571.000000,0.0005452937376
572.000000,0.0006613716402
573.000000,0.0007280815429
574.000000,0.0004855089652
575.000000,0.0005384816834
576.000000,0.0006971840992
577.000000,0.0006792096558
578.000000,0.0006346884936
579.000000,0.0007333029606
580.000000,0.0005136547191
581.000000,0.0004803878157
582.000000,0.0005479299752
583.000000,0.0006536160725
584.000000,0.0005690908283
585.000000,0.0006079351982
586.000000,0.0005678060018
587.000000,0.000612686073
588.000000,0.0005845422909
589.000000,0.0007330387459
590.000000,0.0007881593175
591.000000,0.0006742599688
592.000000,0.0007166437109
593.000000,0.0006959705503
594.000000,0.00082578484
595.000000,0.0008023251163
596.000000,0.000976118315
597.000000,0.0007333834128
598.000000,0.0009088657457
599.000000,0.0009507827418
600.000000,0.0009089629909
601.000000,0.001047798618
602.000000,0.0008970487025
603.000000,0.001312776268
604.000000,0.001037169719
605.000000,0.001346825358
606.000000,0.001242468383
607.000000,0.001589988027
608.000000,0.001583082274
609.000000,0.001818162286
610.000000,0.002033066363
611.000000,0.002422298959
612.000000,0.002643362765
613.000000,0.002847451715
614.000000,0.003676484805
615.000000,0.004558576982
616.000000,0.005496212812
617.000000,0.006820517981
618.000000,0.008129857801
619.000000,0.009074650416
620.000000,0.009364089628
621.000000,0.009228039786
622.000000,0.008137021863
623.000000,0.006714204042
624.000000,0.00575187175
625.000000,0.004506297724
626.000000,0.003639954759
627.000000,0.003129955657
628.000000,0.002784871062
629.000000,0.002220248108
630.000000,0.002224820635
631.000000,0.001714832323
632.000000,0.001719366298
633.000000,0.001531910491
634.000000,0.001341940364
635.000000,0.001365865053
636.000000,0.00102456399
637.000000,0.00124002637
638.000000,0.001038110315
639.000000,0.0009389850249
640.000000,0.001023914485
641.000000,0.001016571504
642.000000,0.0009540022379
643.000000,0.001047498734
644.000000,0.0009296049144
645.000000,0.0009268132847
646.000000,0.0007239314158
647.000000,0.0007702008883
648.000000,0.00079936157
649.000000,0.0007264434639
650.000000,0.0007449688276
651.000000,0.0007452616117
652.000000,0.0007760303622
653.000000,0.0006713811222
654.000000,0.0006373693888
655.000000,0.0005811013161
656.000000,0.0005670371024
657.000000,0.0007663550641
658.000000,0.0006341168761
659.000000,0.0007152270746
660.000000,0.0005012160609
661.000000,0.0004319690012
662.000000,0.0005160858836
663.000000,0.00073120925
664.000000,0.0007192184135
665.000000,0.0006417646548
666.000000,0.0005247561651
667.000000,0.0005885462858
668.000000,0.0005687257477
669.000000,0.0005610843889
670.000000,0.0003422438469
671.000000,0.0005045024752
672.000000,0.0005688910138
673.000000,0.0007373024865
674.000000,0.0005996324112
675.000000,0.0007216764429
676.000000,0.0005403689126
677.000000,0.0005527373463
678.000000,0.0001864380625
679.000000,0.0006211881688
680.000000,0.0006281344669
681.000000,0.0007484599462
682.000000,0.0005221513958
683.000000,0.000579066135
684.000000,0.000497996619
685.000000,0.0004498940125
686.000000,0.0004952472721
687.000000,0.0005311613404
688.000000,0.0007003698921
689.000000,0.0005642711645
690.000000,0.0004842759319
691.000000,0.0005768527852
692.000000,0.0005838087921
693.000000,0.0004938652366
694.000000,0.0006752969595
695.000000,0.0003716706288
696.000000,0.0005387282895
697.000000,0.0006262105952
698.000000,0.0004255247964
699.000000,0.0005951992544
700.000000,0.0006881098558
701.000000,0.0006039743718
702.000000,0.0003894172629
703.000000,0.0004854784838
704.000000,0.0006814312769
705.000000,0.0005879752357
706.000000,0.0005571341181
707.000000,0.0006022556965
708.000000,0.0006302933751
709.000000,0.0004874320056
710.000000,0.0005293658594
711.000000,0.0005728620375
712.000000,0.0005043774462
713.000000,0.0005456687205
714.000000,0.0006890802932
715.000000,0.0004628295265
716.000000,0.0007526360128
717.000000,0.0007483030276
718.000000,0.0003894650128
719.000000,0.000547189593
720.000000,0.0005960875973
721.000000,0.0004863028621
722.000000,0.0004888998108
723.000000,0.0005399320977
724.000000,0.0006383069101
725.000000,0.0005140226573
726.000000,0.0007486459237
727.000000,0.0005958502524
728.000000,0.0005575298941
729.000000,0.0007137088959
730.000000,0.0006324704003
731.000000,0.0006078973343
732.000000,0.0005390514737
733.000000,0.0007548351724
734.000000,0.0006559682131
735.000000,0.0005558771758
736.000000,0.0004200183319
737.000000,0.0006166463336
738.000000,0.0004666888964
739.000000,0.0004112851653
740.000000,0.0005568935207
741.000000,0.0006150043312
742.000000,0.0007172818426
743.000000,0.0006195924668
744.000000,0.0006744098865
745.000000,0.0004738384196
746.000000,0.0005969624809
747.000000,0.0006146094962
748.000000,0.0006915841249
749.000000,0.0006203516051
750.000000,0.0006927725655
751.000000,0.000565817224
752.000000,0.0006561810217
753.000000,0.0006663216398
754.000000,0.0005046361625
755.000000,0.0006523072083
756.000000,0.0006082531214
757.000000,0.0004558530966
758.000000,0.0007485568645
759.000000,0.0006235177763
760.000000,0.0005820436258
761.000000,0.0006377880951
762.000000,0.0006983113202
763.000000,0.0008450756841
764.000000,0.000688407683
765.000000,0.0007639975705
766.000000,0.0008670457075
767.000000,0.0007973070426
768.000000,0.0008665911535
769.000000,0.0007296030549
770.000000,0.000873872659
771.000000,0.0008127846296
772.000000,0.0009505048057
773.000000,0.0007702959948
774.000000,0.0008239227527
775.000000,0.001064262573
776.000000,0.0009583662119
777.000000,0.0009887101293
778.000000,0.00108624502
779.000000,0.001072168987
780.000000,0.001347571744
781.000000,0.001175713588
782.000000,0.001387805392
783.000000,0.001559563584
784.000000,0.001660975566
785.000000,0.001768282517
786.000000,0.001976666125
787.000000,0.002367647836
788.000000,0.002539775533
789.000000,0.003089872153
790.000000,0.003323727321
791.000000,0.003931440482
792.000000,0.004529112024
793.000000,0.004900350572
794.000000,0.005455719324
795.000000,0.005523890368
796.000000,0.005287095904
797.000000,0.004874047039
798.000000,0.004369477688
799.000000,0.00399278257
800.000000,0.003361384809
801.000000,0.002889870984
802.000000,0.002620997591
803.000000,0.002554340767
804.000000,0.00209292731
805.000000,0.001926657511
806.000000,0.001694732833
807.000000,0.001605393884
808.000000,0.001270970615
809.000000,0.001260180185
810.000000,0.001243301801
811.000000,0.001142304104
812.000000,0.001062453839
813.000000,0.000961372711
814.000000,0.0009556796004
815.000000,0.0008637025702
816.000000,0.0006636182817
817.000000,0.0007553147875
818.000000,0.0008949338102
819.000000,0.000978786568
820.000000,0.000982814572
821.000000,0.0007918109299
822.000000,0.0008541483248
823.000000,0.0008400191622
824.000000,0.0006659260599
825.000000,0.0005526225657
826.000000,0.0007139456978
827.000000,0.0005241175707
828.000000,0.0006587489952
829.000000,0.0007427806583
830.000000,0.0005319241797
831.000000,0.0006697818208
832.000000,0.0007837676326
833.000000,0.0006896646162
834.000000,0.0006999757601
835.000000,0.0007330852473
836.000000,0.0008107724721
837.000000,0.0006480452511
838.000000,0.0007516100355
839.000000,0.0006183020997
840.000000,0.0005664381109
841.000000,0.0006491274197
842.000000,0.0005538884958
843.000000,0.0005541972475
844.000000,0.0005479760256
845.000000,0.0003766323126
846.000000,0.0006143206535
847.000000,0.0004751423379
848.000000,0.0005887023104
849.000000,0.000742467619
850.000000,0.0005435412842
851.000000,0.0005397317271
852.000000,0.0007287280777
853.000000,0.0006454784542
854.000000,0.0006871112306
855.000000,0.0005526341417
856.000000,0.0006617651118
857.000000,0.0005172173574
858.000000,0.000517190889
859.000000,0.000643447637
860.000000,0.0005230895576
861.000000,0.0006588104317
862.000000,0.0008205035687
863.000000,0.0004120182879
864.000000,0.0005047707076
865.000000,0.0006914200493
866.000000,0.0005643662872
867.000000,0.000694504039
868.000000,0.0004769599143
869.000000,0.0006107206044
870.000000,0.000562197325
871.000000,0.0005910022297
872.000000,0.0006098330246
873.000000,0.0004545198711
874.000000,0.0004689475308
875.000000,0.0007161671137
876.000000,0.0006054852543
877.000000,0.000586758593
878.000000,0.0005717147305
879.000000,0.0006118122078
880.000000,0.0004606369789
881.000000,0.0004764370603
882.000000,0.0007069357858
883.000000,0.0005917933314
884.000000,0.0006619121491
885.000000,0.0005165671098
886.000000,0.0007150925518
887.000000,0.0006122693348
888.000000,0.0006262225207
889.000000,0.0006333623303
890.000000,0.0004992150549
891.000000,0.0003928057723
892.000000,0.0004723950033
893.000000,0.0007434607946
894.000000,0.0007110463296
895.000000,0.000546891824
896.000000,0.0005520594435
897.000000,0.0006865684131
898.000000,0.0005667858327
899.000000,0.0004544587516
900.000000,0.0007117366373
901.000000,0.0006337382632
902.000000,0.0003352658889
903.000000,0.0005565026473
904.000000,0.0006031538609
905.000000,0.0006379212152
906.000000,0.0006060670608
907.000000,0.0005283801858
908.000000,0.0005815292885
909.000000,0.000623785942
910.000000,0.0005687576975
911.000000,0.0005596734048
912.000000,0.0007234322258
913.000000,0.0005049803329
914.000000,0.0005661709952
915.000000,0.0003995278449
916.000000,0.0006583526446
917.000000,0.0006887489819
918.000000,0.0006625067422
919.000000,0.0007012322887
920.000000,0.0006554171614
921.000000,0.0006475571443
922.000000,0.0006627405188
923.000000,0.0005907399085
924.000000,0.0007385170984
925.000000,0.0005871334367
926.000000,0.0004781589843
927.000000,0.00071187801
928.000000,0.0008145823999
929.000000,0.0005362219021
930.000000,0.0006249170121
931.000000,0.0005695034686
932.000000,0.0006030879873
933.000000,0.0006489925022
934.000000,0.0005235851854
935.000000,0.0006235376824
936.000000,0.0005084064128
937.000000,0.0006020531496
938.000000,0.0005443246981
939.000000,0.0005612754825
940.000000,0.0004996465643
941.000000,0.0007982484043
942.000000,0.0007321275314
943.000000,0.0004946325912
944.000000,0.0006321189583
945.000000,0.000630464047
946.000000,0.0006344228886
947.000000,0.0005651630851
948.000000,0.0007919724178
949.000000,0.0006840039097
950.000000,0.0007778638976
951.000000,0.0007916165977
952.000000,0.0008848449965
953.000000,0.0005746777422
954.000000,0.0009394363158
955.000000,0.0009024614125
956.000000,0.0008435339578
957.000000,0.001035934506
958.000000,0.0008301847736
959.000000,0.0009047808148
960.000000,0.0007626510744
961.000000,0.0009647902136
962.000000,0.0008841016655
963.000000,0.0008393793786
964.000000,0.001114717572
965.000000,0.0008925576457
966.000000,0.0009455937068
967.000000,0.0009484959679
968.000000,0.0009182385764
969.000000,0.001074832552
970.000000,0.001126056677
971.000000,0.001121115091
972.000000,0.0008864327831
973.000000,0.001263922893
974.000000,0.001173106541
975.000000,0.001136539688
976.000000,0.00137436602
977.000000,0.001432964567
978.000000,0.00134294452
979.000000,0.001774410455
980.000000,0.00149720333
981.000000,0.00154911559
982.000000,0.00172722158
983.000000,0.002124371065
984.000000,0.00212822694
985.000000,0.002301772264
986.000000,0.002563186234
987.000000,0.002787617949
988.000000,0.00311745958
989.000000,0.003542134419
990.000000,0.004204584953
991.000000,0.004910444853
992.000000,0.005582748859
993.000000,0.006885516867
994.000000,0.008544327739
995.000000,0.01060919033
996.000000,0.01391377687
997.000000,0.01863730625
998.000000,0.02562550283
999.000000,0.03539492844
1000.000000,0.04571191629
1001.000000,0.05086642249
1002.000000,0.04581997546
1003.000000,0.03550125983
1004.000000,0.02583947176
1005.000000,0.01883204451
1006.000000,0.01415180727
1007.000000,0.01095883333
1008.000000,0.008685472472
1009.000000,0.007247713148
1010.000000,0.006164646449
1011.000000,0.005290823705
1012.000000,0.004844809455
1013.000000,0.004165852953
1014.000000,0.003957099211
1015.000000,0.003636407052
1016.000000,0.003554165841
1017.000000,0.00337390506
1018.000000,0.00356455289
1019.000000,0.00353919152
1020.000000,0.003790040009
1021.000000,0.003789596563
1022.000000,0.004233753089
1023.000000,0.004721878614
1024.000000,0.005508022294
1025.000000,0.006556565985
1026.000000,0.00812896543
1027.000000,0.01028682
1028.000000,0.01323717699
1029.000000,0.01686854633
1030.000000,0.02048934591
1031.000000,0.02210894761
1032.000000,0.02031536644
1033.000000,0.01679331669
1034.000000,0.01303540428
1035.000000,0.01006665481
1036.000000,0.007791953393
1037.000000,0.006202778511
1038.000000,0.004955649284
1039.000000,0.004214138726
1040.000000,0.003489439239
1041.000000,0.003152114926
1042.000000,0.002715959898
1043.000000,0.002433949433
1044.000000,0.002102481204
1045.000000,0.002077473131
1046.000000,0.001905566785
1047.000000,0.001788074099
1048.000000,0.001811106114
1049.000000,0.001486283668
1050.000000,0.001528604109
1051.000000,0.001323721124
1052.000000,0.001312546414
1053.000000,0.001254379497
1054.000000,0.001195471487
1055.000000,0.001191480933
1056.000000,0.001056580987
1057.000000,0.001056406247
1058.000000,0.001074657565
1059.000000,0.001167747487
1060.000000,0.0008832036298
1061.000000,0.000763624055
1062.000000,0.0008746752586
1063.000000,0.0009127392177
1064.000000,0.0009035234367
1065.000000,0.0008789719452
1066.000000,0.0009730501267
1067.000000,0.0009385644547
1068.000000,0.0008232758614
1069.000000,0.0007694473719
1070.000000,0.0007708703251
1071.000000,0.0007597033686
1072.000000,0.0007633624788
1073.000000,0.0006199124073
1074.000000,0.0007229418328
1075.000000,0.0007189926034
1076.000000,0.0007355514819
1077.000000,0.0007224551096
1078.000000,0.0008089845195
1079.000000,0.0006829112145
1080.000000,0.0006869656497
1081.000000,0.000780107159
1082.000000,0.0006978220303
1083.000000,0.0007387702161
1084.000000,0.0007801432074
1085.000000,0.0007517896689
1086.000000,0.0007312764477
1087.000000,0.000683555699
1088.000000,0.0007685902861
1089.000000,0.0007154087926
1090.000000,0.0006450651255
1091.000000,0.0006784027142
1092.000000,0.0005698346217
1093.000000,0.0005938817119
1094.000000,0.0005003582364
1095.000000,0.0006194867731
1096.000000,0.0008200826097
1097.000000,0.0006301437488
1098.000000,0.0007640277949
1099.000000,0.0006846274248
1100.000000,0.0006148359623
1101.000000,0.0008188601426
1102.000000,0.0007436213086
1103.000000,0.0005108218191
1104.000000,0.00079098253
1105.000000,0.0005804508604
1106.000000,0.0006714829859
1107.000000,0.0007576977177
1108.000000,0.0006627933264
1109.000000,0.0008068601005
1110.000000,0.0007735904902
1111.000000,0.000542605223
1112.000000,0.0006562297518
1113.000000,0.0007352370025
1114.000000,0.0006534899465
1115.000000,0.0006937574449
1116.000000,0.0008002295847
1117.000000,0.0007573064312
1118.000000,0.0006395009083
1119.000000,0.0007555678356
1120.000000,0.0006840945852
1121.000000,0.000631755477
1122.000000,0.0006490402199
1123.000000,0.0008004215666
1124.000000,0.0007796094289
1125.000000,0.0007947957674
1126.000000,0.0006927431429
1127.000000,0.0008035292163
1128.000000,0.0007344065411
1129.000000,0.0007635600516
1130.000000,0.0008599134524
1131.000000,0.0007607934664
1132.000000,0.0009916407723
1133.000000,0.001202337184
1134.000000,0.001032401462
1135.000000,0.0009197480472
1136.000000,0.001039969481
1137.000000,0.0009612218495
1138.000000,0.001136687444
1139.000000,0.001292614733
1140.000000,0.001380236613
1141.000000,0.001312394131
1142.000000,0.001558348495
1143.000000,0.001780440333
1144.000000,0.00200665067
1145.000000,0.001965964966
1146.000000,0.002204450989
1147.000000,0.002615930732
1148.000000,0.002720949932
1149.000000,0.003469815311
1150.000000,0.004132670573
1151.000000,0.004888420992
1152.000000,0.005661694024
1153.000000,0.006690660637
1154.000000,0.007342401432
1155.000000,0.007774567434
1156.000000,0.007348370199
1157.000000,0.006727592013
1158.000000,0.005858463116
1159.000000,0.005074796879
1160.000000,0.004012177955
1161.000000,0.003620894187
1162.000000,0.003248998135
1163.000000,0.002763608775
1164.000000,0.002360934449
1165.000000,0.002329231028
1166.000000,0.002168457881
1167.000000,0.001991198041
1168.000000,0.001824080883
1169.000000,0.001821892443
1170.000000,0.001852564962
1171.000000,0.001816567034
1172.000000,0.00176679627
1173.000000,0.001975912846
1174.000000,0.002187916536
1175.000000,0.002343634912
1176.000000,0.002662655504
1177.000000,0.003052071964
1178.000000,0.003630257761
1179.000000,0.004402665713
1180.000000,0.005035384249
1181.000000,0.005658407448
1182.000000,0.006222700369
1183.000000,0.00674529351
1184.000000,0.006465064878
1185.000000,0.005621294833
1186.000000,0.004896307056
1187.000000,0.003979423689
1188.000000,0.003419810177
1189.000000,0.002812802914
1190.000000,0.002471246117
1191.000000,0.001937097053
1192.000000,0.001818318822
1193.000000,0.001651119645
1194.000000,0.00136717371
1195.000000,0.001571779387
1196.000000,0.001226480345
1197.000000,0.001334485874
1198.000000,0.001058033976
1199.000000,0.001041592305
1200.000000,0.001132035056
1201.000000,0.001000321796
1202.000000,0.000951361253
1203.000000,0.0009258565638
1204.000000,0.0007338241692
1205.000000,0.0008060791118
1206.000000,0.0007268729503
1207.000000,0.0008222006961
1208.000000,0.0007301076366
1209.000000,0.000763964804
1210.000000,0.0007460776956
1211.000000,0.0007369763719
1212.000000,0.0007251446091
1213.000000,0.0006524422108
1214.000000,0.0006022720213
1215.000000,0.000632055055
1216.000000,0.0007971982855
1217.000000,0.0007196713835
1218.000000,0.0007337504451
1219.000000,0.000806381083
1220.000000,0.0005442484049
1221.000000,0.0007074262498
1222.000000,0.0005435553053
1223.000000,0.0006126179151
1224.000000,0.0006897889386
1225.000000,0.0007984106272
1226.000000,0.0005546431883
1227.000000,0.0006195137785
1228.000000,0.0007409809523
1229.000000,0.0004729525038
1230.000000,0.0006549166345
1231.000000,0.0005848309156
1232.000000,0.0005246107467
1233.000000,0.000624720962
1234.000000,0.0006669733166
1235.000000,0.0005138288881
1236.000000,0.0006407222004
1237.000000,0.0006178625247
1238.000000,0.000474256867
1239.000000,0.0007517955774
1240.000000,0.0007035576928
1241.000000,0.0005067790616
1242.000000,0.0005323987313
1243.000000,0.0006665107161
1244.000000,0.0005383348496
1245.000000,0.0004024268893
1246.000000,0.0006898739516
1247.000000,0.0005845152174
1248.000000,0.0007730519854
1249.000000,0.0006168661795
1250.000000,0.0005990437003
1251.000000,0.0008662716432
1252.000000,0.0005605616256
1253.000000,0.0004815408039
1254.000000,0.0005986612443
1255.000000,0.000688378985
1256.000000,0.0004573945819
1257.000000,0.0004822224355
1258.000000,0.0006172065649
1259.000000,0.0002517102003
1260.000000,0.0004614272496
1261.000000,0.0006495269993
1262.000000,0.0005106198685
1263.000000,0.0004059913827
1264.000000,0.0007605716123
1265.000000,0.0004263650132
1266.000000,0.0005145128707
1267.000000,0.0005290335289
1268.000000,0.0005741038284
1269.000000,0.0005283461887
1270.000000,0.0005567313338
1271.000000,0.0005701314954
1272.000000,0.0005552909479
1273.000000,0.0005728842218
1274.000000,0.0003252835849
1275.000000,0.000606922421
1276.000000,0.0004220300083
1277.000000,0.0003454902639
1278.000000,0.000699987665
1279.000000,0.0004330178703
1280.000000,0.0005792908678
1281.000000,0.0004838
1282.000000,0.0004929789744
1283.000000,0.0006089774235
1284.000000,0.0004555923757
1285.000000,0.0005975014922
1286.000000,0.000598138488
1287.000000,0.0006763649258
1288.000000,0.0005261651798
1289.000000,0.0006643263425
1290.000000,0.0007316342435
1291.000000,0.0007181445072
1292.000000,0.0006180101596
1293.000000,0.0006042597782
1294.000000,0.0008442437568
1295.000000,0.0007824852049
1296.000000,0.000482589379
1297.000000,0.0006516095656
1298.000000,0.000619456117
1299.000000,0.0005665123843
1300.000000,0.0005746561743
1301.000000,0.0006081565875
1302.000000,0.0006531808584
1303.000000,0.0005814027245
1304.000000,0.0005935996352
1305.000000,0.0006989426359
1306.000000,0.000591622816
1307.000000,0.0006144891179
1308.000000,0.0006591599062
1309.000000,0.0007236271849
1310.000000,0.0006831831875
1311.000000,0.0005983929439
1312.000000,0.0005816596629
1313.000000,0.0004387388692
1314.000000,0.0005905411711
1315.000000,0.0004578683649
1316.000000,0.0004594467239
1317.000000,0.0006271819742
1318.000000,0.0005523690612
1319.000000,0.0006099589258
1320.000000,0.0005003685892
1321.000000,0.0006835282005
1322.000000,0.0005781441531
1323.000000,0.0006829154194
1324.000000,0.0006318791009
1325.000000,0.0005814695503
1326.000000,0.0005175189637
1327.000000,0.000568967339
1328.000000,0.0006490806985
1329.000000,0.0006365270799
1330.000000,0.0004477035028
1331.000000,0.00067035028
1332.000000,0.0005469312959
1333.000000,0.0006504088746
1334.000000,0.000499715
1335.000000,0.0006338521307
1336.000000,0.0004910322107
1337.000000,0.0005842744991
1338.000000,0.0005422065014
1339.000000,0.0005441468023
1340.000000,0.0005167645179
1341.000000,0.0005588098535
1342.000000,0.000400874921
1343.000000,0.0006633959002
1344.000000,0.0006727298936
1345.000000,0.0005331378078
1346.000000,0.0004403232876
1347.000000,0.0005145419607
1348.000000,0.000674920079
1349.000000,0.0006436891953
1350.000000,0.0005521140971
1351.000000,0.0006729243404
1352.000000,0.000480132544
1353.000000,0.0005241384344
1354.000000,0.0006340233449
1355.000000,0.0005781724355
1356.000000,0.0005300845141
1357.000000,0.0003390814519
1358.000000,0.0006587485743
1359.000000,0.0006253792603
1360.000000,0.0004201443574
1361.000000,0.0006559501052
1362.000000,0.0005960157221
1363.000000,0.0006269260579
1364.000000,0.0006952107447
1365.000000,0.0005284125337
1366.000000,0.0006755311108
1367.000000,0.0006744001685
1368.000000,0.0006840760606
1369.000000,0.0007735027375
1370.000000,0.0006778397307
1371.000000,0.0005579496687
1372.000000,0.0007961671099
1373.000000,0.0005079088582
1374.000000,0.0005747718695
1375.000000,0.0005270987947
1376.000000,0.0006158737108
1377.000000,0.0007370836431
1378.000000,0.0007614659162
1379.000000,0.0006809845351
1380.000000,0.0005767656491
1381.000000,0.0005855482422
1382.000000,0.0005839374297
1383.000000,0.000743037218
1384.000000,0.0005607534685
1385.000000,0.0007416818696
1386.000000,0.0006559694362
1387.000000,0.0006806222765
1388.000000,0.0008189778907
1389.000000,0.0006248748759
1390.000000,0.0008434105334
1391.000000,0.0005413639542
1392.000000,0.0006051627895
1393.000000,0.0005354059861
1394.000000,0.0006244681099
1395.000000,0.0007636517622
1396.000000,0.0007856925591
1397.000000,0.0007495169854
1398.000000,0.0007528593387
1399.000000,0.000616548791
1400.000000,0.0006093829752
1401.000000,0.0007811290494
1402.000000,0.0008947233747
1403.000000,0.0007333041494
1404.000000,0.0006532570875
1405.000000,0.0006378542107
1406.000000,0.0007349192189
1407.000000,0.0009735395639
1408.000000,0.0008082839112
1409.000000,0.0007396898685
1410.000000,0.0007980086273
1411.000000,0.0008272205437
1412.000000,0.000920018994
1413.000000,0.0008467320999
1414.000000,0.0008445565824
1415.000000,0.0009372732811
1416.000000,0.001027363966
1417.000000,0.001078737389
1418.000000,0.001090984333
1419.000000,0.001021726288
1420.000000,0.0009324879264
1421.000000,0.001060017879
1422.000000,0.001209946186
1423.000000,0.001094151105
1424.000000,0.001303661888
1425.000000,0.001275902346
1426.000000,0.00133963126
1427.000000,0.001580181403
1428.000000,0.001569098388
1429.000000,0.001773263419
1430.000000,0.001643034161
1431.000000,0.001964505166
1432.000000,0.002073034826
1433.000000,0.001832557466
1434.000000,0.00229607295
1435.000000,0.002659373612
1436.000000,0.002816122033
1437.000000,0.002966987252
1438.000000,0.003308443164
1439.000000,0.003579601193
1440.000000,0.004177746647
1441.000000,0.004506862616
1442.000000,0.005208773605
1443.000000,0.006152684769
1444.000000,0.006880272837
1445.000000,0.007788987794
1446.000000,0.008823666378
1447.000000,0.01010965551
1448.000000,0.01081611558
1449.000000,0.01124565431
1450.000000,0.01171033688
1451.000000,0.0113152366
1452.000000,0.01078836433
1453.000000,0.009779498273
1454.000000,0.008744068159
1455.000000,0.007910021276
1456.000000,0.006810846482
1457.000000,0.005968951983
1458.000000,0.005407316846
1459.000000,0.004578120356
1460.000000,0.004024263152
1461.000000,0.003774411815
1462.000000,0.003146670143
1463.000000,0.002947825776
1464.000000,0.002714581243
1465.000000,0.002384408979
1466.000000,0.00220791745
1467.000000,0.002214379196
1468.000000,0.002028094326
1469.000000,0.001774581317
1470.000000,0.001808640451
1471.000000,0.00180792168
1472.000000,0.001439776328
1473.000000,0.001496200356
1474.000000,0.001618422909
1475.000000,0.001420007886
1476.000000,0.001384828932
1477.000000,0.001233705872
1478.000000,0.001129082708
1479.000000,0.00128270167
1480.000000,0.001197037532
1481.000000,0.001093188934
1482.000000,0.001021481224
1483.000000,0.0008655861909
1484.000000,0.001030680091
1485.000000,0.0009227890706
1486.000000,0.0009575705673
1487.000000,0.001018385385
1488.000000,0.001015390594
1489.000000,0.0009888177261
1490.000000,0.001127247486
1491.000000,0.001004258545
1492.000000,0.0008002257011
1493.000000,0.0007810815394
1494.000000,0.001084716428
1495.000000,0.0007753984216
1496.000000,0.0008279234769
1497.000000,0.0009981481219
1498.000000,0.0009871871
1499.000000,0.000802807846
1500.000000,0.0008256619648
1501.000000,0.0006316974351
1502.000000,0.0006986250954
1503.000000,0.0007476667165
1504.000000,0.0007788135648
1505.000000,0.0007426647616
1506.000000,0.0007862522089
1507.000000,0.0009867085276
1508.000000,0.0008106604806
1509.000000,0.0007922424055
1510.000000,0.0007590434958
1511.000000,0.0007394914221
1512.000000,0.0008781199336
1513.000000,0.0006541558686
1514.000000,0.0007394865036
1515.000000,0.0006415290577
1516.000000,0.0007591771923
1517.000000,0.0007620182683
1518.000000,0.0008421021187
1519.000000,0.0008700438929
1520.000000,0.0008170984291
1521.000000,0.0009138213193
1522.000000,0.0009115405357
1523.000000,0.0007856157988
1524.000000,0.0007931039341
1525.000000,0.0005641359435
1526.000000,0.0007920961025
1527.000000,0.0007621917312
1528.000000,0.0005968119862
1529.000000,0.0007258266655
1530.000000,0.0008683678445
1531.000000,0.000652779669
1532.000000,0.0009103723311
1533.000000,0.0008333848021
1534.000000,0.0007683226383
1535.000000,0.0007826381191
1536.000000,0.000886052469
1537.000000,0.0006666185251
1538.000000,0.001021074834
1539.000000,0.0007434769107
1540.000000,0.0007567316485
1541.000000,0.0009644449764
1542.000000,0.0009312003083
1543.000000,0.0009953377566
1544.000000,0.0009788417164
1545.000000,0.0009242427075
1546.000000,0.0007723209014
1547.000000,0.000867121067
1548.000000,0.0009498894075
1549.000000,0.0009452816831
1550.000000,0.0007601261783
1551.000000,0.001089855003
1552.000000,0.001180322502
1553.000000,0.001177400649
1554.000000,0.0009552145026
1555.000000,0.001129108615
1556.000000,0.0009041973804
1557.000000,0.001320385201
1558.000000,0.0009955774676
1559.000000,0.001272970519
1560.000000,0.001395333554
1561.000000,0.001460919927
1562.000000,0.001425365468
1563.000000,0.001315163226
1564.000000,0.001523312245
1565.000000,0.001592926749
1566.000000,0.001755652974
1567.000000,0.001932026155
1568.000000,0.002032627844
1569.000000,0.002334805728
1570.000000,0.002373595601
1571.000000,0.002489362006
1572.000000,0.002957473339
1573.000000,0.003087371422
1574.000000,0.003546151313
1575.000000,0.004031739706
1576.000000,0.004404159749
1577.000000,0.005437628079
1578.000000,0.006404041701
1579.000000,0.007523419511
1580.000000,0.00886703888
1581.000000,0.0101133153
1582.000000,0.01135117687
1583.000000,0.01200070272
1584.000000,0.01159077391
1585.000000,0.01072854176
1586.000000,0.009649085085
1587.000000,0.008890310122
1588.000000,0.007736618248
1589.000000,0.007396036495
1590.000000,0.007021207857
1591.000000,0.007152801625
1592.000000,0.007296369617
1593.000000,0.007635073863
1594.000000,0.00828830644
1595.000000,0.009782776184
1596.000000,0.01150231457
1597.000000,0.01364732437
1598.000000,0.01710320519
1599.000000,0.02117794165
1600.000000,0.02604656126
1601.000000,0.03025954336
1602.000000,0.03226830671
1603.000000,0.03031884868
1604.000000,0.02591264872
1605.000000,0.0210028186
1606.000000,0.01654423753
1607.000000,0.01309780723
1608.000000,0.01052353136
1609.000000,0.008406188158
1610.000000,0.007053082001
1611.000000,0.005826488703
1612.000000,0.004998974321
1613.000000,0.004405681934
1614.000000,0.003983633849
1615.000000,0.003648864643
1616.000000,0.002978908766
1617.000000,0.002810251553
1618.000000,0.002539338082
1619.000000,0.002390864968
1620.000000,0.002218831513
1621.000000,0.002044272312
1622.000000,0.001779267602
1623.000000,0.001800399949
1624.000000,0.001749302192
1625.000000,0.001519807839
1626.000000,0.001690159026
1627.000000,0.001398677157
1628.000000,0.001296014437
1629.000000,0.001332661775
1630.000000,0.001226433307
1631.000000,0.00106947772
1632.000000,0.001161816367
1633.000000,0.001285964125
1634.000000,0.001291898873
1635.000000,0.001003110211
1636.000000,0.001121106132
1637.000000,0.001016913436
1638.000000,0.001007206837
1639.000000,0.001082578055
1640.000000,0.001019751371
1641.000000,0.0009301979227
1642.000000,0.0008034885581
1643.000000,0.0007668110491
1644.000000,0.000856790394
1645.000000,0.0008805738039
1646.000000,0.0008844981629
1647.000000,0.0008992150922
1648.000000,0.0009066112073
1649.000000,0.0005567128157
1650.000000,0.0008764078228
1651.000000,0.0006709857043
1652.000000,0.0008773802654
1653.000000,0.0007904142545
1654.000000,0.0008110768813
1655.000000,0.0006856587385
1656.000000,0.0007601739905
1657.000000,0.0005377428678
1658.000000,0.0008269148767
1659.000000,0.000677578607
1660.000000,0.0004453502786
1661.000000,0.0008043052696
1662.000000,0.0008600165451
1663.000000,0.000599174504
1664.000000,0.000802756485
1665.000000,0.0006014427176
1666.000000,0.0004449197832
1667.000000,0.0006311441152
1668.000000,0.0006951045073
1669.000000,0.0006715883614
1670.000000,0.0006645100018
1671.000000,0.0006798744242
1672.000000,0.0006681256672
1673.000000,0.0006212519246
1674.000000,0.0005792431794
1675.000000,0.000609459428
1676.000000,0.000597656284
1677.000000,0.0005994347702
1678.000000,0.0005164486792
1679.000000,0.0005696094767
1680.000000,0.0006293190788
1681.000000,0.0006493636154
1682.000000,0.0006094371769
1683.000000,0.0005949811479
1684.000000,0.0006643838076
1685.000000,0.0006900581106
1686.000000,0.000674368751
1687.000000,0.0004291930244
1688.000000,0.0005565369938
1689.000000,0.0006706038599
1690.000000,0.0006496034558
1691.000000,0.0006641317819
1692.000000,0.0006257319457
1693.000000,0.0005071457984
1694.000000,0.0007130128906
1695.000000,0.0004531065683
1696.000000,0.0006860002111
1697.000000,0.0005841938565
1698.000000,0.0004370189506
1699.000000,0.0005431657596
1700.000000,0.0007016966302
1701.000000,0.0005210620226
1702.000000,0.0004574620495
1703.000000,0.0005483012471
1704.000000,0.0004940672431
1705.000000,0.0004495443382
1706.000000,0.0006171215605
1707.000000,0.0006519810942
1708.000000,0.0005158182612
1709.000000,0.0006222115808
1710.000000,0.0005300337528
1711.000000,0.0005576804687
1712.000000,0.0005789348373
1713.000000,0.00071489202
1714.000000,0.0006153140849
1715.000000,0.0004636660285
1716.000000,0.000614203194
1717.000000,0.0005395673804
1718.000000,0.0005141383577
1719.000000,0.0004759079874
1720.000000,0.000556388663
1721.000000,0.00055215219
1722.000000,0.0005171174822
1723.000000,0.0004174101984
1724.000000,0.0003850152589
1725.000000,0.0005677562692
1726.000000,0.0005720208605
1727.000000,0.0007717725304
1728.000000,0.0005348688462
1729.000000,0.0006541687663
1730.000000,0.0006708532025
1731.000000,0.0005445474393
1732.000000,0.0005576698813
1733.000000,0.0005063550393
1734.000000,0.0007262185316
1735.000000,0.0003972357706
1736.000000,0.0005435035574
1737.000000,0.0006852821048
1738.000000,0.0005355155345
1739.000000,0.0004886152944
1740.000000,0.0005684342573
1741.000000,0.0005972928784
1742.000000,0.0006007973015
1743.000000,0.0005716867858
1744.000000,0.0006180112889
1745.000000,0.0006370619963
1746.000000,0.0004313030422
1747.000000,0.0005036110691
1748.000000,0.0006279875327
1749.000000,0.0005894075439
1750.000000,0.0005635414572
1751.000000,0.0006068737819
1752.000000,0.0006343940387
1753.000000,0.00045293485
1754.000000,0.0004156139218
1755.000000,0.0004225167452
1756.000000,0.0007233363643
1757.000000,0.0004316171027
1758.000000,0.0005132002272
1759.000000,0.0005177166874
1760.000000,0.000638982943
1761.000000,0.0003616638949
1762.000000,0.0005311947742
1763.000000,0.0006561923799
1764.000000,0.0006458816829
1765.000000,0.0005749671354
1766.000000,0.0005075921848
1767.000000,0.0007091103888
1768.000000,0.0003658089385
1769.000000,0.0006307693293
1770.000000,0.0005831611459
1771.000000,0.0005911248697
1772.000000,0.0005582851004
1773.000000,0.0005519103061
1774.000000,0.0006241641121
1775.000000,0.0004154786943
1776.000000,0.0004058305741
1777.000000,0.0005464383206
1778.000000,0.0005351198385
1779.000000,0.0005459869754
1780.000000,0.0006883848011
1781.000000,0.0004711353633
1782.000000,0.0006039271343
1783.000000,0.0005669730651
1784.000000,0.0007649215642
1785.000000,0.0003877875989
1786.000000,0.0004731503231
1787.000000,0.0004818205555
1788.000000,0.0006593120496
1789.000000,0.0004450157073
1790.000000,0.0006925611999
1791.000000,0.000686340528
1792.000000,0.0006128571511
1793.000000,0.0005698030053
1794.000000,0.0003702203585
1795.000000,0.0005438291017
1796.000000,0.0003823260942
1797.000000,0.0004889128054
1798.000000,0.0005452707183
1799.000000,0.0004938616665
1800.000000,0.0006196204288
1801.000000,0.0005114161621
1802.000000,0.0003692722596
1803.000000,0.0004179242063
1804.000000,0.0003963412287
1805.000000,0.0004918938106
1806.000000,0.0006481027081
1807.000000,0.0005737287469
1808.000000,0.0005569175086
1809.000000,0.0003942432957
1810.000000,0.0007595151039
1811.000000,0.0005195920529
1812.000000,0.0007639316112
1813.000000,0.000435322458
1814.000000,0.0004651064561
1815.000000,0.0007816859582
1816.000000,0.0004140512813
1817.000000,0.0005632542587
1818.000000,0.000487398237
1819.000000,0.0004397146727
1820.000000,0.0007370030277
1821.000000,0.0004203231089
1822.000000,0.000610322811
1823.000000,0.0006308555853
1824.000000,0.0004190910803
1825.000000,0.000330397451
1826.000000,0.0003419065675
1827.000000,0.0004398645802
1828.000000,0.0005419435267
1829.000000,0.0005530771397
1830.000000,0.0005004858416
1831.000000,0.0005087190907
1832.000000,0.0006165153856
1833.000000,0.000595788472
1834.000000,0.0005567127187
1835.000000,0.0004570062784
1836.000000,0.000596327509
1837.000000,0.0005365599622
1838.000000,0.0004435257413
1839.000000,0.0004604914046
1840.000000,0.0006409189559
1841.000000,0.000702466993
1842.000000,0.0004648321468
1843.000000,0.0003098754128
1844.000000,0.0005763073716
1845.000000,0.0004271148316
1846.000000,0.0005905723667
1847.000000,0.0004796095611
1848.000000,0.0007400491574
1849.000000,0.0005281990433
1850.000000,0.0006071461901
1851.000000,0.0003952434993
1852.000000,0.0002347086881
1853.000000,0.0005300610922
1854.000000,0.0005426156094
1855.000000,0.0005883417381
1856.000000,0.0004608242407
1857.000000,0.0003869162678
1858.000000,0.0003559464172
1859.000000,0.0005712069712
1860.000000,0.0005868199699
1861.000000,0.0004281140992
1862.000000,0.000462786567
1863.000000,0.000442672609
1864.000000,0.0003258725417
1865.000000,0.000535207986
1866.000000,0.0005998021562
1867.000000,0.0004927706633
1868.000000,0.0003727644506
1869.000000,0.000495086483
1870.000000,0.000651268861
1871.000000,0.0007277260364
1872.000000,0.0005415548873
1873.000000,0.0004356617062
1874.000000,0.0003159097791
1875.000000,0.0003597861001
1876.000000,0.0005054041954
1877.000000,0.0005367835793
1878.000000,0.0005397859483
1879.000000,0.0004877399512
1880.000000,0.0003596320407
1881.000000,0.0003562260122
1882.000000,0.0005285221856
1883.000000,0.0004312518846
1884.000000,0.0006441119199
1885.000000,0.0003676575425
1886.000000,0.0006821798116
1887.000000,0.000446742342
1888.000000,0.0005356335312
1889.000000,0.0005355542154
1890.000000,0.00047876137
1891.000000,0.0003117386452
1892.000000,0.0004647728888
1893.000000,0.0006651846291
1894.000000,0.0003847861396
1895.000000,0.000328582077
1896.000000,0.0004908338252
1897.000000,0.000471411302
1898.000000,0.0003832953084
1899.000000,0.0004372523227
1900.000000,0.000464332422
1901.000000,0.0004710842387
1902.000000,0.0005285810328
1903.000000,0.0005829025447
1904.000000,0.0005508768749
1905.000000,0.0005462780114
1906.000000,0.0006800517685
1907.000000,0.0006215027049
1908.000000,0.000220623844
1909.000000,0.0004755277125
1910.000000,0.0003541254693
1911.000000,0.0004428039807
1912.000000,0.000588762693
1913.000000,0.0004914749078
1914.000000,0.0004686933355
1915.000000,0.0006431686782
1916.000000,0.00036103351
1917.000000,0.0005019701575
1918.000000,0.0005661682703
1919.000000,0.0005136471445
1920.000000,0.0003948479344
1921.000000,0.0005088609668
1922.000000,0.0005918116888
1923.000000,0.0005467286918
1924.000000,0.0005427165297
1925.000000,0.000541636347
1926.000000,0.000524355329
1927.000000,0.000386655149
1928.000000,0.0004798165286
1929.000000,0.0005537564779
1930.000000,0.0001991681882
1931.000000,0.0005862837385
1932.000000,0.0005442556501
1933.000000,0.0004020429188
1934.000000,0.000435773985
1935.000000,0.000489973385
1936.000000,0.0005516499402
1937.000000,0.0004728531146
1938.000000,0.000626905826
1939.000000,0.000551468209
1940.000000,0.0004314490319
1941.000000,0.0004629388934
1942.000000,0.0005327663441
1943.000000,0.000582797461
1944.000000,0.000577913657
1945.000000,0.0005001051574
1946.000000,0.0005247668279
1947.000000,0.0005072603731
1948.000000,0.0005919229836
1949.000000,0.000411053409
1950.000000,0.0005699163517
1951.000000,0.0003243463461
1952.000000,0.0005546448631
1953.000000,0.0005351181046
1954.000000,0.0005094150012
1955.000000,0.0002961474106
1956.000000,0.0006660370084
1957.000000,0.0005991623008
1958.000000,0.0005118229281
1959.000000,0.0005551060567
1960.000000,0.0004152546543
1961.000000,0.0005603780445
1962.000000,0.000665117614
1963.000000,0.000391258818
1964.000000,0.0007783019071
1965.000000,0.0004652923459
1966.000000,0.0005916854104
1967.000000,0.0004262932212
1968.000000,0.0005479048312
1969.000000,0.0003814305867
1970.000000,0.0004428856683
1971.000000,0.0004858881691
1972.000000,0.0004431248443
1973.000000,0.0004845253946
1974.000000,0.0006062253388
1975.000000,0.000380883464
1976.000000,0.0003889788719
1977.000000,0.0005132225851
1978.000000,0.0004520604273
1979.000000,0.0004080674855
1980.000000,0.0005216089261
1981.000000,0.0004519324744
1982.000000,0.0005419469468
1983.000000,0.000504320939
1984.000000,0.0004881397244
1985.000000,0.0005014017344
1986.000000,0.0006105145319
1987.000000,0.0006395659427
1988.000000,0.0004921603067
1989.000000,0.0004050894591
1990.000000,0.0003569227717
1991.000000,0.0002846600658
1992.000000,0.0003903884663
1993.000000,0.0004227185004
1994.000000,0.0005026635516
1995.000000,0.0003198300843
1996.000000,0.0006508201703
1997.000000,0.0006141739284
1998.000000,0.0006323029117
1999.000000,0.0004564645929
2000.000000,0.0005321216933
