raman_shift_cm-1,intensity
200.000000,0.01024815269
201.000000,0.01122621429
202.000000,0.01016681071
203.000000,0.006953386769
204.000000,0.01143468347
205.000000,0.01042720914
206.000000,0.008366528863
207.000000,0.01063858045
208.000000,0.01037078882
209.000000,0.01028629699
210.000000,0.009690882306
211.000000,0.01066122547
212.000000,0.008331749934
213.000000,0.009268438445
214.000000,0.008732957012
215.000000,0.01084375031
216.000000,0.009706929108
217.000000,0.009020004611
218.000000,0.007968538488
219.000000,0.008955114293
220.000000,0.009603120872
221.000000,0.008886365114
222.000000,0.01222909991
223.000000,0.01155298729
224.000000,0.004062255876
225.000000,0.005787739657
226.000000,0.009300214001
227.000000,0.00882344222
228.000000,0.0100489527
229.000000,0.009988763485
230.000000,0.01391302488
231.000000,0.007373509397
232.000000,0.008837595096
233.000000,0.01360859194
234.000000,0.0108493255
235.000000,0.01086822849
236.000000,0.008615264188
237.000000,0.006294961643
238.000000,0.009834940611
239.000000,0.009647353292
240.000000,0.007250131768
241.000000,0.008061346252
242.000000,0.009300781234
243.000000,0.007612087499
244.000000,0.009357003718
245.000000,0.009802616479
246.000000,0.00950589909
247.000000,0.008372191693
248.000000,0.0105884073
249.000000,0.01123217363
250.000000,0.01018758579
251.000000,0.008066277436
252.000000,0.01104593652
253.000000,0.008513941226
254.000000,0.01146991009
255.000000,0.00739995137
256.000000,0.01136927391
257.000000,0.009473883932
258.000000,0.007204820172
259.000000,0.009022570322
260.000000,0.009736341778
261.000000,0.01024735309
262.000000,0.00744677558
263.000000,0.007420233873
264.000000,0.009951963181
265.000000,0.008678353191
266.000000,0.009898965143
267.000000,0.01097361214
268.000000,0.006226009162
269.000000,0.01031635834
270.000000,0.01203163613
271.000000,0.00892443878
272.000000,0.007866153819
273.000000,0.01115477763
274.000000,0.009913513388
275.000000,0.01151295506
276.000000,0.008965193678
277.000000,0.006532659374
278.000000,0.009365204732
279.000000,0.008498569159
280.000000,0.01112259567
281.000000,0.01004172251
282.000000,0.006367535028
283.000000,0.007310607615
284.000000,0.01148750959
285.000000,0.01088899905
286.000000,0.008254255883
287.000000,0.009461657137
288.000000,0.01056017212
289.000000,0.01036181862
290.000000,0.01137550257
291.000000,0.009950171028
292.000000,0.009448626225
293.000000,0.009151222766
294.000000,0.01168224644
295.000000,0.004991256924
296.000000,0.009303073198
297.000000,0.00972141457
298.000000,0.006880664869
299.000000,0.01040340212
300.000000,0.008245177338
301.000000,0.01122431348
302.000000,0.009364030816
303.000000,0.01104492166
304.000000,0.01194995769
305.000000,0.01049387215
306.000000,0.007920239926
307.000000,0.006510041117
308.000000,0.01333297026
309.000000,0.009340377322
310.000000,0.008283046663
311.000000,0.009880015571
312.000000,0.009227596865
313.000000,0.01128734562
314.000000,0.00960213805
315.000000,0.0097074646
316.000000,0.008033303648
317.000000,0.01047152425
318.000000,0.007453330189
319.000000,0.01082117223
320.000000,0.01257544221
321.000000,0.006472995788
322.000000,0.004667211122
323.000000,0.0109841206
324.000000,0.01471744616
325.000000,0.007683711743
326.000000,0.007249960251
327.000000,0.0107616415
328.000000,0.007985435752
329.000000,0.008701432334
330.000000,0.009019050747
331.000000,0.01064863465
332.000000,0.008765490801
333.000000,0.01003597718
334.000000,0.009261280755
335.000000,0.007819932267
336.000000,0.008834086231
337.000000,0.007598660301
338.000000,0.009864551762
339.000000,0.007244910068
340.000000,0.007396283997
341.000000,0.01248810947
342.000000,0.009473604498
343.000000,0.009471553119
344.000000,0.01060930609
345.000000,0.008812898408
346.000000,0.00935236498
347.000000,0.01048101698
348.000000,0.01026559357
349.000000,0.007194344445
350.000000,0.01131708656
351.000000,0.00843288278
352.000000,0.007595483452
353.000000,0.007873378556
354.000000,0.008843919965
355.000000,0.01302759155
356.000000,0.007243914727
357.000000,0.009956421006
358.000000,0.005469197695
359.000000,0.009863581857
360.000000,0.01137534371
361.000000,0.009184577229
362.000000,0.008423071642
363.000000,0.0101160593
364.000000,0.01084872464
365.000000,0.01096301706
366.000000,0.01356766681
367.000000,0.01019908869
368.000000,0.008283164103
369.000000,0.009289689176
370.000000,0.009382390414
371.000000,0.009847479712
372.000000,0.009483749015
373.000000,0.009947012002
374.000000,0.006233867336
375.000000,0.01131208211
376.000000,0.008636240786
377.000000,0.007189860511
378.000000,0.01110880173
379.000000,0.01229919664
380.000000,0.01064781452
381.000000,0.01006867327
382.000000,0.007717086103
383.000000,0.01540678494
384.000000,0.01144860761
385.000000,0.007314624373
386.000000,0.008134382544
387.000000,0.009681871916
388.000000,0.006503023085
389.000000,0.01003315303
390.000000,0.008925579133
391.000000,0.012233458
392.000000,0.01146662249
393.000000,0.004234349736
394.000000,0.009764451181
395.000000,0.006254356125
396.000000,0.01200204964
397.000000,0.01005018846
398.000000,0.0108003928
399.000000,0.007468362264
400.000000,0.01338139206
401.000000,0.01376060967
402.000000,0.007691047725
403.000000,0.01033373472
404.000000,0.008234796185
405.000000,0.009663499536
406.000000,0.007116391919
407.000000,0.01352856524
408.000000,0.007774853403
409.000000,0.008937101887
410.000000,0.01065750311
411.000000,0.008143010733
412.000000,0.009270333613
413.000000,0.008486014686
414.000000,0.009425048609
415.000000,0.007275862525
416.000000,0.008799398181
417.000000,0.009318124593
418.000000,0.009096251808
419.000000,0.009484884212
420.000000,0.009100818482
421.000000,0.01138857261
422.000000,0.009100162383
423.000000,0.009341816898
424.000000,0.00840459985
425.000000,0.008496345022
426.000000,0.007057467892
427.000000,0.01074078763
428.000000,0.00745147709
429.000000,0.008299383743
430.000000,0.01048044495
431.000000,0.01064578057
432.000000,0.008774029305
433.000000,0.005498494353
434.000000,0.01066415315
435.000000,0.01033624418
436.000000,0.007052493791
437.000000,0.01133891099
438.000000,0.008611812544
439.000000,0.007566748328
440.000000,0.009768206324
441.000000,0.009385624637
442.000000,0.01002937213
443.000000,0.006548590611
444.000000,0.01316121406
445.000000,0.008489236241
446.000000,0.00667503608
447.000000,0.01070030067
448.000000,0.009042427416
449.000000,0.01049318374
450.000000,0.009023719226
451.000000,0.009609339851
452.000000,0.01011168821
453.000000,0.008327499089
454.000000,0.01100754467
455.000000,0.008707387724
456.000000,0.008061813396
457.000000,0.009874146885
458.000000,0.01071158371
459.000000,0.009047738776
460.000000,0.008087938527
461.000000,0.01102956298
462.000000,0.006332766073
463.000000,0.007721915226
464.000000,0.009830893211
465.000000,0.006954628425
466.000000,0.009872868423
467.000000,0.009667027251
468.000000,0.01169969022
469.000000,0.008016148632
470.000000,0.00823806558
471.000000,0.01033021267
472.000000,0.004933548171
473.000000,0.01610696288
474.000000,0.008476048487
475.000000,0.008320992507
476.000000,0.01150002769
477.000000,0.009778821135
478.000000,0.006356705082
479.000000,0.01090143213
480.000000,0.01145836842
481.000000,0.008933368908
482.000000,0.009257752286
483.000000,0.01082695189
484.000000,0.008281278706
485.000000,0.01067371466
486.000000,0.01031749011
487.000000,0.008565644579
488.000000,0.007098536394
489.000000,0.009297816439
490.000000,0.008192085199
491.000000,0.01197581981
492.000000,0.01005752984
493.000000,0.0113259305
494.000000,0.01020627304
495.000000,0.01031472173
496.000000,0.008312436838
497.000000,0.01115944075
498.000000,0.01355326581
499.000000,0.009159504273
500.000000,0.008560790109
501.000000,0.009491884491
502.000000,0.008857578193
503.000000,0.008855060157
504.000000,0.01013604872
505.000000,0.009311485615
506.000000,0.01278840228
507.000000,0.009964712893
508.000000,0.01054897186
509.000000,0.01177508494
510.000000,0.009342829375
511.000000,0.01284362292
512.000000,0.008541459937
513.000000,0.008429868034
514.000000,0.009106762629
515.000000,0.009701690165
516.000000,0.00723326927
517.000000,0.009921134223
518.000000,0.00672639085
519.000000,0.01269337001
520.000000,0.009787254186
521.000000,0.008763452747
522.000000,0.008293104709
523.000000,0.009208626251
524.000000,0.009474099569
525.000000,0.00794694548
526.000000,0.00815200393
527.000000,0.009705797525
528.000000,0.009003617282
529.000000,0.01196918672
530.000000,0.0123179658
531.000000,0.01026496609
532.000000,0.01097537819
533.000000,0.007456215965
534.000000,0.01135394122
535.000000,0.01009958062
536.000000,0.01107616784
537.000000,0.01345940658
538.000000,0.005483818009
539.000000,0.01087017245
540.000000,0.008097564676
541.000000,0.01136717189
542.000000,0.007448434996
543.000000,0.009218297629
544.000000,0.0106833227
545.000000,0.01163937003
546.000000,0.01045599235
547.000000,0.008721728619
548.000000,0.00904813798
549.000000,0.01205068004
550.000000,0.01050623911
551.000000,0.006815326298
552.000000,0.01213467535
553.000000,0.01135147392
554.000000,0.01205458611
555.000000,0.009812251119
556.000000,0.01220003135
557.000000,0.008390644438
558.000000,0.01161914437
559.000000,0.009513911215
560.000000,0.01211208417
561.000000,0.0124707389
562.000000,0.009127762406
563.000000,0.01066682989
564.000000,0.01093002216
565.000000,0.01328743447
566.000000,0.01226317012
567.000000,0.008526225452
568.000000,0.01193985233
569.000000,0.01240815454
570.000000,0.01526421471
571.000000,0.007791425338
572.000000,0.01002486137
573.000000,0.01376553444
574.000000,0.008703522367
575.000000,0.009038814586
576.000000,0.01239541859
577.000000,0.01350391965
578.000000,0.01026832269
579.000000,0.01268816822
580.000000,0.01216977366
581.000000,0.01512314223
582.000000,0.01214064736
583.000000,0.01415411181
584.000000,0.01059866357
585.000000,0.01215544738
586.000000,0.01254490537
587.000000,0.01516010957
588.000000,0.01427510404
589.000000,0.01168929749
590.000000,0.01474918042
591.000000,0.01531309384
592.000000,0.01380747065
593.000000,0.01387018097
594.000000,0.01423980304
595.000000,0.01167608032
596.000000,0.0157354202
597.000000,0.01659438478
598.000000,0.01481238712
599.000000,0.0186617818
600.000000,0.0152452433
601.000000,0.01763747985
602.000000,0.01897053251
603.000000,0.02468016269
604.000000,0.01919194545
605.000000,0.02487532778
606.000000,0.0277333912
607.000000,0.02866345758
608.000000,0.03321172716
609.000000,0.03222276223
610.000000,0.03396105619
611.000000,0.04535584781
612.000000,0.04847533111
613.000000,0.05938315026
614.000000,0.06901563688
615.000000,0.08835022173
616.000000,0.1070392803
617.000000,0.1266100726
618.000000,0.1542436279
619.000000,0.1729564561
620.000000,0.1806182161
621.000000,0.172679259
622.000000,0.1520318096
623.000000,0.1293982696
624.000000,0.1056896815
625.000000,0.08561847338
626.000000,0.07344589135
627.000000,0.05855795311
628.000000,0.05133075003
629.000000,0.04490393167
630.000000,0.04132675603
631.000000,0.03336398384
632.000000,0.03424527999
633.000000,0.02836970448
634.000000,0.02541702722
635.000000,0.02244542454
636.000000,0.02363890023
637.000000,0.02094322794
638.000000,0.01764424552
639.000000,0.01666981162
640.000000,0.0168449887
641.000000,0.01584304855
642.000000,0.01876705644
643.000000,0.01865454491
644.000000,0.01723816047
645.000000,0.01575817693
646.000000,0.01397794835
647.000000,0.01452973574
648.000000,0.01583131868
649.000000,0.01809985476
650.000000,0.01537693567
651.000000,0.0127469368
652.000000,0.0131321392
653.000000,0.0119943693
654.000000,0.01124481966
655.000000,0.0123290723
656.000000,0.01294839898
657.000000,0.01588764694
658.000000,0.01232132856
659.000000,0.01473014181
660.000000,0.01565281101
661.000000,0.01224136298
662.000000,0.01511941203
663.000000,0.01302959262
664.000000,0.01069392439
665.000000,0.01205981128
666.000000,0.01162046307
667.000000,0.01097930665
668.000000,0.0110037477
669.000000,0.01163896869
670.000000,0.01238313504
671.000000,0.009531636055
672.000000,0.01117037169
673.000000,0.00793118162
674.000000,0.01159312069
675.000000,0.0121572748
676.000000,0.01138233284
677.000000,0.01157909304
678.000000,0.01252105286
679.000000,0.009545712841
680.000000,0.01036226583
681.000000,0.01171506492
682.000000,0.01289817041
683.000000,0.01160379105
684.000000,0.01597871051
685.000000,0.01071777922
686.000000,0.01283523496
687.000000,0.01331551787
688.000000,0.0103286122
689.000000,0.009075703155
690.000000,0.008417126471
691.000000,0.01100100126
692.000000,0.01287780825
693.000000,0.0112792404
694.000000,0.01088988713
695.000000,0.01008001196
696.000000,0.01178498622
697.000000,0.006296207074
698.000000,0.01122658267
699.000000,0.01064253096
700.000000,0.007747620666
701.000000,0.01491936639
702.000000,0.008004421417
703.000000,0.008525440252
704.000000,0.008080861241
705.000000,0.01279559459
706.000000,0.008829096399
707.000000,0.01189776987
708.000000,0.01170849653
709.000000,0.0111974794
710.000000,0.008023593675
711.000000,0.009374338656
712.000000,0.01401731686
713.000000,0.008053100008
714.000000,0.008833472127
715.000000,0.01040490768
716.000000,0.01206473897
717.000000,0.01096234715
718.000000,0.01231080244
719.000000,0.008544059132
720.000000,0.01252983439
721.000000,0.01189955419
722.000000,0.007582128302
723.000000,0.01381337366
724.000000,0.01523427084
725.000000,0.009251943452
726.000000,0.01068219056
727.000000,0.01353605196
728.000000,0.007835738097
729.000000,0.006682229013
730.000000,0.008170486971
731.000000,0.009677342226
732.000000,0.009747374346
733.000000,0.0119285914
734.000000,0.01137682562
735.000000,0.008476334482
736.000000,0.01226950655
737.000000,0.01471853994
738.000000,0.01354867777
739.000000,0.01322852493
740.000000,0.01117963576
741.000000,0.01308940288
742.000000,0.009131126902
743.000000,0.01270938249
744.000000,0.01102725195
745.000000,0.01371650678
746.000000,0.0123193726
747.000000,0.009249398218
748.000000,0.01167159191
749.000000,0.01399100209
750.000000,0.009296053059
751.000000,0.010640646
752.000000,0.01021418358
753.000000,0.008839086473
754.000000,0.01401017509
755.000000,0.01466475431
756.000000,0.01379762078
757.000000,0.01295452536
758.000000,0.0122017043
759.000000,0.01304931571
760.000000,0.01130049717
761.000000,0.01466029849
762.000000,0.01508249912
763.000000,0.0149057061
764.000000,0.01234971595
765.000000,0.01372794753
766.000000,0.01339514805
767.000000,0.01765888233
768.000000,0.01468749601
769.000000,0.01105133598
770.000000,0.01585849317
771.000000,0.01932339246
772.000000,0.01728112026
773.000000,0.01840170247
774.000000,0.01728577035
775.000000,0.01374074677
776.000000,0.01498061047
777.000000,0.0170115182
778.000000,0.02022984646
779.000000,0.02237020265
780.000000,0.02431880871
781.000000,0.02415596739
782.000000,0.02858335697
783.000000,0.02837830502
784.000000,0.03035845086
785.000000,0.03690522634
786.000000,0.0374645448
787.000000,0.03867635017
788.000000,0.04819678251
789.000000,0.05760340459
790.000000,0.06003876031
791.000000,0.07509305926
792.000000,0.0853163357
793.000000,0.09275805282
794.000000,0.09938963848
795.000000,0.1040660707
796.000000,0.1014327692
797.000000,0.09816450716
798.000000,0.0869009809
799.000000,0.07259909005
800.000000,0.06447066864
801.000000,0.05904759095
802.000000,0.05405335963
803.000000,0.0447504725
804.000000,0.03983196326
805.000000,0.03880215997
806.000000,0.03172914425
807.000000,0.02831831755
808.000000,0.02400812141
809.000000,0.02377841529
810.000000,0.02745745802
811.000000,0.01889612883
812.000000,0.0205929928
813.000000,0.01678117881
814.000000,0.01893163011
815.000000,0.01973403889
816.000000,0.01696511474
817.000000,0.01820069238
818.000000,0.01749412417
819.000000,0.01637683851
820.000000,0.01847881253
821.000000,0.01640857929
822.000000,0.0138321318
823.000000,0.01278276117
824.000000,0.01234650081
825.000000,0.01484744328
826.000000,0.01285574999
827.000000,0.01894096992
828.000000,0.01684098534
829.000000,0.01246755033
830.000000,0.01228843588
831.000000,0.01604161693
832.000000,0.008644829227
833.000000,0.01147750064
834.000000,0.01415640994
835.000000,0.01029094373
836.000000,0.01098509088
837.000000,0.01130773128
838.000000,0.01314320594
839.000000,0.0121511321
840.000000,0.01265883656
841.000000,0.01289434648
842.000000,0.01179538357
843.000000,0.01389713853
844.000000,0.010169108
845.000000,0.008874619339
846.000000,0.007907349853
847.000000,0.00831335558
848.000000,0.01029885068
849.000000,0.01326704099
850.000000,0.01171761857
851.000000,0.01014182791
852.000000,0.00897830352
853.000000,0.0101137078
854.000000,0.01029472642
855.000000,0.01008043238
856.000000,0.008212282056
857.000000,0.01024785132
858.000000,0.01321290261
859.000000,0.006683798664
860.000000,0.01065423059
861.000000,0.006740464406
862.000000,0.01117229395
863.000000,0.009705673762
864.000000,0.00692367686
865.000000,0.01109809295
866.000000,0.0146479265
867.000000,0.01109118011
868.000000,0.01340594989
869.000000,0.01079799433
870.000000,0.006667680154
871.000000,0.0119292679
872.000000,0.01008803682
873.000000,0.008151720421
874.000000,0.0126279514
875.000000,0.01138240228
876.000000,0.009866973126
877.000000,0.01267185946
878.000000,0.009206585388
879.000000,0.01219821163
880.000000,0.009183055139
881.000000,0.01211826833
882.000000,0.008621267546
883.000000,0.01391989926
884.000000,0.01138434408
885.000000,0.01389185333
886.000000,0.009188415768
887.000000,0.009990355805
888.000000,0.01261506585
889.000000,0.005448991305
890.000000,0.008945522813
891.000000,0.01326110531
892.000000,0.01205532905
893.000000,0.01282224807
894.000000,0.01028899055
895.000000,0.01221278616
896.000000,0.009630793537
897.000000,0.008227667358
898.000000,0.00771616062
899.000000,0.01012981688
900.000000,0.009894027083
901.000000,0.009827915047
902.000000,0.004305121377
903.000000,0.00720272331
904.000000,0.01010731797
905.000000,0.01173204268
906.000000,0.01005338653
907.000000,0.009556912724
908.000000,0.006663627903
909.000000,0.01530533034
910.000000,0.009140181866
911.000000,0.01474438941
912.000000,0.01436241624
913.000000,0.01203569983
914.000000,0.01031095704
915.000000,0.01191799815
916.000000,0.009120676372
917.000000,0.01195116199
918.000000,0.01149655873
919.000000,0.01255200505
920.000000,0.01347238628
921.000000,0.01508423194
922.000000,0.01086754405
923.000000,0.01384545196
924.000000,0.01007182998
925.000000,0.01006354953
926.000000,0.01077361169
927.000000,0.00986218365
928.000000,0.01373618867
929.000000,0.01395500066
930.000000,0.01462130898
931.000000,0.01214084927
932.000000,0.01276860145
933.000000,0.0110818176
934.000000,0.01012981293
935.000000,0.01329655961
936.000000,0.01312840284
937.000000,0.01036143859
938.000000,0.0138849735
939.000000,0.009298900882
940.000000,0.01257510912
941.000000,0.01146738284
942.000000,0.0118337525
943.000000,0.01106603181
944.000000,0.01510890358
945.000000,0.01445159051
946.000000,0.01580276367
947.000000,0.01389286033
948.000000,0.01094259718
949.000000,0.01302979882
950.000000,0.01146008062
951.000000,0.01488079415
952.000000,0.01645857616
953.000000,0.01518080244
954.000000,0.01314704395
955.000000,0.01384248205
956.000000,0.01526191322
957.000000,0.01199485636
958.000000,0.01563275779
959.000000,0.01591487341
960.000000,0.01484671263
961.000000,0.01519422871
962.000000,0.01676996899
963.000000,0.01517403079
964.000000,0.01526482989
965.000000,0.01908813632
966.000000,0.01835529921
967.000000,0.0217333105
968.000000,0.01694191878
969.000000,0.01575734199
970.000000,0.02175581541
971.000000,0.02246073052
972.000000,0.02003901275
973.000000,0.01901282694
974.000000,0.02284511979
975.000000,0.02047109012
976.000000,0.02416846316
977.000000,0.02167880354
978.000000,0.02706620176
979.000000,0.02446622673
980.000000,0.03032843716
981.000000,0.03586822414
982.000000,0.03452416242
983.000000,0.0389919277
984.000000,0.03943387182
985.000000,0.04262082031
986.000000,0.04575469715
987.000000,0.05616258577
988.000000,0.06041829939
989.000000,0.07174762148
990.000000,0.07603156604
991.000000,0.09072735564
992.000000,0.108254787
993.000000,0.1330827079
994.000000,0.1643196819
995.000000,0.2023489334
996.000000,0.263006326
997.000000,0.3526172562
998.000000,0.4920440572
999.000000,0.6720279262
1000.000000,0.8686037205
1001.000000,0.9649968895
1002.000000,0.8654205606
1003.000000,0.670145416
1004.000000,0.4933021337
1005.000000,0.3597669056
1006.000000,0.2692618433
1007.000000,0.2061204517
1008.000000,0.167506378
1009.000000,0.1403051696
1010.000000,0.1130805564
1011.000000,0.1001331587
1012.000000,0.08764803042
1013.000000,0.08103110779
1014.000000,0.07406484175
1015.000000,0.06950796368
1016.000000,0.06518826128
1017.000000,0.06562492432
1018.000000,0.06415967583
1019.000000,0.06649180391
1020.000000,0.06939124362
1021.000000,0.0757351169
1022.000000,0.08015570445
1023.000000,0.09074598487
1024.000000,0.1077522411
1025.000000,0.1254153187
1026.000000,0.1540594966
1027.000000,0.1971046145
1028.000000,0.2520253849
1029.000000,0.3216879133
1030.000000,0.3892551129
1031.000000,0.4157327329
1032.000000,0.3886129208
1033.000000,0.3216188358
1034.000000,0.2488806559
1035.000000,0.1871173779
1036.000000,0.1486453522
1037.000000,0.1159786715
1038.000000,0.09559284872
1039.000000,0.08019304756
1040.000000,0.06566905347
1041.000000,0.06144298597
1042.000000,0.0515863526
1043.000000,0.04766613517
1044.000000,0.04291648334
1045.000000,0.04047118767
1046.000000,0.03712467784
1047.000000,0.02922403964
1048.000000,0.02996586581
1049.000000,0.02399961741
1050.000000,0.02566911843
1051.000000,0.02675520235
1052.000000,0.02590680058
1053.000000,0.02561018751
1054.000000,0.02136121942
1055.000000,0.02189355353
1056.000000,0.02081025877
1057.000000,0.02245722775
1058.000000,0.02245847441
1059.000000,0.01790842786
1060.000000,0.02596885224
1061.000000,0.01804904082
1062.000000,0.01678922403
1063.000000,0.01829786834
1064.000000,0.01827137588
1065.000000,0.01754725989
1066.000000,0.01476301889
1067.000000,0.018768227
1068.000000,0.01579242491
1069.000000,0.01857953465
1070.000000,0.01807167766
1071.000000,0.01254926185
1072.000000,0.01294645979
1073.000000,0.01287517058
1074.000000,0.01511213143
1075.000000,0.01457484776
1076.000000,0.01484838941
1077.000000,0.01256982549
1078.000000,0.01484098632
1079.000000,0.01680940901
1080.000000,0.01122231332
1081.000000,0.01331056802
1082.000000,0.01419125978
1083.000000,0.01330962349
1084.000000,0.01305579465
1085.000000,0.01694459269
1086.000000,0.01592806262
1087.000000,0.01504723128
1088.000000,0.0116850281
1089.000000,0.01769288062
1090.000000,0.01395774821
1091.000000,0.01200531806
1092.000000,0.01255836201
1093.000000,0.01219820724
1094.000000,0.01748569585
1095.000000,0.01351248541
1096.000000,0.01300911811
1097.000000,0.008752484589
1098.000000,0.01438906698
1099.000000,0.01087182887
1100.000000,0.01079706767
1101.000000,0.01408089908
1102.000000,0.01121157613
1103.000000,0.01485488559
1104.000000,0.01516364985
1105.000000,0.0095733595
1106.000000,0.01281578455
1107.000000,0.009886393852
1108.000000,0.01304291155
1109.000000,0.01489084976
1110.000000,0.01042203706
1111.000000,0.01704157008
1112.000000,0.01276395132
1113.000000,0.01101021998
1114.000000,0.01328767164
1115.000000,0.01516749393
1116.000000,0.0108189257
1117.000000,0.01372672766
1118.000000,0.01121213033
1119.000000,0.01638166848
1120.000000,0.01449808217
1121.000000,0.01354836907
1122.000000,0.01662684883
1123.000000,0.01202087617
1124.000000,0.01404543297
1125.000000,0.01874529309
1126.000000,0.01516840505
1127.000000,0.01831003607
1128.000000,0.0163795314
1129.000000,0.01492117873
1130.000000,0.01613616637
1131.000000,0.01733572484
1132.000000,0.01664261271
1133.000000,0.01618123734
1134.000000,0.01709319794
1135.000000,0.0165520833
1136.000000,0.02047999772
1137.000000,0.02211825272
1138.000000,0.02380689401
1139.000000,0.01988987957
1140.000000,0.02661346157
1141.000000,0.02692076185
1142.000000,0.02610909818
1143.000000,0.0316672205
1144.000000,0.03620136918
1145.000000,0.03975576557
1146.000000,0.0450196233
1147.000000,0.05144052105
1148.000000,0.05930214357
1149.000000,0.06687365882
1150.000000,0.07485422962
1151.000000,0.09223621969
1152.000000,0.1114091252
1153.000000,0.1266319087
1154.000000,0.1423876089
1155.000000,0.1477554514
1156.000000,0.1415106946
1157.000000,0.1321073127
1158.000000,0.1097856292
1159.000000,0.09710811452
1160.000000,0.08033801834
1161.000000,0.0678773068
1162.000000,0.06134936482
1163.000000,0.05196071566
1164.000000,0.04959020644
1165.000000,0.04122960582
1166.000000,0.0405584938
1167.000000,0.03664788171
1168.000000,0.03646817207
1169.000000,0.03531448404
1170.000000,0.03353030853
1171.000000,0.0375383987
1172.000000,0.03488099874
1173.000000,0.03708273854
1174.000000,0.04343940439
1175.000000,0.04745266417
1176.000000,0.05204049081
1177.000000,0.05846613253
1178.000000,0.07170229152
1179.000000,0.07678818947
1180.000000,0.09268676669
1181.000000,0.1082958437
1182.000000,0.1253081145
1183.000000,0.1288915209
1184.000000,0.1248814276
1185.000000,0.1110398731
1186.000000,0.09200251988
1187.000000,0.07547213592
1188.000000,0.06215415396
1189.000000,0.05848563913
1190.000000,0.04806239774
1191.000000,0.04144629841
1192.000000,0.0347163305
1193.000000,0.03124166891
1194.000000,0.02810786567
1195.000000,0.02542156217
1196.000000,0.01954767465
1197.000000,0.02242288931
1198.000000,0.0206370624
1199.000000,0.02080010876
1200.000000,0.01953054136
1201.000000,0.02007589642
1202.000000,0.01763645655
1203.000000,0.0186242514
1204.000000,0.01152408892
1205.000000,0.0138632559
1206.000000,0.01914636296
1207.000000,0.01275994812
1208.000000,0.01437343181
1209.000000,0.01598865659
1210.000000,0.01253662214
1211.000000,0.01549204083
1212.000000,0.01096272892
1213.000000,0.009846145849
1214.000000,0.01086426939
1215.000000,0.01000202384
1216.000000,0.01293997199
1217.000000,0.01226155401
1218.000000,0.01339590291
1219.000000,0.01046151581
1220.000000,0.01775709631
1221.000000,0.01220195225
1222.000000,0.01235786423
1223.000000,0.01319172585
1224.000000,0.01162231064
1225.000000,0.01065006981
1226.000000,0.01224614755
1227.000000,0.01376990946
1228.000000,0.01306968259
1229.000000,0.01382187452
1230.000000,0.01056362883
1231.000000,0.01015174027
1232.000000,0.01571332827
1233.000000,0.0110726571
1234.000000,0.01241402878
1235.000000,0.01303879207
1236.000000,0.01423074695
1237.000000,0.008666191523
1238.000000,0.01051036862
1239.000000,0.01028670362
1240.000000,0.01056162945
1241.000000,0.006500185436
1242.000000,0.01107364547
1243.000000,0.005311796604
1244.000000,0.01179344703
1245.000000,0.01237924354
1246.000000,0.01218468554
1247.000000,0.008658062957
1248.000000,0.01276403097
1249.000000,0.009257708626
1250.000000,0.008526191023
1251.000000,0.008730502311
1252.000000,0.009280329056
1253.000000,0.01137992568
1254.000000,0.0125481891
1255.000000,0.006587578819
1256.000000,0.009922183268
1257.000000,0.01276669979
1258.000000,0.01121976043
1259.000000,0.01218073117
1260.000000,0.007943133119
1261.000000,0.01264751965
1262.000000,0.007737368985
1263.000000,0.01134694547
1264.000000,0.0133222421
1265.000000,0.01468070635
1266.000000,0.01184554874
1267.000000,0.01255903845
1268.000000,0.009529020682
1269.000000,0.009814699721
1270.000000,0.01307867225
1271.000000,0.01072072201
1272.000000,0.01046925322
1273.000000,0.007877136332
1274.000000,0.01123942145
1275.000000,0.01194112342
1276.000000,0.009239144603
1277.000000,0.009883446396
1278.000000,0.01369798301
1279.000000,0.01115490239
1280.000000,0.01006960098
1281.000000,0.008463357396
1282.000000,0.009484374883
1283.000000,0.01010326901
1284.000000,0.01349096076
1285.000000,0.009386190404
1286.000000,0.01419191785
1287.000000,0.008664662128
1288.000000,0.00995439125
1289.000000,0.0122161233
1290.000000,0.009979271347
1291.000000,0.008810856994
1292.000000,0.0103063523
1293.000000,0.01148002863
1294.000000,0.006910253027
1295.000000,0.009905794285
1296.000000,0.01048375952
1297.000000,0.009725868154
1298.000000,0.01203645989
1299.000000,0.009482096036
1300.000000,0.009882813016
1301.000000,0.01065469011
1302.000000,0.01199341754
1303.000000,0.01016678681
1304.000000,0.01363200018
1305.000000,0.008680192854
1306.000000,0.01317842172
1307.000000,0.008869605175
1308.000000,0.01021744506
1309.000000,0.01121048406
1310.000000,0.01463607842
1311.000000,0.01240668833
1312.000000,0.009824176987
1313.000000,0.0133814839
1314.000000,0.01020874735
1315.000000,0.00919094674
1316.000000,0.01167493602
1317.000000,0.01080438136
1318.000000,0.01260349927
1319.000000,0.009545323874
1320.000000,0.01152393642
1321.000000,0.01185372646
1322.000000,0.01125328567
1323.000000,0.01054196925
1324.000000,0.009263585188
1325.000000,0.01252492696
1326.000000,0.01106436414
1327.000000,0.01173997223
1328.000000,0.009974955821
1329.000000,0.01072472243
1330.000000,0.008823079875
1331.000000,0.0108563418
1332.000000,0.01234993115
1333.000000,0.01091322775
1334.000000,0.01260834714
1335.000000,0.01139330087
1336.000000,0.01365050903
1337.000000,0.01046240255
1338.000000,0.007620722687
1339.000000,0.01177491084
1340.000000,0.01062132135
1341.000000,0.008975958644
1342.000000,0.0124004236
1343.000000,0.011379981
1344.000000,0.01174917201
1345.000000,0.01035041419
1346.000000,0.01151974604
1347.000000,0.01157839388
1348.000000,0.01447756305
1349.000000,0.009611133635
1350.000000,0.01106988657
1351.000000,0.01171873253
1352.000000,0.007755905997
1353.000000,0.007977966181
1354.000000,0.01542886581
1355.000000,0.007642865026
1356.000000,0.01239991546
1357.000000,0.009770352238
1358.000000,0.009647470036
1359.000000,0.00726971251
1360.000000,0.009667110303
1361.000000,0.01283115785
1362.000000,0.008575540555
1363.000000,0.0125447793
1364.000000,0.01194521324
1365.000000,0.01555621635
1366.000000,0.01045889551
1367.000000,0.01397272297
1368.000000,0.01325215158
1369.000000,0.01085130362
1370.000000,0.008235573219
1371.000000,0.01474303988
1372.000000,0.008801628437
1373.000000,0.01091806149
1374.000000,0.01361246579
1375.000000,0.01417572766
1376.000000,0.01021622871
1377.000000,0.01177614728
1378.000000,0.01135512361
1379.000000,0.01437478848
1380.000000,0.01718659621
1381.000000,0.008572884146
1382.000000,0.01413404926
1383.000000,0.006495675023
1384.000000,0.0124955273
1385.000000,0.01014533392
1386.000000,0.01651224501
1387.000000,0.01292045816
1388.000000,0.01106359966
1389.000000,0.01182466496
1390.000000,0.01155075144
1391.000000,0.01348144367
1392.000000,0.01283132345
1393.000000,0.01464126769
1394.000000,0.01643898002
1395.000000,0.01474644338
1396.000000,0.0110006944
1397.000000,0.0103796585
1398.000000,0.01225930446
1399.000000,0.01616751151
1400.000000,0.01356184388
1401.000000,0.01289852629
1402.000000,0.01458069528
1403.000000,0.01182999646
1404.000000,0.01267034845
1405.000000,0.01620644181
1406.000000,0.0147184616
1407.000000,0.01443169159
1408.000000,0.01640814344
1409.000000,0.01496025184
1410.000000,0.01500852351
1411.000000,0.01576465995
1412.000000,0.01815437524
1413.000000,0.01752758268
1414.000000,0.01543725905
1415.000000,0.01757811248
1416.000000,0.01987902255
1417.000000,0.02280342675
1418.000000,0.01734293031
1419.000000,0.02100486392
1420.000000,0.02058992808
1421.000000,0.02338841086
1422.000000,0.0233199247
1423.000000,0.02640049539
1424.000000,0.02530323923
1425.000000,0.02433186984
1426.000000,0.0255401355
1427.000000,0.02859553287
1428.000000,0.03016529049
1429.000000,0.03574736716
1430.000000,0.03644882048
1431.000000,0.03271695905
1432.000000,0.03826995046
1433.000000,0.03814661968
1434.000000,0.04049057367
1435.000000,0.04893074182
1436.000000,0.05305369894
1437.000000,0.05517826452
1438.000000,0.06661337438
1439.000000,0.06866338037
1440.000000,0.07662914454
1441.000000,0.09052197031
1442.000000,0.1014391891
1443.000000,0.1143416659
1444.000000,0.1306321824
1445.000000,0.1491652218
1446.000000,0.1675823234
1447.000000,0.186254657
1448.000000,0.1996439066
1449.000000,0.212534792
1450.000000,0.2203848003
1451.000000,0.2137584835
1452.000000,0.204589875
1453.000000,0.1894546559
1454.000000,0.1673031053
1455.000000,0.1492525185
1456.000000,0.1350968095
1457.000000,0.1163625952
1458.000000,0.1046270992
1459.000000,0.09237523893
1460.000000,0.08080622459
1461.000000,0.07039992818
1462.000000,0.0620225089
1463.000000,0.05528874508
1464.000000,0.05328099372
1465.000000,0.04893075134
1466.000000,0.04383596817
1467.000000,0.04243839162
1468.000000,0.03673981183
1469.000000,0.03782890608
1470.000000,0.03338521157
1471.000000,0.0312393019
1472.000000,0.02992003926
1473.000000,0.02810811262
1474.000000,0.03177326116
1475.000000,0.02253479039
1476.000000,0.02503942455
1477.000000,0.0263289293
1478.000000,0.02448352507
1479.000000,0.02148042441
1480.000000,0.02491650526
1481.000000,0.01873665041
1482.000000,0.01772622246
1483.000000,0.02107772921
1484.000000,0.01636216966
1485.000000,0.01416051837
1486.000000,0.02022332259
1487.000000,0.01953007216
1488.000000,0.01911698961
1489.000000,0.01637459256
1490.000000,0.01727346583
1491.000000,0.01482002215
1492.000000,0.02016514709
1493.000000,0.0180592016
1494.000000,0.01743782284
1495.000000,0.01215925285
1496.000000,0.01743342083
1497.000000,0.01846304019
1498.000000,0.01775844732
1499.000000,0.0169408738
1500.000000,0.01520177683
1501.000000,0.01458880417
1502.000000,0.01629385758
1503.000000,0.01570172458
1504.000000,0.01528152713
1505.000000,0.01413882193
1506.000000,0.01799671706
1507.000000,0.01202637241
1508.000000,0.0144286025
1509.000000,0.01327482958
1510.000000,0.0164822598
1511.000000,0.01725511525
1512.000000,0.01670656722
1513.000000,0.01592229873
1514.000000,0.01149619867
1515.000000,0.01854307197
1516.000000,0.01528349943
1517.000000,0.01402331996
1518.000000,0.01420192843
1519.000000,0.01345647246
1520.000000,0.01504650263
1521.000000,0.01473842211
1522.000000,0.01342206355
1523.000000,0.009156199926
1524.000000,0.01425203836
1525.000000,0.01554481822
1526.000000,0.01546167523
1527.000000,0.014184896
1528.000000,0.0156230477
1529.000000,0.01671011659
1530.000000,0.01364364055
1531.000000,0.01781292045
1532.000000,0.01080085536
1533.000000,0.01236261554
1534.000000,0.01324461641
1535.000000,0.01026584542
1536.000000,0.01317561746
1537.000000,0.01802528448
1538.000000,0.01780195609
1539.000000,0.01594761729
1540.000000,0.01935047174
1541.000000,0.01636189859
1542.000000,0.01511707727
1543.000000,0.01674389552
1544.000000,0.01623173724
1545.000000,0.0182796865
1546.000000,0.01422076414
1547.000000,0.01941980998
1548.000000,0.01673196655
1549.000000,0.01970536316
1550.000000,0.01546588262
1551.000000,0.01777991704
1552.000000,0.01911996905
1553.000000,0.02124532718
1554.000000,0.01774973267
1555.000000,0.02391601864
1556.000000,0.02239807335
1557.000000,0.0206557317
1558.000000,0.02523032977
1559.000000,0.02357084439
1560.000000,0.02650277211
1561.000000,0.02982113076
1562.000000,0.02793105962
1563.000000,0.02678604246
1564.000000,0.02829386937
1565.000000,0.03196735387
1566.000000,0.03319649903
1567.000000,0.03306694504
1568.000000,0.03595962824
1569.000000,0.04144963977
1570.000000,0.04846961146
1571.000000,0.04281477835
1572.000000,0.05437986662
1573.000000,0.05886701879
1574.000000,0.06837187735
1575.000000,0.07797694132
1576.000000,0.08837117412
1577.000000,0.1007293465
1578.000000,0.1183038086
1579.000000,0.1396160235
1580.000000,0.1712010039
1581.000000,0.194302393
1582.000000,0.214426884
1583.000000,0.2244520619
1584.000000,0.2179003079
1585.000000,0.2054957741
1586.000000,0.1871854774
1587.000000,0.1671586378
1588.000000,0.1465746356
1589.000000,0.1415618176
1590.000000,0.1316516519
1591.000000,0.1282355335
1592.000000,0.1335495474
1593.000000,0.1433100112
1594.000000,0.160546864
1595.000000,0.1809495168
1596.000000,0.2126073986
1597.000000,0.2609799789
1598.000000,0.3273182395
1599.000000,0.4025777228
1600.000000,0.4973655516
1601.000000,0.5783098444
1602.000000,0.6165481525
1603.000000,0.5717193517
1604.000000,0.4935420896
1605.000000,0.3935858336
1606.000000,0.3118184334
1607.000000,0.2474958486
1608.000000,0.2048207204
1609.000000,0.160320708
1610.000000,0.1302997201
1611.000000,0.1157105357
1612.000000,0.09510186608
1613.000000,0.08340568905
1614.000000,0.07351718424
1615.000000,0.06540597776
1616.000000,0.05842937562
1617.000000,0.05358363155
1618.000000,0.04916396363
1619.000000,0.04607980879
1620.000000,0.04013851271
1621.000000,0.03661887132
1622.000000,0.03361333698
1623.000000,0.03460366598
1624.000000,0.03135949194
1625.000000,0.03100953975
1626.000000,0.02923308412
1627.000000,0.0304164462
1628.000000,0.02630700488
1629.000000,0.02623255827
1630.000000,0.02141223214
1631.000000,0.02089381895
1632.000000,0.02150334906
1633.000000,0.01880847814
1634.000000,0.02192020039
1635.000000,0.01752707136
1636.000000,0.01962723333
1637.000000,0.01414010513
1638.000000,0.01635959719
1639.000000,0.01735616993
1640.000000,0.01715305362
1641.000000,0.01378182822
1642.000000,0.01734110933
1643.000000,0.01876709967
1644.000000,0.01770353452
1645.000000,0.01476650949
1646.000000,0.01462452764
1647.000000,0.01314854748
1648.000000,0.01652601867
1649.000000,0.01826701456
1650.000000,0.01379295702
1651.000000,0.01144798781
1652.000000,0.01484209637
1653.000000,0.01576012103
1654.000000,0.00870509341
1655.000000,0.01438607961
1656.000000,0.01820677714
1657.000000,0.01559283486
1658.000000,0.01462180702
1659.000000,0.01433991356
1660.000000,0.01576361352
1661.000000,0.01127649851
1662.000000,0.01129609129
1663.000000,0.01395171323
1664.000000,0.01145629476
1665.000000,0.01344432737
1666.000000,0.009161392174
1667.000000,0.01422343246
1668.000000,0.01424865556
1669.000000,0.01258043241
1670.000000,0.01274734002
1671.000000,0.01556607052
1672.000000,0.01009508709
1673.000000,0.01040954987
1674.000000,0.01002077057
1675.000000,0.01126187048
1676.000000,0.01003651469
1677.000000,0.01206920283
1678.000000,0.01071695815
1679.000000,0.009009470587
1680.000000,0.008692254648
1681.000000,0.01414238508
1682.000000,0.01156960662
1683.000000,0.01121728599
1684.000000,0.01160753177
1685.000000,0.01131744255
1686.000000,0.01296507238
1687.000000,0.0127790037
1688.000000,0.01030559757
1689.000000,0.00968311005
1690.000000,0.009138229435
1691.000000,0.008756620061
1692.000000,0.01406449523
1693.000000,0.009509765302
1694.000000,0.007064024269
1695.000000,0.009641233622
1696.000000,0.009485765039
1697.000000,0.01179213676
1698.000000,0.009476703338
1699.000000,0.01218197317
1700.000000,0.01170178643
1701.000000,0.01361064081
1702.000000,0.01544696989
1703.000000,0.01669311251
1704.000000,0.01372509682
1705.000000,0.008723141742
1706.000000,0.01004183536
1707.000000,0.01128658847
1708.000000,0.01504026481
1709.000000,0.01212801485
1710.000000,0.01325144014
1711.000000,0.0104474534
1712.000000,0.01193352608
1713.000000,0.01203276581
1714.000000,0.009763232895
1715.000000,0.01236253668
1716.000000,0.01277982341
1717.000000,0.0103774253
1718.000000,0.01273764268
1719.000000,0.01401768389
1720.000000,0.010756505
1721.000000,0.01061180084
1722.000000,0.0100103623
1723.000000,0.009474469544
1724.000000,0.0110419368
1725.000000,0.009707746431
1726.000000,0.009888025529
1727.000000,0.008750438154
1728.000000,0.007447737897
1729.000000,0.008511870218
1730.000000,0.01101379826
1731.000000,0.008102258111
1732.000000,0.009146177951
1733.000000,0.01376475347
1734.000000,0.01250086521
1735.000000,0.009177511878
1736.000000,0.01161261874
1737.000000,0.008951542114
1738.000000,0.01364533362
1739.000000,0.009254178203
1740.000000,0.01049791901
1741.000000,0.01306420589
1742.000000,0.008624509062
1743.000000,0.01290783071
1744.000000,0.00860712957
1745.000000,0.0106891673
1746.000000,0.009817294238
1747.000000,0.01014938389
1748.000000,0.01051256107
1749.000000,0.01007281451
1750.000000,0.008203420653
1751.000000,0.01191880372
1752.000000,0.01159025792
1753.000000,0.01290152932
1754.000000,0.01312044965
1755.000000,0.007647245428
1756.000000,0.01259706524
1757.000000,0.01290505945
1758.000000,0.009155492175
1759.000000,0.01228238287
1760.000000,0.01301501793
1761.000000,0.009270585194
1762.000000,0.007413718433
1763.000000,0.009319805472
1764.000000,0.01562736658
1765.000000,0.01057827248
1766.000000,0.007737710783
1767.000000,0.009451835951
1768.000000,0.008306159755
1769.000000,0.009224085515
1770.000000,0.01025399423
1771.000000,0.004926105146
1772.000000,0.01079660081
1773.000000,0.01290527479
1774.000000,0.009602804528
1775.000000,0.009434794923
1776.000000,0.01239106569
1777.000000,0.007524144368
1778.000000,0.007571194987
1779.000000,0.007265360084
1780.000000,0.009583689339
1781.000000,0.01089824457
1782.000000,0.009790832146
1783.000000,0.01110314527
1784.000000,0.01146187932
1785.000000,0.01116550822
1786.000000,0.008464562763
1787.000000,0.009531995245
1788.000000,0.01238221754
1789.000000,0.008001762394
1790.000000,0.00933592939
1791.000000,0.009009705779
1792.000000,0.009552883249
1793.000000,0.007800168037
1794.000000,0.007447876184
1795.000000,0.01508038188
1796.000000,0.01201734128
1797.000000,0.008589361613
1798.000000,0.009836012232
1799.000000,0.01135453145
1800.000000,0.009183854945
1801.000000,0.01120830651
1802.000000,0.008882767986
1803.000000,0.009343616073
1804.000000,0.009908762611
1805.000000,0.009063852136
1806.000000,0.004913136758
1807.000000,0.009931658263
1808.000000,0.01042565775
1809.000000,0.01101377834
1810.000000,0.007704489252
1811.000000,0.01061727006
1812.000000,0.01011227645
1813.000000,0.006468333853
1814.000000,0.005568845016
1815.000000,0.01060565139
1816.000000,0.008108591631
1817.000000,0.01186883193
1818.000000,0.01421771964
1819.000000,0.008815949649
1820.000000,0.00830210882
1821.000000,0.009971008921
1822.000000,0.01115075676
1823.000000,0.0075060325
1824.000000,0.01247727676
1825.000000,0.01205444531
1826.000000,0.01137971753
1827.000000,0.008876912
1828.000000,0.01168420186
1829.000000,0.01155200711
1830.000000,0.007485382343
1831.000000,0.01405664449
1832.000000,0.009164642944
1833.000000,0.01052204696
1834.000000,0.008771722331
1835.000000,0.01068684707
1836.000000,0.01209524195
1837.000000,0.008217482611
1838.000000,0.006611807645
1839.000000,0.009003157468
1840.000000,0.00710807262
1841.000000,0.008138963488
1842.000000,0.009638298243
1843.000000,0.009915454347
1844.000000,0.01235637056
1845.000000,0.007892110751
1846.000000,0.01046129545
1847.000000,0.008849361311
1848.000000,0.0123318511
1849.000000,0.01486668981
1850.000000,0.01033695568
1851.000000,0.01328811605
1852.000000,0.009037636767
1853.000000,0.006601685499
1854.000000,0.007244973367
1855.000000,0.006579713879
1856.000000,0.007953784836
1857.000000,0.009454648688
1858.000000,0.01226417957
1859.000000,0.01114636885
1860.000000,0.01065652526
1861.000000,0.009038212403
1862.000000,0.008405189373
1863.000000,0.009933679771
1864.000000,0.01025732672
1865.000000,0.01028314293
1866.000000,0.01044730498
1867.000000,0.009574114117
1868.000000,0.00607815658
1869.000000,0.007572808881
1870.000000,0.007994034304
1871.000000,0.01296044797
1872.000000,0.008896803637
1873.000000,0.01120552273
1874.000000,0.01290191368
1875.000000,0.01059453539
1876.000000,0.008994871684
1877.000000,0.00916091513
1878.000000,0.007697867797
1879.000000,0.01040609179
1880.000000,0.01217559258
1881.000000,0.01106082892
1882.000000,0.01128990713
1883.000000,0.01127828348
1884.000000,0.01363650153
1885.000000,0.008635692606
1886.000000,0.009902268278
1887.000000,0.01123204894
1888.000000,0.01222519172
1889.000000,0.004873921368
1890.000000,0.00873979793
1891.000000,0.009533012606
1892.000000,0.007736635029
1893.000000,0.01128785622
1894.000000,0.01031050223
1895.000000,0.009134378492
1896.000000,0.006495348683
1897.000000,0.00713404422
1898.000000,0.007897624955
1899.000000,0.01072256363
1900.000000,0.007345952376
1901.000000,0.005637493736
1902.000000,0.006812456941
1903.000000,0.008477897387
1904.000000,0.01303906199
1905.000000,0.01469964569
1906.000000,0.008597939948
1907.000000,0.0115056617
1908.000000,0.01281995532
1909.000000,0.01233043421
1910.000000,0.009647912941
1911.000000,0.007187389959
1912.000000,0.008667734719
1913.000000,0.006016430756
1914.000000,0.01023922327
1915.000000,0.01114124981
1916.000000,0.00608121163
1917.000000,0.009621423242
1918.000000,0.01024439079
1919.000000,0.01220966812
1920.000000,0.01258590741
1921.000000,0.01131604137
1922.000000,0.008255929602
1923.000000,0.008936649874
1924.000000,0.0120848166
1925.000000,0.008464381441
1926.000000,0.009607872041
1927.000000,0.01295059051
1928.000000,0.009990481491
1929.000000,0.006910667055
1930.000000,0.009422034507
1931.000000,0.01090367903
1932.000000,0.009285346585
1933.000000,0.01212979903
1934.000000,0.01233642503
1935.000000,0.008415541021
1936.000000,0.008647161535
1937.000000,0.009523649278
1938.000000,0.00717367655
1939.000000,0.01040728137
1940.000000,0.009410220172
1941.000000,0.01130860982
1942.000000,0.008467194441
1943.000000,0.007856870338
1944.000000,0.01329589553
1945.000000,0.007938533234
1946.000000,0.008500334173
1947.000000,0.008223173977
1948.000000,0.008993309355
1949.000000,0.007950411257
1950.000000,0.009532752848
1951.000000,0.008457633995
1952.000000,0.008802436255
1953.000000,0.01038045434
1954.000000,0.01108279497
1955.000000,0.01082595895
1956.000000,0.00804912209
1957.000000,0.01038159023
1958.000000,0.009432813182
1959.000000,0.009416949835
1960.000000,0.006323864298
1961.000000,0.01096527097
1962.000000,0.009237849593
1963.000000,0.01320262361
1964.000000,0.01068242511
1965.000000,0.007481377764
1966.000000,0.006842819914
1967.000000,0.01205374967
1968.000000,0.00787963805
1969.000000,0.01116404234
1970.000000,0.009131273957
1971.000000,0.01389669924
1972.000000,0.009891402126
1973.000000,0.01272038883
1974.000000,0.01223467005
1975.000000,0.008868843781
1976.000000,0.009130001655
1977.000000,0.01263613471
1978.000000,0.009731683813
1979.000000,0.008039421906
1980.000000,0.01207381872
1981.000000,0.01488514374
1982.000000,0.009577712823
1983.000000,0.01249844289
1984.000000,0.009397374722
1985.000000,0.01242541596
1986.000000,0.009130356951
1987.000000,0.01225080315
1988.000000,0.01082598279
1989.000000,0.009462923731
1990.000000,0.0103558579
1991.000000,0.008874266573
1992.000000,0.00760411347
1993.000000,0.007715013165
1994.000000,0.009638457388
1995.000000,0.007823230885
1996.000000,0.01049312854
1997.000000,0.01071669472
1998.000000,0.01058090909
1999.000000,0.008824718193
2000.000000,0.009859012997
