# kind,background_subtracted
# version_label,v1_poly5
# poly_order,5
# iterations_run,7
pixel_index,raman_shift_cm-1,intensity,background_intensity
0,200.000,12.05352724980105,204.56562075019895
1,201.000,10.233890423771356,205.03508607622865
2,202.000,8.41330379875302,205.50550120124697
3,203.000,0.5339451182586856,205.9768668817413
4,204.000,17.694599138576905,206.4491838614231
5,205.000,8.68920312875241,206.9224528712476
6,206.000,0.0,207.39667462943308
7,207.000,4.308095658519591,207.8718498414804
8,208.000,8.93238279980747,208.34797920019253
9,209.000,5.859165614306107,208.82506338569388
10,210.000,5.228239934550174,209.30310306544982
11,211.000,6.193753105713853,209.78209889428615
12,212.000,3.4224884855914013,210.2620515144086
13,213.000,0.6502664445778521,210.74296155542214
14,214.000,0.0,211.22482963435064
15,215.000,8.191312644343782,211.7076563556562
16,216.000,0.5470316887414128,212.19144231125858
17,217.000,0.0,212.67618808055482
18,218.000,0.02353076956146083,213.16189423043855
19,219.000,6.046155684680542,213.64856131531945
20,220.000,0.0,214.13618987714287
21,221.000,5.428149554590902,214.6247804454091
22,222.000,6.429296462807059,215.11433353719295
23,223.000,0.7596743428368598,215.60484965716313
24,224.000,6.138431702398208,216.09632929760178
25,225.000,14.522881061576072,216.58877293842392
26,226.000,8.903748952803141,217.08218104719685
27,227.000,9.490102920840314,217.57655407915968
28,228.000,3.5813975227572428,218.07189247724276
29,229.000,0.0,218.5681966720871
30,230.000,1.4044889179360496,219.06546708206395
31,231.000,5.74568188670591,219.56370411329408
32,232.000,10.573971840332575,220.06290815966742
33,233.000,1.3584643971376238,220.5630796028624
34,234.000,4.534141187634532,221.06421881236548
35,235.000,9.491195854509414,221.5663261454906
36,236.000,0.0,222.06940194739852
37,237.000,3.455658448883497,222.5734465511165
38,238.000,1.3513957224424473,223.07846027755755
39,239.000,1.6157185644599394,223.58444343554007
40,240.000,0.0,224.0913963218071
41,241.000,0.6737137789539247,224.59931922104607
42,242.000,1.6359400940920636,225.10821240590792
43,243.000,2.5971958629731944,225.6180761370268
44,244.000,4.399172336960476,226.12891066303953
45,245.000,0.0,226.64071622060487
46,246.000,1.3793839655768352,227.15349303442318
47,247.000,2.846438682744207,227.6672413172558
48,248.000,6.980751730055573,228.18196126994442
49,249.000,7.5744389185692,228.6976530814308
50,250.000,12.889138071224124,229.21431692877587
51,251.000,4.303883022820457,229.73195297717953
52,252.000,6.646079620000108,230.25056137999988
53,253.000,10.217996721227195,230.7701422787728
54,254.000,7.916056196768636,231.29069580323136
55,255.000,9.888032928674733,231.81222207132527
56,256.000,10.18971681075962,232.33472118924038
57,257.000,6.73017674858184,232.85819325141816
58,258.000,10.147728659424985,233.38263834057503
59,259.000,0.0,233.90805652772198
60,260.000,0.0,234.43444787218397
61,261.000,3.23833357838069,234.9618124216193
62,262.000,0.0,235.49015021203928
63,263.000,0.5394787321725687,236.01946126782744
64,264.000,10.229123398240858,236.54974560175913
65,265.000,7.950260784978923,237.08100321502107
66,266.000,11.102942902769428,237.61323409723056
67,267.000,9.08252977354482,238.1464382264552
68,268.000,16.550339430767906,238.6806155692321
69,269.000,0.0,239.21576608058757
70,270.000,4.796281295943487,239.7518897040565
71,271.000,5.606724628298281,240.28898637170172
72,272.000,1.718588995866412,240.8270560041336
73,273.000,11.635250489470593,241.3660985105294
74,274.000,0.0,241.90611378865285
75,275.000,11.86083227512654,242.44710172487345
76,276.000,5.779247805813867,242.98906219418615
77,277.000,1.3106399397694588,243.53199506023054
78,278.000,0.0,244.07590017531055
79,279.000,3.1598846195862507,244.62077738041376
80,280.000,0.0,245.16662650523097
81,281.000,4.631135631824492,245.7134473681755
82,282.000,9.960901223597148,246.26123977640287
83,283.000,3.63073147416992,246.81000352583007
84,284.000,10.551428598844893,247.35973840115508
85,285.000,5.934667824123579,247.91044417587642
86,286.000,8.141233387687578,248.46212061231245
87,287.000,4.93470553837912,249.0147674616209
88,288.000,7.783176536181571,249.56838446381843
89,289.000,6.209953652200056,250.12297134779993
90,290.000,14.253670168641918,250.6785278313581
91,291.000,11.89036737879718,251.23505362120284
92,292.000,1.4873215870192666,251.79254841298072
93,293.000,9.801607108705582,252.35101189129443
94,294.000,0.792807270277649,252.91044372972235
95,295.000,10.5092754091622,253.4708435908378
96,296.000,13.465569873771273,254.0322111262287
97,297.000,11.635717023482982,254.594545976517
98,298.000,3.374948228622088,255.15784777137793
99,299.000,9.552997870440208,255.72211612955977
100,300.000,13.93282634109687,256.2873506589031
101,301.000,1.3015370436395983,256.8535509563604
102,302.000,6.107888391984773,257.42071660801525
103,303.000,11.138368810897816,257.98884718910216
104,304.000,9.730598735974297,258.5579422640257
105,305.000,2.839733613619728,259.1280013863803
106,306.000,2.0375349010307673,259.69902409896923
107,307.000,0.0,260.2710099338246
108,308.000,9.495422587773646,260.84395841222636
109,309.000,9.98525095527782,261.4178690447222
110,310.000,14.240627668853563,261.9927413311464
111,311.000,7.907089239359834,262.56857476064016
112,312.000,1.1471381883299046,263.1453688116701
113,313.000,11.794421047951516,263.72312295204847
114,314.000,11.195178361047851,264.3018366389521
115,315.000,3.76033868105759,264.8815093189424
116,316.000,15.964648572015847,265.46214042798414
117,317.000,8.560100608534526,266.0437293914655
118,318.000,10.481665375782711,266.62627562421727
119,319.000,13.0430224694677,267.2097785305323
120,320.000,0.0,267.79423750418493
121,321.000,3.778450071549287,268.3796519284507
122,322.000,2.9461658238744803,268.96602117612554
123,323.000,8.506912390454659,269.5533446095453
124,324.000,8.158443419394757,270.14162158060526
125,325.000,0.0,270.7308514307795
126,326.000,0.7893675088594136,271.3210334911406
127,327.000,6.673640917621299,271.9121670823787
128,328.000,16.125549485178738,272.50425151482125
129,329.000,7.051553911547501,273.0972860884525
130,330.000,11.91191390706723,273.69127009293277
131,331.000,0.0,274.28620280761805
132,332.000,0.36004549842061806,274.88208350157936
133,333.000,9.92981956637766,275.47891143362233
134,334.000,1.1807841476935437,276.07668585230647
135,335.000,14.064029004035092,276.6754059959649
136,336.000,13.224758907276339,277.27507109272364
137,337.000,1.3841266394790637,277.87568036052096
138,338.000,17.40731799287289,278.4772330071271
139,339.000,12.010486769836518,279.0797282301635
140,340.000,7.471669782877484,279.6831652171225
141,341.000,11.040267854613376,280.2875431453866
142,342.000,8.549871817752091,280.8928611822479
143,343.000,17.02878551507223,281.49911848492775
144,344.000,6.3149377994039355,282.10631420059605
145,345.000,19.44783453360924,282.71444746639077
146,346.000,9.534988590562591,283.3235174094374
147,347.000,6.527052853131579,283.9335231468684
148,348.000,4.764949214157241,284.54446378584277
149,349.000,10.749134576434699,285.1563384235653
150,350.000,8.396152852693945,285.76914614730606
151,351.000,8.079737965579739,286.38288603442027
152,352.000,7.945201847632973,286.99755715236705
153,353.000,0.0,287.6131585587295
154,354.000,16.624639698766202,288.2296893012338
155,355.000,7.282108582231103,288.8471484177689
156,356.000,0.0,289.4655349364058
157,357.000,0.0,290.0848478754171
158,358.000,0.411937756703594,290.7050862432964
159,359.000,0.6664089612220323,291.326249038778
160,360.000,10.857333749144232,291.9483352508558
161,361.000,13.96075314119662,292.5713438588034
162,362.000,2.380843167806745,293.19527383219327
163,363.000,9.27761886908388,293.8201241309161
164,364.000,12.839999794799496,294.4458937052005
165,365.000,16.40146250436777,295.0725814956322
166,366.000,13.703116566826111,295.7001864331739
167,367.000,11.003854560815853,296.32870743918414
168,368.000,9.702483074562679,296.95814342543736
169,369.000,8.400197705856954,297.58849329414306
170,370.000,5.165979062034808,298.2197559379652
171,371.000,0.0,298.8519302400419
172,372.000,10.025608925995357,299.48501507400465
173,373.000,0.0,300.1190093039979
174,374.000,11.701999215301385,300.75391178469863
175,375.000,13.579361638664523,301.3897213613355
176,376.000,7.778525130291428,302.0264368697086
177,377.000,1.9767838637912973,302.6640571362087
178,378.000,11.338950022162976,303.302580977837
179,379.000,9.501733797775728,303.94200720222426
180,380.000,9.018472392349565,304.5823346076504
181,381.000,2.3330500169359425,305.22356198306403
182,382.000,6.310414891898233,305.8656881081018
183,383.000,0.07805124689218701,306.50871175310783
184,384.000,3.6793603208465697,307.15263167915344
185,385.000,7.279774361943794,307.7974466380562
186,386.000,4.558450627600166,308.4431553723998
187,387.000,7.894513384446839,309.08975661555314
188,388.000,0.0,309.73724909169005
189,389.000,10.185400484191348,310.38563151580865
190,390.000,0.0,311.03490259375076
191,391.000,6.170720977778387,311.6850610222216
192,392.000,0.0,312.3361054888088
193,393.000,8.162785327997597,312.9880346720024
194,394.000,2.3624152587860863,313.6408472412139
195,395.000,0.0,314.29454185679595
196,396.000,3.007075829938458,314.9491171700615
197,397.000,4.618927176696218,315.6045718233038
198,398.000,9.902854550184713,316.2609044498153
199,399.000,4.1679663260925395,316.91811367390744
200,400.000,15.014069889069845,317.57619811093014
201,401.000,4.551801632709157,318.23515636729087
202,402.000,7.192613959525374,318.89498704047463
203,403.000,2.959703280936992,319.555688719063
204,404.000,10.299274017246034,320.21725998275394
205,405.000,9.170194597619115,320.8796994023809
206,406.000,0.7739154600674283,321.54300553993255
207,407.000,0.0,322.20717694857206
208,408.000,8.1894988273433,322.8722121726567
209,409.000,6.8041282522427196,323.5381097477573
210,410.000,13.391122799322488,324.20486820067754
211,411.000,13.657646950526384,324.8724860494736
212,412.000,3.4968851965265344,325.54096180347346
213,413.000,20.066745036703423,326.2102939632966
214,414.000,12.86230697912697,326.88048102087305
215,415.000,18.569948540536586,327.5515214594634
216,416.000,10.078031246322212,328.2234137536778
217,417.000,0.0,328.8961563694955
218,418.000,5.632411235715438,329.56974776428456
219,419.000,1.1533126131789118,330.24418638682107
220,420.000,17.98297732269134,330.91947067730865
221,421.000,11.758259932601959,331.59559906739804
222,422.000,4.685144019793597,332.2725699802064
223,423.000,2.2085361696632617,332.95038183033677
224,424.000,0.0,333.6290330238977
225,425.000,0.0,334.3085219585226
226,426.000,0.0,334.9888470233891
227,427.000,3.0954664007612678,335.6700065992387
228,428.000,6.5136159416038595,336.35199905839613
229,429.000,6.496512235211185,337.0348227647888
230,430.000,5.4444259260336025,337.7184760739664
231,431.000,2.715145666880119,338.4029573331199
232,432.000,1.3864541188981434,339.08826488110185
233,433.000,12.199845951555062,339.77439704844494
234,434.000,11.034603342618027,340.461352157382
235,435.000,9.868539478134608,341.1491285218654
236,436.000,7.764864552413712,341.8377244475863
237,437.000,4.978506768005616,342.5271382319944
238,438.000,4.542025835682921,343.21736816431707
239,439.000,0.0,343.90841252557914
240,440.000,7.073038411378036,344.600269588622
241,441.000,5.490552381876512,345.29293761812346
242,442.000,0.0,345.98641487061695
243,443.000,9.068257405488964,346.68069959451105
244,444.000,4.801977969891084,347.37579003010893
245,445.000,0.11126859037227632,348.0716844096277
246,446.000,4.347525042781683,348.7683809572183
247,447.000,18.891039111015573,349.46587788898444
248,448.000,8.497570586997881,350.1641734130021
249,449.000,11.260722270660438,350.86326572933956
250,450.000,9.359508969923752,351.56315303007625
251,451.000,8.323985500677566,352.2638334993224
252,452.000,7.28767068676143,352.96530531323856
253,453.000,3.674425359945076,353.66756664005493
254,454.000,8.693277359908791,354.3706156400912
255,455.000,0.34827853422450517,355.0744504657755
256,456.000,9.260821738336062,355.77906926166395
257,457.000,0.47200283553939926,356.4844701644606
258,458.000,4.460816696963775,357.19065130303625
259,459.000,5.648867201551639,357.89761079844834
260,460.000,1.027244236039678,358.6053467639603
261,461.000,1.605577694939143,359.3138573050609
262,462.000,2.928816980516217,360.02314051948383
263,463.000,4.25128550277293,360.7331944972271
264,464.000,0.0,361.4440173205725
265,465.000,11.009122935894823,362.1556070641052
266,466.000,6.16649520526687,362.8679617947331
267,467.000,7.551484428294032,363.58107957170597
268,468.000,14.406584553364382,364.29495844663563
269,469.000,3.656055536485269,365.00959646351475
270,470.000,2.642362341263265,365.7249916587367
271,471.000,10.607328938885246,366.44114206111476
272,472.000,9.990133308098223,367.1580456919018
273,473.000,7.86557443519041,367.87570056480956
274,474.000,0.0,368.5941046860282
275,475.000,4.083134945754296,369.3132560542457
276,476.000,5.704937339332503,370.0331526606675
277,477.000,11.60378351096432,370.7537924890357
278,478.000,0.0,371.47517351564863
279,479.000,8.75332429061956,372.19729370938046
280,480.000,11.704783468299638,372.92015103170036
281,481.000,14.655507563307822,373.6437434366922
282,482.000,10.935765128925993,374.368068871074
283,483.000,14.030422725782842,375.0931252742172
284,484.000,4.116351421833713,375.8189105781663
285,485.000,2.6669902923417226,376.5454227076583
286,486.000,0.0,377.2726595801421
287,487.000,12.299395894202064,378.0006191057979
288,488.000,14.598563812443103,378.7292991875569
289,489.000,13.362664278879663,379.45869772112036
290,490.000,10.825270405020433,380.1888125949796
291,491.000,5.239786309565034,380.91964169043496
292,492.000,6.696184118384451,381.65118288161557
293,493.000,6.173407964501337,382.3834340354987
294,494.000,5.649923988070952,383.11639301192906
295,495.000,6.295510336361417,383.8500576636386
296,496.000,8.020904163734201,384.5844258362658
297,497.000,0.0,385.319495368375
298,498.000,4.02994090852394,386.05526409147603
299,499.000,10.1667401699562,386.7917298300438
300,500.000,3.9798185984628276,387.5288904015372
301,501.000,10.846050383580746,388.26674361641926
302,502.000,9.787587721823684,389.0052872781763
303,503.000,7.259069816662816,389.74451918333716
304,504.000,5.9637808785068955,390.4844371214931
305,505.000,9.23999612468316,391.22503887531684
306,506.000,2.2107397794175085,391.96632222058247
307,507.000,0.9470620738155731,392.70828492618443
308,508.000,0.0,393.4509247541573
309,509.000,0.33189154030475265,394.19423945969527
310,510.000,1.3664342088286503,394.93822679117136
311,511.000,2.255904509842992,395.682884490157
312,512.000,2.164939708558393,396.4282102914416
313,513.000,9.674974076948217,397.1742019230518
314,514.000,14.211743893728908,397.9208571062711
315,515.000,9.121269444340669,398.66817355565934
316,516.000,0.0,399.416148979072
317,517.000,6.566558922320269,400.1647810776797
318,518.000,0.0,400.9140675459879
319,519.000,14.132648928144135,401.66400607185585
320,520.000,3.2266876634833466,402.41459433651664
321,521.000,2.5108249854036444,403.16583001459634
322,522.000,11.69741722586673,403.9177107741333
323,523.000,1.638400723401901,404.6702342765981
324,524.000,6.3708258230874435,405.42339817691254
325,525.000,10.100922876530774,406.1772001234692
326,526.000,11.568385241848716,406.9316377581513
327,527.000,11.26709128364837,407.68670871635163
328,528.000,12.044790373007856,408.44241062699217
329,529.000,9.727104887456221,409.19874111254376
330,530.000,3.750718210954801,409.9556977890452
331,531.000,0.8948727338768663,410.71327826612315
332,532.000,11.559332852988746,411.4714801470113
333,533.000,2.3829919714303287,412.23030102856967
334,534.000,10.687309498695413,412.9897385013046
335,535.000,11.860086850612277,413.7497901493877
336,536.000,7.534035449324506,414.5104535506755
337,537.000,0.0,415.27172627672894
338,538.000,1.3893391071671886,416.03360589283284
339,539.000,12.457903041984594,416.7960899580154
340,540.000,5.337782974932622,417.55917602506736
341,541.000,9.824898359438123,418.3228616405619
342,542.000,3.5755876551263555,419.08714434487365
343,543.000,6.040832327801297,419.8520216721987
344,544.000,13.592253849426413,420.6174911505736
345,545.000,3.1883596981052733,421.38355030189473
346,546.000,10.956099358061635,422.15019664193835
347,547.000,9.946644319620418,422.9174276803796
348,548.000,7.00833907918809,423.6852409208119
349,549.000,11.441750139233193,424.4536338607668
350,550.000,2.379240008267004,425.222603991733
351,551.000,0.0,425.9921487991762
352,552.000,2.2068032374415907,426.7622657625584
353,553.000,7.642521644642898,427.5329523553571
354,554.000,8.949331954914783,428.3042060450852
355,555.000,3.540348706689656,429.07602429331035
356,556.000,0.0,429.84840455567405
357,557.000,0.0,430.6213442819118
358,558.000,2.535813084128506,431.3948409158715
359,559.000,7.045108104465783,432.1688918955342
360,560.000,8.896324346967447,432.94349465303253
361,561.000,10.950133385329252,433.7186466146708
362,562.000,0.0,434.49434520094394
363,563.000,8.123150173442582,435.2705878265574
364,564.000,3.725480099553522,436.0473719004465
365,565.000,3.8735331742044536,436.8246948257955
366,566.000,4.58399099994233,437.6025540000577
367,567.000,3.7747121850254644,438.38094681497455
368,568.000,3.33451934340502,439.159870656595
369,569.000,6.275784094704875,439.9393229052951
370,570.000,0.5885440642023241,440.71930093579766
371,571.000,3.1037093828085176,441.49980211719145
372,572.000,5.618354187049476,442.28082381295053
373,573.000,8.28140161904588,443.06236338095414
374,574.000,10.144026826494212,443.8444181735058
375,575.000,3.391978462646989,444.626985537353
376,576.000,0.0,445.4100628137063
377,577.000,0.0,446.1936473382593
378,578.000,1.0706415587920333,446.977736441208
379,579.000,0.0,447.7623274472695
380,580.000,6.134385324297341,448.54741767570266
381,581.000,0.0,449.3330044403267
382,582.000,0.8032659504589788,450.119085049541
383,583.000,0.4575316936555964,450.9056568063444
384,584.000,0.11130899164527364,451.69271700835475
385,585.000,7.719680052171441,452.4802629478286
386,586.000,0.9746790883200447,453.26829191167997
387,587.000,13.211823818499226,454.05680118150076
388,588.000,9.603790466420719,454.8457880335793
389,589.000,5.99528226107941,455.6352497389206
390,590.000,4.06990843673492,456.4251835632651
391,591.000,0.5736812328913174,457.2155867671087
392,592.000,8.815129394278301,458.0064566057217
393,593.000,8.488787670831073,458.79779032916895
394,594.000,0.5690458176713378,459.5895851823287
395,595.000,9.81841259508792,460.38183840491206
396,596.000,2.007466768516906,461.1745472314831
397,597.000,15.543081108522642,461.96770889147734
398,598.000,13.156822390777677,462.7613206092223
399,599.000,16.01859039604392,463.55537960395606
400,600.000,19.10111391015289,464.3498830898471
401,601.000,12.269927723986143,465.14482827601387
402,602.000,16.273529633456178,465.94021236654385
403,603.000,20.86815243948638,466.7360325605136
404,604.000,28.003033947992378,467.53228605200763
405,605.000,22.559833969861813,468.3289700301382
406,606.000,19.55222932093534,469.12608167906467
407,607.000,23.544342821987016,469.923618178013
408,608.000,20.970926298704796,470.7215767012952
409,609.000,27.376733581671203,471.5199544183288
410,610.000,24.859471506343766,472.31874849365624
411,611.000,36.99147591303557,473.11795608696445
412,612.000,35.220942646895764,473.9175743531042
413,613.000,61.547350557890354,474.71760044210964
414,614.000,74.7316655007823,475.51803149921767
415,615.000,76.41380333511245,476.31886466488754
416,616.000,101.37989692517988,477.12009707482014
417,617.000,126.7647471400224,477.9217258599776
418,618.000,155.24889385339736,478.7237481466026
419,619.000,167.21409994376194,479.5261610562381
420,620.000,160.8716326275869,480.32896170574645
421,621.000,154.52878045933755,481.1321472073291
422,622.000,148.18554633145385,481.93571466854615
423,623.000,130.41671780766484,482.7396611923352
424,624.000,98.14653812296831,483.5439838770317
425,625.000,82.52768718361216,484.3486798163878
426,626.000,75.04629690040815,485.1537460995919
427,627.000,59.69014418871171,485.95917981128827
428,628.000,42.97696396840354,486.76497803159646
429,629.000,38.73918516386931,487.57113783613073
430,630.000,35.75871370398073,488.3776562960193
431,631.000,30.70145752207577,489.1845304779242
432,632.000,28.08009055593942,489.9917574440606
433,633.000,22.673804747783777,490.79933425221617
434,634.000,12.132310044229655,491.60725795577036
435,635.000,23.555845396285576,492.4155256037144
436,636.000,21.48792275932965,493.2241342406703
437,637.000,19.45432509308955,494.0330809069104
438,638.000,14.813468361622995,494.842362638377
439,639.000,0.0,495.65197646670157
440,640.000,10.150006580775369,496.4619194192246
441,641.000,9.570480480985452,497.27218851901455
442,642.000,4.931077215112339,498.0827807848877
443,643.000,14.564309768572741,498.8936932314272
444,644.000,6.160941130996605,499.7049228690034
445,645.000,2.9204572962079283,500.51646670379205
446,646.000,10.33103426220515,501.32832173779485
447,647.000,0.0,502.14048496885835
448,648.000,0.38249460930649093,502.9529533906935
449,649.000,11.408230007104748,503.76572399289523
450,650.000,9.031668239038083,504.5787937609619
451,651.000,7.287445323685574,505.39215967631446
452,652.000,2.7345002836835874,506.2058187163164
453,653.000,2.1411871457071356,507.01976785429287
454,654.000,12.513712940449864,507.8340040595501
455,655.000,16.36224070260488,508.6485242973951
456,656.000,7.990422470844862,509.46332552915516
457,657.000,5.819521287803298,510.27840471219673
458,658.000,8.060623200054351,511.0937587999457
459,659.000,3.753521258093656,511.90938474190636
460,660.000,4.6881785163191125,512.7252794836809
461,661.000,0.0,513.5414399669891
462,662.000,4.592490870312872,514.3578631296871
463,663.000,2.7057900942119204,515.1745459057881
464,664.000,12.726184774519083,515.9914852254809
465,665.000,14.653167984850825,516.8086780151492
466,666.000,6.963893802608254,517.6261211973917
467,667.000,7.231228308958634,518.4438116910413
468,668.000,0.0,519.2617464111846
469,669.000,3.268411730818798,520.0799222691812
470,670.000,6.6615138273169805,520.898336172683
471,671.000,4.776726974345365,521.7169850256546
472,672.000,1.6175372716086258,522.5358657283914
473,673.000,3.2767778224598487,523.3549751775402
474,674.000,0.0,524.1743102661179
475,675.000,6.7455861164684165,524.9938678835316
476,676.000,7.429550084402649,525.8136449155974
477,677.000,13.41535375543981,526.6336382445602
478,678.000,7.751601250886665,527.4538447491134
479,679.000,0.0,528.2742613044181
480,680.000,9.154757217877886,529.0948847821221
481,681.000,0.0,529.9157120503804
482,682.000,11.894967026126096,530.7367399738739
483,683.000,0.0,531.5579654138287
484,684.000,0.0,532.3793852280364
485,685.000,8.489000729127156,533.2009962708728
486,686.000,2.870858606682077,534.0227953933179
487,687.000,0.0,534.8447794429744
488,688.000,8.10441773591117,535.6669452640888
489,689.000,0.0,536.489289697569
490,690.000,0.0,537.3118095810055
491,691.000,10.800792251310781,538.1345017486892
492,692.000,2.381611968367565,538.9573630316324
493,693.000,0.0,539.7803902575872
494,694.000,6.148803748934711,540.6035802510653
495,695.000,0.0,541.4269298333575
496,696.000,0.0,542.250435822553
497,697.000,1.229258966440625,543.0740950335594
498,698.000,13.225170721878612,543.8979042781214
499,699.000,7.908621635159761,544.7218603648403
500,700.000,6.113420900805295,545.5459600991948
501,701.000,0.0,546.3702002835582
502,702.000,0.003424282779974419,547.19457771722
503,703.000,0.0,548.019089196404
504,704.000,2.941580485711711,548.8437315142883
505,705.000,0.0,549.6685014610246
506,706.000,10.35170617624226,550.4933958237577
507,707.000,0.0,551.3184113866455
508,708.000,3.8709250691229045,552.143544930877
509,709.000,9.878783765306252,552.9687932346937
510,710.000,0.829548926592679,553.7941530734073
511,711.000,9.100761780579546,554.6196212194204
512,712.000,4.44740355775491,555.4451944422451
513,713.000,0.0,556.2708695085232
514,714.000,9.76552081795478,557.0966431820452
515,715.000,9.368522776230293,557.9225122237697
516,716.000,8.97143260815676,558.7484733918433
517,717.000,8.14141255838058,559.5745234416195
518,718.000,5.741930374321328,560.4006591256787
519,719.000,3.3423658061529977,561.226877193847
520,720.000,6.809252606783161,562.0531743932169
521,721.000,3.090533531835149,562.8795474681649
522,722.000,4.286726839627136,563.7059931603728
523,723.000,4.340574791154268,564.5325082088457
524,724.000,0.41551065006729004,565.3590893499327
525,725.000,2.1490526826547693,566.1857333173452
526,726.000,1.795091157822526,567.0124368421775
527,727.000,0.0,567.8391966529254
528,728.000,4.486202524494388,568.6660094755056
529,729.000,0.0,569.492872033276
530,730.000,10.103650952945259,570.3197810470548
531,731.000,0.0,571.1467332351392
532,732.000,3.6647966866739807,571.973725313326
533,733.000,2.312434005069804,572.8007539949302
534,734.000,0.0,573.6278159908053
535,735.000,7.275772990638416,574.4549080093616
536,736.000,0.0,575.2820267565869
537,737.000,6.648253063935044,576.109168936065
538,738.000,0.43902575100423746,576.9363312489958
539,739.000,0.0,577.7635103942143
540,740.000,0.0,578.5907030682106
541,741.000,0.0,579.4179059651487
542,742.000,1.0907252231137363,580.2451157768862
543,743.000,0.0,581.0723291929944
544,744.000,0.0,581.8995429007764
545,745.000,1.7051444147120947,582.726753585288
546,746.000,0.0,583.5539579293566
547,747.000,0.0,584.3811526135999
548,748.000,0.0,585.2083343164467
549,749.000,3.387605285844643,586.0354997141553
550,750.000,3.295426519166199,586.8626454808337
551,751.000,0.0,587.6897682884587
552,752.000,11.596743193105226,588.5168648068948
553,753.000,13.926583296084914,589.3439317039151
554,754.000,12.191061854780855,590.1709656452192
555,755.000,10.455576705545923,590.997963294454
556,756.000,0.0,591.8249213132319
557,757.000,4.562046638848528,592.6518363611515
558,758.000,2.8546539041842607,593.4787050958157
559,759.000,0.0,594.3055241728525
560,760.000,0.0,595.132290245934
561,761.000,1.0989610332051143,595.9589999667949
562,762.000,7.0454220147462365,596.7856499852537
563,763.000,14.65156205076903,597.6122369492309
564,764.000,7.520953495231652,598.4387575047683
565,765.000,4.057093703950159,599.2652082960499
566,766.000,0.0,600.0915859654199
567,767.000,0.0,600.9178871534024
568,768.000,8.932591501278239,601.7441084987217
569,769.000,6.133010361678885,602.5702466383211
570,770.000,1.6953027926175537,603.3962982073824
571,771.000,12.568179160654836,604.2222598393452
572,772.000,1.0704008340732116,605.0481281659268
573,773.000,5.268388182858644,605.8738998171414
574,774.000,8.995334578680286,606.6995714213197
575,775.000,15.615078394871944,607.5251396051281
576,776.000,15.207666006411387,608.3506009935886
577,777.000,14.800363789902349,609.1759522100976
578,778.000,13.604472123553819,610.0011898764462
579,779.000,22.113496387161376,610.8263106128386
580,780.000,11.346891962087057,611.6513110379129
581,781.000,16.940783231240744,612.4761877687592
582,782.000,18.12208157905991,613.30093742094
583,783.000,22.363245391490523,614.1255566085094
584,784.000,26.604543055967838,614.9500419440321
585,785.000,30.845977961395988,615.774390038604
586,786.000,30.178741498129966,616.59859750187
587,787.000,36.96316005795461,617.4226609420454
588,788.000,42.22913103406688,618.2465769659332
589,789.000,50.03482882105425,619.0703421789458
590,790.000,54.60713681487721,619.8939531851228
591,791.000,74.35478141284909,620.7174065871509
592,792.000,86.41886601361614,621.5406989863839
593,793.000,83.36351501713852,622.3638269828615
594,794.000,93.67080132467095,623.1867871753291
595,795.000,103.97825883874305,624.009576161257
596,796.000,93.13933946313978,624.8321905368603
597,797.000,96.2940251028823,625.6546268971177
598,798.000,73.96582216420813,626.4768818357919
599,799.000,75.41442405455211,627.2989519454479
600,800.000,62.13691418252631,628.1208338174737
601,801.000,60.55915695790145,628.9425240420985
602,802.000,45.917558791586885,629.7640192084131
603,803.000,43.03541809561091,630.5853159043891
604,804.000,27.31094428310189,631.4064107168981
605,805.000,34.35042276826846,632.2273002317315
606,806.000,21.61287196638,633.04798103362
607,807.000,15.485544293747466,633.8684497062525
608,808.000,19.824699167703784,634.6887028322963
609,809.000,14.313618006584079,635.5087369934159
610,810.000,12.667473229706843,636.3285487702932
611,811.000,6.667853257354068,637.1481347426459
612,812.000,12.796913510751779,637.9674914892482
613,813.000,3.3255814120508376,638.7866155879492
614,814.000,18.27487638430705,639.6055036156929
615,815.000,10.199434851462001,640.424152148538
616,816.000,0.0,641.2425577616764
617,817.000,0.06173197054647517,642.0607170294535
618,818.000,10.119361474613129,642.8786265253868
619,819.000,5.712045177813138,643.6962828221868
620,820.000,3.831187508225071,644.513682491775
621,821.000,4.057477894696262,645.3308221053037
622,822.000,1.5225167668236281,646.1476982331764
623,823.000,7.022656554934201,646.9643074450657
624,824.000,0.0,647.7806463099347
625,825.000,1.3300436039457963,648.5967113960542
626,826.000,4.271137728975987,649.412499271024
627,827.000,11.946248498208547,650.2280065017915
628,828.000,0.0,651.0432296546714
629,829.000,1.7507147046347882,651.8581652953652
630,830.000,9.226114011019604,652.6728099889804
631,831.000,2.3960296999498496,653.4871603000502
632,832.000,0.0,654.3012127925527
633,833.000,11.647566970068965,655.114964029931
634,834.000,0.8614164248882616,655.9284105751117
635,835.000,7.832866009474742,656.7415489905253
636,836.000,0.0,657.5543758381248
637,837.000,4.758033320594109,658.3668876794059
638,838.000,3.2450919245738987,659.1790810754261
639,839.000,7.48764641317598,659.990952586824
640,840.000,0.0,660.8024987738395
641,841.000,4.0672248036680685,661.6137161963319
642,842.000,0.0,662.4246014138012
643,843.000,2.2738560145947986,663.2351509854052
644,844.000,8.54459453001823,664.0453614699818
645,845.000,7.075905573934051,664.855229426066
646,846.000,1.63301558808962,665.6647514119104
647,847.000,4.5504050144948,666.4739239855052
648,848.000,1.9168482954038382,667.2827437045962
649,849.000,0.0,668.091207126706
650,850.000,0.8007941908483645,668.8993108091516
651,851.000,0.0,669.7070513090657
652,852.000,0.0,670.5144251834147
653,853.000,0.0,671.3214289890191
654,854.000,0.0,672.1280592825724
655,855.000,0.0,672.9343126206608
656,856.000,6.284388440217299,673.7401855597827
657,857.000,0.0,674.545674656368
658,858.000,6.16643853320204,675.3507764667979
659,859.000,7.149905452576263,676.1554875474237
660,860.000,0.0,676.9598044545867
661,861.000,0.0,677.7637237446384
662,862.000,6.093197026041935,678.5672419739581
663,863.000,10.88726330102611,679.3703556989739
664,864.000,7.903256523818072,680.1730614761819
665,865.000,2.107523137834619,680.9753558621654
666,866.000,4.659446586385911,681.7772354136141
667,867.000,0.0,682.5786966873445
668,868.000,12.043404759682062,683.3797362403179
669,869.000,3.5591723703385014,684.1803506296615
670,870.000,4.623026587313348,684.9805364126867
671,871.000,5.687312853091271,685.7802901469088
672,872.000,4.848797609933172,686.5796083900668
673,873.000,0.0,687.3784877001428
674,874.000,0.0,688.176924635381
675,875.000,0.0,688.9749157543075
676,876.000,4.429674384250006,689.77245761575
677,877.000,2.868164221143388,690.5695467788566
678,878.000,2.657968196883985,691.366179803116
679,879.000,5.804654751623616,692.1623532483763
680,880.000,0.767178325134978,692.958063674865
681,881.000,8.148739356791793,693.7533076432082
682,882.000,7.877795285550178,694.5480817144498
683,883.000,0.0,695.3423824500719
684,884.000,4.004975587987133,696.1362064120128
685,885.000,4.796818837312117,696.9295501626879
686,886.000,0.0,697.7224102650082
687,887.000,7.271581717600043,698.5147832824
688,888.000,5.039187221175098,699.3066657788249
689,889.000,0.0,700.0980543187983
690,890.000,0.0,700.8889454674099
691,891.000,0.0,701.6793357903418
692,892.000,1.3811001461102705,702.4692218538897
693,893.000,0.0,703.2586002249811
694,894.000,0.0,704.047467471195
695,895.000,0.0,704.8358201607814
696,896.000,0.0,705.623654862681
697,897.000,0.0,706.4109681465443
698,898.000,5.110159417248269,707.1977565827517
699,899.000,1.5195942575677464,707.9840167424322
700,900.000,0.0,708.769745197483
701,901.000,0.0,709.5549385205892
702,902.000,1.879694714756397,710.3395932852436
703,903.000,5.310763934234956,711.1237060657651
704,904.000,9.922251562680572,711.9072734373194
705,905.000,6.656278024062544,712.6902919759375
706,906.000,5.822212741464568,713.4727582585355
707,907.000,4.5840741370655,714.2546688629345
708,908.000,8.024608632120703,715.0360203678792
709,909.000,5.818724646941973,715.816809353058
710,910.000,0.0,716.5970323991223
711,911.000,0.0,717.3766860877058
712,912.000,2.5599869985558144,718.1557670014441
713,913.000,4.820085276005557,718.9342717239945
714,914.000,0.0,719.7121968400545
715,915.000,0.0,720.4895389353823
716,916.000,0.0,721.2662945968158
717,917.000,0.0,722.0424604122917
718,918.000,0.0,722.8180329708662
719,919.000,0.0,723.5930088627324
720,920.000,0.0,724.3673846792422
721,921.000,2.263213987076483,725.1411570129235
722,922.000,5.853571542498571,725.9143224575014
723,923.000,0.0,726.6868776079167
724,924.000,0.5579549396546781,727.4588190603454
725,925.000,5.4949655877811665,728.2301434122188
726,926.000,2.7041077377579086,729.0008472622421
727,927.000,0.0,729.7709272104147
728,928.000,0.0,730.5403798580488
729,929.000,2.5349021922104384,731.3092018077896
730,930.000,2.389795336365637,732.0773896636343
731,931.000,6.432983969047882,732.8449400309521
732,932.000,3.7834304834971135,733.6118495165028
733,933.000,0.0,734.378114728457
734,934.000,0.0,735.1437322764156
735,935.000,5.428614228571973,735.908698771428
736,936.000,0.8649961739863556,736.6730108260136
737,937.000,11.757024945820035,737.4366650541799
738,938.000,13.132041928558237,738.1996580714417
739,939.000,0.0,738.9619864948418
740,940.000,0.0,739.7236469429693
741,941.000,0.0,740.4846360359799
742,942.000,0.0,741.2449503956145
743,943.000,8.352109354780168,742.0045866452199
744,944.000,4.496008590233373,742.7635414097666
745,945.000,0.0,743.52181131587
746,946.000,0.0,744.2793929918084
747,947.000,0.0,745.0362830675433
748,948.000,8.12256582526095,745.792478174739
749,949.000,16.758605053218957,746.5479749467811
750,950.000,2.580718981203063,747.302770018797
751,951.000,9.219348972325179,748.0568600276748
752,952.000,6.880111387917282,748.8102416120827
753,953.000,8.443933587510855,749.5629114124891
754,954.000,5.6621519288189575,750.3148660711811
755,955.000,8.752861767715103,751.066102232285
756,956.000,17.93613045821553,751.8166165417845
757,957.000,10.275805352458406,752.5664056475416
758,958.000,4.05298080068485,753.3154661993151
759,959.000,5.906486151219838,754.0637948487802
760,960.000,2.422082750451864,754.8113882495481
761,961.000,11.309300942814389,755.5582430571856
762,962.000,11.859960570765907,756.3043559292341
763,963.000,12.411365474770378,757.0497235252296
764,964.000,15.924673493278078,757.7943425067219
765,965.000,2.7200804627061643,758.5382095372938
766,966.000,9.43190871741865,759.2813212825813
767,967.000,3.5052405897080234,760.023674410292
768,968.000,0.0,760.7652655902256
769,969.000,14.18989950570733,761.5060914942927
770,970.000,11.130006203465427,762.2461487965346
771,971.000,3.613994826857379,762.9854341731426
772,972.000,3.1044136975226593,763.7239443024773
773,973.000,10.409187134911576,764.4616758650884
774,974.000,17.714742456265867,765.1986255437341
775,975.000,25.0210829765997,765.9347900234003
776,976.000,22.013529008679484,766.6701659913205
777,977.000,35.22284586300566,767.4047501369944
778,978.000,21.405124847791285,768.1385391522088
779,979.000,21.705539268944676,768.8715297310554
780,980.000,20.644072430048595,769.6037185699514
781,981.000,8.881665632341196,770.3351023676588
782,982.000,17.54249617469634,771.0656778253036
783,983.000,26.15245035360499,771.795441646395
784,984.000,30.218839463154268,772.5243905368458
785,985.000,37.61149479500932,773.2525212049907
786,986.000,51.10786463839338,773.9798303616067
787,987.000,41.94324228006781,774.7063147199322
788,988.000,53.67499500431404,775.431970995686
789,989.000,63.27498709291228,776.1567959070877
790,990.000,71.71125882512342,776.8807861748766
791,991.000,87.28712547766895,777.6039385223311
792,992.000,97.37817432471195,778.3262496752881
793,993.000,127.41633263783694,779.0477163621631
794,994.000,161.6331346860311,779.7683353139689
795,995.000,209.05355173566466,780.4881032643353
796,996.000,269.5944740504709,781.207016949529
797,997.000,352.9489458915277,781.9250731084724
798,998.000,505.6004945172367,782.6422684827633
799,999.000,694.1586791833055,783.3585998166944
800,1000.000,903.7478781427268,784.0740638572732
801,1001.000,905.5104351457593,784.7886573542406
802,1002.000,907.2738659399091,785.5023770600909
803,1003.000,689.297153269909,786.215219730091
804,1004.000,502.8696598776995,786.9271821223005
805,1005.000,367.76795600240996,787.63826099759
806,1006.000,272.0633468803386,788.3484531196615
807,1007.000,220.38282474493212,789.0577552550678
808,1008.000,162.69255182676818,789.7661641732318
809,1009.000,134.9864003535347,790.4736766464653
810,1010.000,114.52181855001015,791.1802894499898
811,1011.000,92.12722763804516,791.8859993619549
812,1012.000,85.60962583654225,792.5908031634577
813,1013.000,83.0514263614366,793.2946976385634
814,1014.000,68.08656742567655,793.9976795743235
815,1015.000,48.78736123920396,794.6997457607961
816,1016.000,59.18555400893558,795.4008929910644
817,1017.000,55.1234439387423,796.1011180612577
818,1018.000,65.83449322943056,796.8004177705694
819,1019.000,58.778630078723154,797.4987889212769
820,1020.000,60.499199681238565,798.1962283187614
821,1021.000,75.7452712284728,798.8927327715272
822,1022.000,75.06547090877905,799.588299091221
823,1023.000,73.20938390734875,800.2829240926512
824,1024.000,102.15502740619183,800.9766045938081
825,1025.000,116.32828758411767,801.6693374158823
826,1026.000,147.76249861671442,802.3611193832855
827,1027.000,197.27026467633186,803.0519473236682
828,1028.000,263.362901932059,803.741818067941
829,1029.000,318.84829954970724,804.4307284502927
830,1030.000,396.5514646917892,805.1186753082108
831,1031.000,397.78815001750047,805.8056554824994
832,1032.000,399.02580518269895,806.4916658173009
833,1033.000,332.6115868398862,807.1767031601138
834,1034.000,250.9651406381878,807.8607643618121
835,1035.000,191.071409723334,808.543846276666
836,1036.000,143.07018123763987,809.2259457623601
837,1037.000,111.69701431998612,809.9070596800138
838,1038.000,101.61199610579968,810.5871848942003
839,1039.000,67.10835772703456,811.2663182729655
840,1040.000,59.271514645484444,811.9444566878489
841,1041.000,51.435669652765,812.6215970139017
842,1042.000,43.60082587029308,813.2977361297069
843,1043.000,40.73710208260093,813.9728709173991
844,1044.000,28.282896737317287,814.6469982626827
845,1045.000,31.579447945147308,815.3201150548526
846,1046.000,21.81001881318639,815.9922181868136
847,1047.000,23.966902444901393,816.6633045550986
848,1048.000,23.976293940110168,817.3333710598898
849,1049.000,17.3811173949631,818.0024146050368
850,1050.000,15.842085901923156,818.6704320980768
851,1051.000,16.385946549746336,819.3374204502537
852,1052.000,15.290286423462248,820.0033765765378
853,1053.000,9.411736604354928,820.668297395645
854,1054.000,9.409418169943251,821.3321798300567
855,1055.000,22.349069193961554,821.9950208060385
856,1056.000,18.231563746339248,822.6568172536607
857,1057.000,16.08984889318333,823.3175661068167
858,1058.000,14.242070196756913,823.9772643032431
859,1059.000,12.39534521546068,824.6359087845393
860,1060.000,16.430387503813677,825.2934964961863
861,1061.000,7.583684612433672,825.9500243875664
862,1062.000,6.01748758801682,826.6054894119832
863,1063.000,14.363790473319341,827.2598885266807
864,1064.000,2.9600693071378146,827.9132186928622
865,1065.000,5.533330124289137,828.5654768757108
866,1066.000,11.62090995559197,829.2166600444081
867,1067.000,14.264111827846364,829.8667651721537
868,1068.000,2.532573763815094,830.5157892361849
869,1069.000,3.9855327822032223,831.1637292177968
870,1070.000,8.01627489763996,831.8105821023601
871,1071.000,13.797611120658303,832.4563448793417
872,1072.000,7.03245345767516,833.1010145423248
873,1073.000,11.424800910973318,833.7445880890267
874,1074.000,11.305744478680595,834.3870625213194
875,1075.000,6.977207154751227,835.0284348452487
876,1076.000,6.750768928945945,835.6687020710541
877,1077.000,0.0,836.3078612131872
878,1078.000,9.748763709667628,836.9459092903323
879,1079.000,1.9905156745744534,837.5828433254255
880,1080.000,6.10573065432618,838.2186603456738
881,1081.000,7.134662617424965,838.853357382575
882,1082.000,3.8030495280630703,839.4869314719369
883,1083.000,1.5384163461031903,840.1193796538968
884,1084.000,7.7273240270588985,840.7506989729411
885,1085.000,0.0,841.3808864779248
886,1086.000,6.597481777909479,842.0099392220906
887,1087.000,0.0,842.6378542630886
888,1088.000,1.0966843370041488,843.2646286629958
889,1089.000,3.8454785116642825,843.8902594883357
890,1090.000,0.0,844.5147438100973
891,1091.000,0.0,845.138078703755
892,1092.000,0.0,845.7602612492876
893,1093.000,0.0,846.3812885311987
894,1094.000,0.0,847.0011576385346
895,1095.000,12.647002335094612,847.6198656649054
896,1096.000,7.85088329149653,848.2374097085035
897,1097.000,6.738562127876776,848.8537868721232
898,1098.000,7.749194736819732,849.4689942631803
899,1099.000,4.0568520062682865,850.0830289937317
900,1100.000,0.0,850.6958881804942
901,1101.000,5.896078055135035,851.307568944865
902,1102.000,8.380112587059898,851.9180684129401
903,1103.000,11.0291122844651,852.5273837155348
904,1104.000,13.679299011798093,853.1355119882019
905,1105.000,5.551236628747688,853.7424503712523
906,1106.000,1.414697990225818,854.3481960097741
907,1107.000,5.736087946347993,854.952746053652
908,1108.000,4.786660342413597,855.5560976575864
909,1109.000,0.0,856.1582479811135
910,1110.000,11.588438811375795,856.7591941886242
911,1111.000,6.906061550615618,857.3589334493844
912,1112.000,13.794360062446685,857.9574629375533
913,1113.000,12.987673167796515,858.5547798322035
914,1114.000,4.117756682659092,859.1508813173409
915,1115.000,0.8354474180769103,859.7457645819231
916,1116.000,5.564001180120044,860.3394268198799
917,1117.000,6.012721769867994,860.931865230132
918,1118.000,15.52102998338944,861.5230770166106
919,1119.000,18.191090611722643,862.1130593882774
920,1120.000,5.9284144408566135,862.7018095591434
921,1121.000,5.091909251710945,863.289324748289
922,1122.000,4.982430820117656,863.8756021798823
923,1123.000,6.037093916799563,864.4606390832005
924,1124.000,9.960936307352881,865.0444326926471
925,1125.000,9.157390752227002,865.626980247773
926,1126.000,8.355094006704462,866.2082789932955
927,1127.000,9.979331820882294,866.7883261791177
928,1128.000,12.654603939652702,867.3671190603472
929,1129.000,11.202022102682236,867.9446548973177
930,1130.000,0.0,868.5209309556059
931,1131.000,2.6208614939475865,869.0959445060524
932,1132.000,1.0022521752187004,869.6696928247814
933,1133.000,8.126523806781051,870.242173193219
934,1134.000,13.880684101886573,870.8133828981134
935,1135.000,20.957639768445233,871.3833192315548
936,1136.000,20.43257450900603,871.951979490994
937,1137.000,19.90878802073837,872.5193609792616
938,1138.000,16.94574499541079,873.0854610045892
939,1139.000,14.340222119373152,873.6502768806268
940,1140.000,4.390003073536036,874.2138059264639
941,1141.000,24.110455533352706,874.7760454666472
942,1142.000,12.214713168797743,875.3369928312022
943,1143.000,27.10968164434894,875.8966453556511
944,1144.000,36.46734461896756,876.4550003810324
945,1145.000,29.092370746079155,877.0120552539208
946,1146.000,31.26866067355286,877.5678073264471
947,1147.000,37.682342043683775,878.1222539563162
948,1148.000,33.24615749317161,878.6753925068284
949,1149.000,55.77415065310265,879.2272203468973
950,1150.000,86.4219771489303,879.7777348510697
951,1151.000,87.24203060045443,880.3269333995456
952,1152.000,108.28108462180239,880.8748133781976
953,1153.000,121.73507082141066,881.4213721785893
954,1154.000,133.76562180200415,881.9666071979958
955,1155.000,137.6776221605768,882.5105158394232
956,1156.000,134.75576598837245,883.0530955116275
957,1157.000,131.83524137086602,883.594343629134
958,1158.000,111.51216638774247,884.1342576122576
959,1159.000,91.1638481128789,884.6728348871211
960,1160.000,76.69058811432399,885.210072885676
961,1161.000,53.664387954279505,885.7459690457205
962,1162.000,52.91408118907998,886.28052081092
963,1163.000,46.87295736917349,886.8137256308265
964,1164.000,40.83318303910255,887.3455809608975
965,1165.000,34.79476073748435,887.8760842625156
966,1166.000,36.28345399699106,888.4052330030089
967,1167.000,36.623346844331195,888.9330246556688
968,1168.000,36.96459930022945,889.4594566997705
969,1169.000,23.01249037940704,889.984526620593
970,1170.000,33.8343930905628,890.5082319094372
971,1171.000,31.111846936353913,891.0305700636461
972,1172.000,28.97702741337548,891.5515385866245
973,1173.000,40.61416901214204,892.0711349878579
974,1174.000,29.619464217067616,892.5893567829323
975,1175.000,36.120255506446256,893.1062014935537
976,1176.000,52.784456352432926,893.621666647567
977,1177.000,47.25872822102383,894.1357497789762
978,1178.000,68.88748457203621,894.6484484279638
979,1179.000,81.19570785909048,895.1597601409095
980,1180.000,86.74657652958956,895.6696824704104
981,1181.000,107.47630602469974,896.1782129753003
982,1182.000,107.36925677933107,896.685349220669
983,1183.000,107.26360422211815,897.1910887778819
984,1184.000,107.15935077540075,897.6954292245993
985,1185.000,103.99203785520388,898.1983681447962
986,1186.000,87.65283287121883,898.6999031287812
987,1187.000,76.1888192267835,899.2000317732166
988,1188.000,65.04086931886286,899.6987516811372
989,1189.000,56.1145985380291,900.1960604619709
990,1190.000,38.40575026844374,900.6919557315563
991,1191.000,30.499829887836086,901.186435112164
992,1192.000,18.891634767485357,901.6794962325147
993,1193.000,26.03555227220022,902.1711367277998
994,1194.000,29.283816760299715,902.6613542397002
995,1195.000,16.33022558359437,903.1501464164056
996,1196.000,15.746184087365464,903.6375109126345
997,1197.000,5.857335610346922,904.123445389653
998,1198.000,9.109886484704589,904.6079475152955
999,1199.000,6.575459036017833,905.0910149639822
1000,1200.000,11.28294758325967,905.5726454167403
1001,1201.000,9.813398438776971,906.052836561223
1002,1202.000,14.515273908271752,906.5315860917283
1003,1203.000,4.98926129078086,907.0088917092191
1004,1204.000,7.570681878656956,907.484751121343
1005,1205.000,0.0,907.9591620424507
1006,1206.000,16.879136806384054,908.4321221936159
1007,1207.000,4.403220697344523,908.9036293026555
1008,1208.000,8.971214895851858,909.3736811041481
1009,1209.000,7.546294660546323,909.8422753394536
1010,1210.000,8.983332743266487,910.3094097567335
1011,1211.000,10.421832889030838,910.7750821109692
1012,1212.000,7.022038836018055,911.239290163982
1013,1213.000,6.031499315547194,911.7020316844528
1014,1214.000,3.4634175520586723,912.1633044479413
1015,1215.000,0.8355037630948345,912.6231062369052
1016,1216.000,0.0,913.0814348407202
1017,1217.000,2.975073944301016,913.538288055699
1018,1218.000,1.3260398148887589,913.9936636851113
1019,1219.000,0.0,914.4475595392024
1020,1220.000,3.972680564786401,914.8999734352136
1021,1221.000,7.939561802599201,915.3509031974008
1022,1222.000,0.0,915.800346657055
1023,1223.000,1.8358013474795598,916.2483016525205
1024,1224.000,11.759328970784509,916.6947660292155
1025,1225.000,0.0,917.1397376396507
1026,1226.000,12.979235656550486,917.5832143434495
1027,1227.000,0.0,918.025194007367
1028,1228.000,5.7251934946908705,918.4656745053092
1029,1229.000,0.0,918.904653718353
1030,1230.000,6.472198465234328,919.3421295347657
1031,1231.000,4.765171149975686,919.7780998500243
1032,1232.000,2.1753474331657117,920.2125625668343
1033,1233.000,12.08482540484988,920.6455155951501
1034,1234.000,3.658537147805646,921.0769568521944
1035,1235.000,0.0,921.5068842624768
1036,1236.000,0.7162682421854925,921.9352957578145
1037,1237.000,2.938284722649655,922.3621892773504
1038,1238.000,0.0,922.7875627675735
1039,1239.000,0.0,923.2114141823383
1040,1240.000,4.876683517115794,923.6337414828843
1041,1241.000,2.848888362145658,924.0545426378543
1042,1242.000,6.28496537668434,924.4738156233157
1043,1243.000,3.5614075772214164,924.8915584227785
1044,1244.000,1.8408629727841799,925.3077690272158
1045,1245.000,0.0,925.7224454350824
1046,1246.000,8.97335434766535,926.1355856523346
1047,1247.000,0.0,926.54718769245
1048,1248.000,2.312229423553731,926.9572495764463
1049,1249.000,11.341172667098363,927.3657693329017
1050,1250.000,0.0,927.7727449979726
1051,1251.000,0.0,928.1781746154159
1052,1252.000,3.538858763394842,928.5820562366051
1053,1253.000,2.0619910794474663,928.9843879205525
1054,1254.000,2.6220912660724025,929.3851677339276
1055,1255.000,4.955331248923926,929.7843937510761
1056,1256.000,5.640491945959866,930.1820640540401
1057,1257.000,6.479755267423002,930.578176732577
1058,1258.000,0.0,930.9727298841798
1059,1259.000,0.7934063859044045,931.3657216140956
1060,1260.000,4.820862964654452,931.7571500353456
1061,1261.000,2.9338437312559336,932.1470132687441
1062,1262.000,3.1663025570809396,932.535309442919
1063,1263.000,3.2650433056700194,932.92203669433
1064,1264.000,0.0,933.3071931672888
1065,1265.000,0.0,933.6907770139783
1066,1266.000,0.0,934.072786394472
1067,1267.000,3.492242523246091,934.4532194767539
1068,1268.000,8.64894956326259,934.8320744367375
1069,1269.000,2.524928541714644,935.2093494582854
1070,1270.000,4.372175266771251,935.5850427332288
1071,1271.000,0.0,935.9591524613867
1072,1272.000,3.5797751494138765,936.3316768505862
1073,1273.000,0.0,936.7026141166807
1074,1274.000,10.491308516429626,937.0719624835704
1075,1275.000,0.0,937.4397201832211
1076,1276.000,0.8643005443159382,937.805885455684
1077,1277.000,4.257421450884635,938.1704565491153
1078,1278.000,0.0,938.5334317197954
1079,1279.000,10.714847767851666,938.8948092321483
1080,1280.000,3.367651641238922,939.2545873587611
1081,1281.000,0.0,939.6127643804035
1082,1282.000,13.12596541395203,939.969338586048
1083,1283.000,0.0,940.3243082728873
1084,1284.000,6.546219253643699,940.6776717463563
1085,1285.000,2.635857179850177,941.0294273201498
1086,1286.000,0.0,941.3795733162431
1087,1287.000,2.235903935090164,941.7281080649099
1088,1288.000,7.056352095256557,942.0750299047435
1089,1289.000,3.6385328173242897,942.4203371826757
1090,1290.000,3.6104047460048605,942.7640282539951
1091,1291.000,4.966202517631245,943.1061014823688
1092,1292.000,6.323619760140446,943.4465552398595
1093,1293.000,0.0,943.7853879069464
1094,1294.000,0.0,944.1225978725449
1095,1295.000,9.789954465975484,944.4581835340246
1096,1296.000,2.0882707027699325,944.79214329723
1097,1297.000,0.0,945.1244755764997
1098,1298.000,4.4469102053144525,945.4551787946856
1099,1299.000,0.32636361682739334,945.7842513831727
1100,1300.000,11.625843218101977,946.111691781898
1101,1301.000,0.0,946.4374984393705
1102,1302.000,0.0,946.761669812691
1103,1303.000,0.0,947.08420436757
1104,1304.000,2.4309394216504643,947.4051005783496
1105,1305.000,0.0,947.7243569280199
1106,1306.000,0.0,948.0419719082415
1107,1307.000,1.0684479806367335,948.3579440193632
1108,1308.000,1.3657192295585219,948.6722717704415
1109,1309.000,9.627370320739033,948.9849536792609
1110,1310.000,6.3104417276475715,949.2959882723525
1111,1311.000,0.39692991498623087,949.6053740850138
1112,1312.000,3.7807543386711586,949.9131096613288
1113,1313.000,15.990333445814144,950.2191935541858
1114,1314.000,4.562034674700385,950.5236243252996
1115,1315.000,3.977425454772856,950.8264005452271
1116,1316.000,0.2325202066095926,951.1275207933904
1117,1317.000,7.50849734190524,951.4269836580947
1118,1318.000,0.5910312634528054,951.7247877365472
1119,1319.000,5.6442283651219896,952.020931634878
1120,1320.000,0.8504600318420898,952.3154139681579
1121,1321.000,2.461501639580433,952.6082333604196
1122,1322.000,0.0,952.8993884446755
1123,1323.000,0.0,953.1888778629386
1124,1324.000,2.5829927337588288,953.4767002662412
1125,1325.000,0.0,953.7628543146541
1126,1326.000,0.8186663226933888,954.0473386773066
1127,1327.000,7.736203967594065,954.330152032406
1128,1328.000,0.0,954.6112930672565
1129,1329.000,8.369190521720725,954.8907604782793
1130,1330.000,0.0,955.1685529710317
1131,1331.000,0.0,955.4446692602269
1132,1332.000,7.327702930247597,955.7191080697525
1133,1333.000,2.2379238673088366,955.9918681326911
1134,1334.000,0.0,956.2629481913395
1135,1335.000,0.0,956.5323469972275
1136,1336.000,0.0,956.8000633111383
1137,1337.000,9.089662096872871,957.0660959031271
1138,1338.000,3.500221447458898,957.330443552541
1139,1339.000,0.0,957.593105048039
1140,1340.000,5.62486381238989,957.8540791876101
1141,1341.000,0.0,958.1133647785937
1142,1342.000,1.8469843623008728,958.3709606376991
1143,1343.000,5.234513408975204,958.6268655910249
1144,1344.000,4.976380525921968,958.881078474078
1145,1345.000,6.6082678682068945,959.1335981317931
1146,1346.000,11.422495581446697,959.3844234185533
1147,1347.000,6.137176801792066,959.6335531982079
1148,1348.000,0.677137655906904,959.8809863440931
1149,1349.000,0.0,960.1267217390507
1150,1350.000,0.0,960.3707582754482
1151,1351.000,0.0,960.6130948551976
1152,1352.000,2.62797561022478,960.8537303897753
1153,1353.000,0.0,961.0926638002418
1154,1354.000,5.924898982739819,961.3298940172601
1155,1355.000,12.500038018883401,961.5654199811166
1156,1356.000,8.37495335826054,961.7992406417395
1157,1357.000,10.38784404128171,962.0313549587183
1158,1358.000,12.402442098675806,962.2617619013242
1159,1359.000,0.0,962.4904604485287
1160,1360.000,0.0,962.7174495890227
1161,1361.000,0.0,962.9427283212372
1162,1362.000,0.0,963.1662956533617
1163,1363.000,0.0,963.3881506033645
1164,1364.000,0.0,963.6082921990113
1165,1365.000,0.0,963.8267194778853
1166,1366.000,0.0,964.0434314874063
1167,1367.000,1.9087507151498357,964.2584272848502
1168,1368.000,0.0,964.4717059373686
1169,1369.000,0.0,964.6832665220086
1170,1370.000,0.0,964.8931081257316
1171,1371.000,0.0,965.1012298454326
1172,1372.000,0.0,965.3076307879608
1173,1373.000,7.573576929862043,965.5123100701379
1174,1374.000,7.291454181221411,965.7152668187786
1175,1375.000,0.0,965.9165001707083
1176,1376.000,0.0,966.1160092727849
1177,1377.000,2.612503718083417,966.3137932819166
1178,1378.000,3.106852634918255,966.5098513650818
1179,1379.000,0.0,966.7041826993491
1180,1380.000,0.3246945281044873,966.8967864718956
1181,1381.000,0.0,967.0876618800271
1182,1382.000,8.702267868801869,967.2768081311981
1183,1383.000,11.55424055696983,967.4642244430302
1184,1384.000,6.355936956668302,967.6499100433317
1185,1385.000,0.8297678298818028,967.8338641701182
1186,1386.000,16.542705928369514,968.0160860716305
1187,1387.000,0.2604209936445159,968.1965750063555
1188,1388.000,10.999551756955839,968.3753302430441
1189,1389.000,5.64087193926764,968.5523510607323
1190,1390.000,1.0885342512408442,968.7276367487592
1191,1391.000,0.0,968.9011866067875
1192,1392.000,0.0,969.0729999448229
1193,1393.000,2.873689916767603,969.2430760832324
1194,1394.000,0.0,969.4114143527651
1195,1395.000,0.0,969.5780140945718
1196,1396.000,7.710633339777587,969.7428746602225
1197,1397.000,0.2098885882716104,969.9059954117284
1198,1398.000,12.185897278440507,970.0673757215595
1199,1399.000,1.6427060273350662,970.227014972665
1200,1400.000,10.162460441508188,970.3849125584918
1201,1401.000,3.5137501169941743,970.5410678830058
1202,1402.000,9.28774963929061,970.6954803607094
1203,1403.000,3.7736585833382605,970.8481494166617
1204,1404.000,6.115443513501418,970.9990744864986
1205,1405.000,2.765940983549058,971.1482550164509
1206,1406.000,10.27453153663464,971.2956904633653
1207,1407.000,0.0,971.4413802947226
1208,1408.000,7.824048011342256,971.5853239886577
1209,1409.000,0.0,971.7275210339792
1210,1410.000,3.946803069811608,971.8679709301884
1211,1411.000,10.711040812500528,972.0066731874995
1212,1412.000,9.681141673141951,972.143627326858
1213,1413.000,2.5992621200388157,972.2788328799612
1214,1414.000,0.0,972.4122893892772
1215,1415.000,12.832688591935835,972.5439964080641
1216,1416.000,9.774679499610215,972.6739535003898
1217,1417.000,6.289594758848807,972.8021602411512
1218,1418.000,7.2737667839052165,972.9286162160948
1219,1419.000,12.595322978165882,973.0533210218341
1220,1420.000,19.287627734129273,973.1762742658707
1221,1421.000,1.172578433387116,973.2974755666129
1222,1422.000,10.14711244660407,973.4169245533959
1223,1423.000,23.94257513349919,973.5346208665009
1224,1424.000,19.539784842826066,973.6505641571739
1225,1425.000,14.429395912353698,973.7647540876463
1226,1426.000,11.58849266884613,973.8771903311539
1227,1427.000,21.591652428044085,973.9878725719559
1228,1428.000,24.967907494645033,974.096800505355
1229,1429.000,12.47664016228373,974.2039738377163
1230,1430.000,20.101788713512178,974.3093922864879
1231,1431.000,24.030372419781656,974.4130555802184
1232,1432.000,26.0472515414217,974.5149634585783
1233,1433.000,38.56632432762137,974.6151156723786
1234,1434.000,39.99506401641054,974.7135119835895
1235,1435.000,37.513267834638214,974.8101521653618
1236,1436.000,33.94593499795542,974.9050360020445
1237,1437.000,53.57900471079438,974.9981632892056
1238,1438.000,53.785154166349685,975.0895338336504
1239,1439.000,70.05133054655857,975.1791474534414
1240,1440.000,76.83011602208148,975.2670039779184
1241,1441.000,90.18540175228304,975.353103247717
1242,1442.000,97.15297188521072,975.4374451147892
1243,1443.000,111.84415755757914,975.5200294424208
1244,1444.000,129.61522089474647,975.6008561052536
1245,1445.000,143.67000201069675,975.6799249893032
1246,1446.000,161.29863800802218,975.7572359919777
1247,1447.000,184.64239697790015,975.8327890220997
1248,1448.000,199.72476300007713,975.9065839999229
1249,1449.000,216.38481314284627,975.9786208571538
1250,1450.000,219.41768046303002,976.04889953697
1251,1451.000,215.97296300596008,976.1174199940399
1252,1452.000,195.98690380545804,976.184182194542
1253,1453.000,197.54687488381478,976.2491861161852
1254,1454.000,171.24190325177312,976.3124317482269
1255,1455.000,137.29136490850658,976.3739190914933
1256,1456.000,106.02433984160041,976.4336481583995
1257,1457.000,117.30402202703294,976.491618972967
1258,1458.000,104.38883042915506,976.547831570845
1259,1459.000,73.1666760006708,976.6022859993293
1260,1460.000,71.37566168261844,976.6549823173815
1261,1461.000,60.73140940435121,976.7059205956488
1262,1462.000,57.38429808351725,976.7551009164827
1263,1463.000,50.11221862604009,976.8025233739598
1264,1464.000,46.566098926099585,976.8481880739004
1265,1465.000,36.619666866112425,976.8920951338876
1266,1466.000,26.517818316712578,976.9342446832874
1267,1467.000,29.529507136731468,976.9746368632685
1268,1468.000,26.702973173179203,977.0132718268208
1269,1469.000,21.980163261224902,977.0501497387751
1270,1470.000,14.01514522417665,977.0852707758233
1271,1471.000,27.678915873462984,977.118635126537
1272,1472.000,8.897452008612618,977.1502429913874
1273,1473.000,21.203116417235492,977.1800945827645
1274,1474.000,21.828058875002966,977.208190124997
1275,1475.000,18.772302145628487,977.2345298543715
1276,1476.000,18.129409980848322,977.2591140191516
1277,1477.000,13.831305120402249,977.2819428795978
1278,1478.000,13.345102292013507,977.3030167079864
1279,1479.000,1.6188422113690422,977.322335788631
1280,1480.000,23.57478858210152,977.3399004178984
1281,1481.000,13.310428095768657,977.3557109042314
1282,1482.000,3.940912431833681,977.3697675681664
1283,1483.000,16.054276257647302,977.3820707423527
1284,1484.000,5.002338228425742,977.3926207715742
1285,1485.000,14.879995987234224,977.4014180127658
1286,1486.000,17.555690164964858,977.4084628350352
1287,1487.000,10.740184380319079,977.413755619681
1288,1488.000,5.025885239787385,977.4172967602126
1289,1489.000,1.9529113376294163,977.4190866623705
1290,1490.000,7.878138255856015,977.419125744144
1291,1491.000,8.832895564207774,977.4174144357922
1292,1492.000,0.0,977.4139531798629
1293,1493.000,10.148551568788434,977.4087424312115
1294,1494.000,0.0,977.4017826570222
1295,1495.000,3.9713006631756116,977.3930743368244
1296,1496.000,4.437254037484081,977.382617962516
1297,1497.000,3.6330169616204557,977.3704140383795
1298,1498.000,4.054109918896302,977.3564630811037
1299,1499.000,8.640638380198197,977.3407656198018
1300,1500.000,14.70698280396823,977.3233221960318
1301,1501.000,5.4959646361851355,977.3041333638149
1302,1502.000,7.845048310343486,977.2831996896565
1303,1503.000,0.0,977.2605217525638
1304,1504.000,0.9631028559335846,977.2361001440664
1305,1505.000,0.0,977.2099354682367
1306,1506.000,0.0,977.182028341707
1307,1507.000,3.376845606309871,977.1523793936901
1308,1508.000,0.0,977.1209892659998
1309,1509.000,0.0,977.0878586130689
1310,1510.000,0.0,977.0529881019688
1311,1511.000,4.017884587569711,977.0163784124303
1312,1512.000,0.9187767631387942,976.9780302368612
1313,1513.000,2.431828719633131,976.9379442803669
1314,1514.000,0.6709057392301929,976.8961212607699
1315,1515.000,0.0,976.8525619086284
1316,1516.000,0.0,976.8072669672574
1317,1517.000,0.463702807254208,976.7602371927458
1318,1518.000,10.699706646021923,976.711473353978
1319,1519.000,0.0,976.6609762326522
1320,1520.000,3.492254376700089,976.6087466232999
1321,1521.000,5.145073666693406,976.5547853333065
1322,1522.000,0.9036898170709264,976.4990931829291
1323,1523.000,6.108656994682974,976.4416710053171
1324,1524.000,12.608008353468676,976.3825196465314
1325,1525.000,9.36560203443696,976.321639965563
1326,1526.000,14.078866165645422,976.2590328343546
1327,1527.000,5.622762862182981,976.194699137817
1328,1528.000,11.72041622614779,976.1286397738522
1329,1529.000,9.669826346630657,976.0608556533693
1330,1530.000,5.8784407996935215,975.9913477003065
1331,1531.000,2.088778148350798,975.9201168516493
1332,1532.000,9.013906942550307,975.8471640574497
1333,1533.000,9.549225719152332,975.7724902808477
1334,1534.000,8.175860501912211,975.6960964980877
1335,1535.000,0.0,975.617983698541
1336,1536.000,11.831591115277206,975.5381528847228
1337,1537.000,0.0,975.4566050723131
1338,1538.000,0.69868670982396,975.3733412901761
1339,1539.000,9.839980419621725,975.2883625803782
1340,1540.000,7.422150001790101,975.2016699982099
1341,1541.000,7.61810438779662,975.1132646122034
1342,1542.000,11.388479495847832,975.0231475041521
1343,1543.000,12.054689230868576,974.9313197691314
1344,1544.000,8.84845648448345,974.8377825155166
1345,1545.000,4.4077921349967255,974.7425368650033
1346,1546.000,3.454347047372721,974.6455839526272
1347,1547.000,13.540872073217656,974.5469249267824
1348,1548.000,13.68769705075863,974.4465609492414
1349,1549.000,15.081547804825277,974.3444931951747
1350,1550.000,16.477101146829455,974.2407228531705
1351,1551.000,9.103038874746858,974.1352511252531
1352,1552.000,3.811883773095815,974.0280792269042
1353,1553.000,7.749845612919557,973.9192083870804
1354,1554.000,11.69110715176646,973.8086398482335
1355,1555.000,9.467631133668988,973.696374866331
1356,1556.000,8.309163289127241,973.5824147108727
1357,1557.000,8.213876335086184,973.4667606649139
1358,1558.000,24.274492974918644,973.3494140250814
1359,1559.000,13.036546898403913,973.2303761015961
1360,1560.000,18.770809781710682,973.1096482182893
1361,1561.000,12.547013287375535,972.9872317126245
1362,1562.000,15.933881564283865,972.8631279357162
1363,1563.000,19.322435747650843,972.7373382523491
1364,1564.000,18.750717959002372,972.6098640409976
1365,1565.000,26.643657306154637,972.4807066938454
1366,1566.000,26.303921383194734,972.3498676168052
1367,1567.000,25.965865770462187,972.2173482295378
1368,1568.000,24.66096103452867,972.0831499654713
1369,1569.000,30.138609728178835,971.9472742718211
1370,1570.000,24.845410390390384,971.8097226096096
1371,1571.000,43.96765654631554,971.6704964536844
1372,1572.000,38.01311770726079,971.5295972927393
1373,1573.000,49.54354337066707,971.3870266293329
1374,1574.000,61.40773902009175,971.2427859799083
1375,1575.000,71.66599912518802,971.096876874812
1376,1576.000,86.03790014168601,970.9493008583139
1377,1577.000,94.6349535113726,970.8000594886274
1378,1578.000,112.64899566207237,970.6491543379277
1379,1579.000,140.18926000762804,970.4965869923719
1380,1580.000,165.20622694788244,970.3423590521174
1381,1581.000,192.86749186865677,970.1864721313432
1382,1582.000,216.9314991417316,970.0289278582684
1383,1583.000,220.64741112482898,969.8697278751711
1384,1584.000,208.0566311615912,969.7088738384089
1385,1585.000,195.46750358156282,969.5463674184373
1386,1586.000,179.7776017001696,969.3822102998305
1387,1587.000,153.80235681870067,969.2164041812994
1388,1588.000,141.79185122428794,969.048950775712
1389,1589.000,129.1267251898871,968.879851810113
1390,1590.000,127.05355197425774,968.7091090257422
1391,1591.000,131.12731282194488,968.5367241780551
1392,1592.000,125.46647296325796,968.362699036742
1393,1593.000,136.96520661425325,968.1870353857466
1394,1594.000,158.58325497671308,968.009735023287
1395,1595.000,187.6920362381261,967.830799761874
1396,1596.000,203.90268557166883,967.6502314283312
1397,1597.000,260.52394013618584,967.4680318638142
1398,1598.000,321.87345407617056,967.2842029238294
1399,1599.000,418.2264965217448,967.0987464782552
1400,1600.000,509.2284745886411,966.911664411359
1401,1601.000,590.0452323781807,966.7229586218192
1402,1602.000,594.3329679772567,966.5326310227433
1403,1603.000,598.6223234583128,966.3406835416872
1404,1604.000,501.4786508793246,966.1471181206754
1405,1605.000,424.9092977837804,965.9519367162195
1406,1606.000,348.3415587006615,965.7551412993386
1407,1607.000,271.7754316444216,965.5567338555784
1408,1608.000,195.21091461496883,965.3567163850311
1409,1609.000,162.00960009764685,965.1550909023531
1410,1610.000,135.20928356321258,964.9518594367875
1411,1611.000,102.43252496781952,964.7470240321804
1412,1612.000,77.36070525299749,964.5405867470025
1413,1613.000,77.18763834563231,964.3325496543677
1414,1614.000,56.14517215794717,964.1229148420529
1415,1615.000,60.561603587483205,963.9116844125167
1416,1616.000,43.77955151707977,963.6988604829203
1417,1617.000,38.577589814854605,963.4844451851454
1418,1618.000,32.70768733418561,963.2684406658144
1419,1619.000,36.37817391368992,963.0508490863101
1420,1620.000,32.0980103772049,962.831672622795
1421,1621.000,25.82503653376989,962.6109134662302
1422,1622.000,28.2902531776042,962.3885738223958
1423,1623.000,22.118800088090893,962.1646559119091
1424,1624.000,22.04247002975444,961.9391619702456
1425,1625.000,20.940537752243017,961.712094247757
1426,1626.000,15.960908990307871,961.4834550096921
1427,1627.000,20.43389046378502,961.253246536215
1428,1628.000,19.401708877575402,961.0214711224246
1429,1629.000,18.1486609216239,960.7881310783761
1430,1630.000,17.985698270903185,960.5532287290968
1431,1631.000,4.982938585391025,960.316766414609
1432,1632.000,13.408466510052335,960.0787464899477
1433,1633.000,3.9603606748192988,959.8391713251807
1434,1634.000,16.501315694572327,959.5980433054277
1435,1635.000,10.410616169120544,959.3553648308795
1436,1636.000,1.2877316831816188,959.1111383168184
1437,1637.000,4.153130806363606,958.8653661936364
1438,1638.000,7.020073093143651,958.6180509068563
1439,1639.000,0.0,958.3691949171491
1440,1640.000,10.17382529964425,958.1188007003558
1441,1641.000,18.38432025249506,957.8668707475049
1442,1642.000,5.372146435167906,957.6134075648321
1443,1643.000,8.002289326198479,957.3584136738015
1444,1644.000,5.705250388876948,957.101891611123
1445,1645.000,3.2772540712273894,956.8438439287726
1446,1646.000,1.0508928059879281,956.5842731940121
1447,1647.000,0.0,956.3231819894085
1448,1648.000,16.251531087147896,956.0605729128521
1449,1649.000,6.659052422421496,955.7964485775785
1450,1650.000,6.286414387813693,955.5308116121863
1451,1651.000,12.756545339343688,955.2636646606563
1452,1652.000,7.318873617627673,954.9950103823724
1453,1653.000,3.030148547860108,954.7248514521399
1454,1654.000,6.190819439794836,954.4531905602051
1455,1655.000,0.0,954.1800304122752
1456,1656.000,4.980266270462266,953.9053737295377
1457,1657.000,3.162317751320529,953.6292232486795
1458,1658.000,9.167505278093586,953.3515817219064
1459,1659.000,4.299262083036979,953.072451916963
1460,1660.000,3.573365382847669,952.7918366171523
1461,1661.000,4.061901378646667,952.5097386213533
1462,1662.000,8.150315255956798,952.2261607440432
1463,1663.000,1.9418701846844897,951.9411058153155
1464,1664.000,0.0,951.6545766808986
1465,1665.000,10.078341797822645,951.3665762021774
1466,1666.000,0.0,951.0771072562101
1467,1667.000,0.0,950.7861727357507
1468,1668.000,4.342137450734754,950.4937755492653
1469,1669.000,0.0,950.199918620954
1470,1670.000,9.298438109230347,949.9046048907696
1471,1671.000,2.1417626855629806,949.607837314437
1472,1672.000,6.634153136528312,949.3096188634717
1473,1673.000,3.610424474799288,949.0099525252007
1474,1674.000,8.989214697218586,948.7088413027814
1475,1675.000,7.151330784778679,948.4062882152214
1476,1676.000,0.0,948.1022962973974
1477,1677.000,0.0,947.7968686000743
1478,1678.000,0.0,947.4900081899265
1479,1679.000,0.0,947.181718149555
1480,1680.000,0.0,946.8720015775083
1481,1681.000,0.0,946.5608615883015
1482,1682.000,4.957589687563313,946.2483013124366
1483,1683.000,5.657480103580383,945.9343238964196
1484,1684.000,4.557087497216685,945.6189325027833
1485,1685.000,0.0,945.3021303101034
1486,1686.000,0.0,944.9839205130202
1487,1687.000,5.375255677742302,944.6643063222577
1488,1688.000,11.030219035357845,944.3432909646422
1489,1689.000,3.9309293168771546,944.0208776831229
1490,1690.000,1.9053942632099279,943.6970697367901
1491,1691.000,8.716550599104266,943.3718704008958
1492,1692.000,0.0,943.0452829668723
1493,1693.000,9.100060257647328,942.7173107423527
1494,1694.000,3.143824948811016,942.387957051189
1495,1695.000,0.8322877665268607,942.0572252334731
1496,1696.000,0.0,941.7251186455546
1497,1697.000,0.0,941.3916406600616
1498,1698.000,8.658033334080528,941.0567946659195
1499,1699.000,17.894856931629874,940.7205840683702
1500,1700.000,10.971698711007093,940.3830122889929
1501,1701.000,0.0,940.0440827657219
1502,1702.000,1.1475900471327805,939.7037989528673
1503,1703.000,0.0,939.3621643211333
1504,1704.000,2.585123642361168,939.0191823576388
1505,1705.000,0.07326743406372316,938.6748565659362
1506,1706.000,5.932033533968479,938.3291904660315
1507,1707.000,0.6019394055972498,937.9821875944027
1508,1708.000,0.0,937.6338515040197
1509,1709.000,0.0,937.2841857643648
1510,1710.000,0.0,936.9331939614505
1511,1711.000,2.6529713021599264,936.58087969784
1512,1712.000,0.0,936.2272465926663
1513,1713.000,2.2619527183483115,935.8722982816516
1514,1714.000,5.193677582871942,935.516038417128
1515,1715.000,5.457680331945312,935.1584706680546
1516,1716.000,10.881208279961584,934.7995987200384
1517,1717.000,13.728153724646063,934.439426275354
1518,1718.000,8.075535447037737,934.0779570529623
1519,1719.000,2.4242102114689033,933.7151947885311
1520,1720.000,0.0,933.3511432344528
1521,1721.000,0.0,932.9858061598657
1522,1722.000,0.5740926493286906,932.6191873506713
1523,1723.000,6.364720390443495,932.2512906095565
1524,1724.000,0.5151202439890312,931.882119756011
1525,1725.000,9.701017373653144,931.5116786263469
1526,1726.000,0.0,931.1399710737198
1527,1727.000,0.0,930.767000968146
1528,1728.000,2.0496088034758486,930.3927721965241
1529,1729.000,0.0,930.0172886626518
1530,1730.000,0.0,929.6405542872485
1531,1731.000,6.078912992027426,929.2625730079726
1532,1732.000,7.280935220558263,928.8833487794417
1533,1733.000,1.8611914267474958,928.5028855732525
1534,1734.000,2.031880622001836,928.1211873779981
1535,1735.000,10.9965008007091,927.738258199291
1536,1736.000,12.499137940220407,927.3541020597796
1537,1737.000,0.33111500083134615,926.9687229991687
1538,1738.000,0.0,926.582125074239
1539,1739.000,4.4866326411324735,926.1943123588675
1540,1740.000,0.3354780559559458,925.805288944044
1541,1741.000,6.606260062105548,925.4150589378944
1542,1742.000,3.488089534302958,925.023626465697
1543,1743.000,2.131131330095627,924.6309956699043
1544,1744.000,0.0,924.2371707101611
1545,1745.000,0.3703172366763283,923.8421557633237
1546,1746.000,0.0,923.4459550234802
1547,1747.000,6.517332298029601,923.0485727019704
1548,1748.000,3.32787097259677,922.6500130274032
1549,1749.000,7.074965754321056,922.2502802456789
1550,1750.000,0.31597137999369806,921.8493786200063
1551,1751.000,0.0,921.4473124309233
1552,1752.000,2.544539023684024,921.044085976316
1553,1753.000,0.0,920.6397035714381
1554,1754.000,0.5153714510693135,920.2341695489307
1555,1755.000,10.822360741158377,919.8274882588416
1556,1756.000,16.464351931355054,919.4196640686449
1557,1757.000,6.540513636739888,919.0107013632601
1558,1758.000,1.7972854549283284,918.6006045450716
1559,1759.000,0.0,918.1893780339484
1560,1760.000,7.426337732736442,917.7770262672635
1561,1761.000,8.015228300086278,917.3635536999137
1562,1762.000,0.0,916.9489648043382
1563,1763.000,0.0,916.5332640705392
1564,1764.000,4.381392993900931,916.116456006099
1565,1765.000,0.0,915.6985451362038
1566,1766.000,10.222228996341073,915.2795360036589
1567,1767.000,0.0,914.8594331689092
1568,1768.000,2.9290147899390604,914.4382412100609
1569,1769.000,0.0,914.0159647228985
1570,1770.000,10.919626679095245,913.5926083209048
1571,1771.000,0.25765936471862005,913.1681766352814
1572,1772.000,0.0,912.7426743149664
1573,1773.000,1.7404389733442258,912.3161060266558
1574,1774.000,2.5880825451788496,911.8884764548211
1575,1775.000,16.61933169826898,911.459790301731
1576,1776.000,6.7947767125315295,911.0300522874685
1577,1777.000,9.178437850048908,910.5992671499511
1578,1778.000,0.3923153550487086,910.1674396449513
1579,1779.000,8.307473953884369,909.7345745461156
1580,1780.000,16.22366535501726,909.3006766449828
1581,1781.000,11.093982248995644,908.8657507510044
1582,1782.000,12.155420308435055,908.429801691565
1583,1783.000,4.590950688000248,907.9928343119998
1584,1784.000,0.0,907.5548534756146
1585,1785.000,7.476413936292602,907.1158640637074
1586,1786.000,13.410370024415442,906.6758709755845
1587,1787.000,0.844139871417724,906.2348791285823
1588,1788.000,8.309214541914002,905.792893458086
1589,1789.000,5.359959082450359,905.3499189175496
1590,1790.000,16.82242752148659,904.9059604785134
1591,1791.000,5.193638869373672,904.4610231306264
1592,1792.000,4.727078118336635,904.0151118816634
1593,1793.000,0.0,903.5682317575462
1594,1794.000,8.892503197638234,903.1203878023617
1595,1795.000,0.33657292161842634,902.6715850783816
1596,1796.000,6.980103333917555,902.2218286660825
1597,1797.000,10.3489673358348,901.7711236641652
1598,1798.000,0.0,901.3194751895735
1599,1799.000,2.748872622485351,900.8668883775147
1600,1800.000,5.688515618521933,900.4133683814781
1601,1801.000,11.065911626745674,899.9589203732543
1602,1802.000,5.365585457043949,899.5035495429561
1603,1803.000,12.280169900963529,899.0472610990365
1604,1804.000,5.242189731690928,898.5900602683091
1605,1805.000,9.481919704032748,898.1319522959673
1606,1806.000,3.115501554397383,897.6729424456026
1607,1807.000,0.0,897.2130359992267
1608,1808.000,8.994872742712573,896.7522382572874
1609,1809.000,0.0,896.290554538692
1610,1810.000,9.029464819176269,895.8279901808237
1611,1811.000,9.798437460438095,895.364550539562
1612,1812.000,6.706463010697348,894.9002409893027
1613,1813.000,1.1119900770227105,894.4350669229773
1614,1814.000,3.214267247928433,893.9690337520716
1615,1815.000,2.2406910933550535,893.502146906645
1616,1816.000,1.185993164648039,893.034411835352
1617,1817.000,6.874956994540412,892.5658340054596
1618,1818.000,6.341976097132488,892.0964189028675
1619,1819.000,0.20294296787187704,891.6261720321281
1620,1820.000,3.5577280835357215,891.1550989164642
1621,1821.000,0.6067769022093898,890.6832050977906
1622,1822.000,1.800514863268404,890.2104961367316
1623,1823.000,3.642665387357283,889.7369776126427
1624,1824.000,9.725384876371209,889.2626551236287
1625,1825.000,0.0,888.7875342865624
1626,1826.000,6.087009262894753,888.3116207371053
1627,1827.000,6.202781870273839,887.8349201297261
1628,1828.000,11.98097386227721,887.3574381377227
1629,1829.000,2.0612715467619864,886.8791804532381
1630,1830.000,8.764658212719041,886.400152787281
1631,1831.000,11.258969130252353,885.9203608697477
1632,1832.000,15.50921355056255,885.4398104494375
1633,1833.000,3.695938705924391,884.9585072940756
1634,1834.000,3.524088309669196,884.4764571903308
1635,1835.000,3.3529790561647133,883.9936659438353
1636,1836.000,11.06933162079531,883.5101393792047
1637,1837.000,0.0,883.0258833400565
1638,1838.000,5.991906310970421,882.5409036890296
1639,1839.000,5.523198692194342,882.0552063078056
1640,1840.000,5.055202902874385,881.5687970971256
1641,1841.000,4.099783023188593,881.0816819768114
1642,1842.000,6.444135114215101,880.5938668857849
1643,1843.000,0.0,880.1053577820866
1644,1844.000,6.119378357103983,879.616160642896
1645,1845.000,3.591155535450298,879.1262814645497
1646,1846.000,9.783844737436425,878.6357262625636
1647,1847.000,7.992643928351299,878.1445010716487
1648,1848.000,6.4415650542658796,877.6526119457341
1649,1849.000,4.233665042016241,877.1600649579838
1650,1850.000,2.0264167991821296,876.6668662008178
1651,1851.000,4.191905214070175,876.1730217859298
1652,1852.000,3.648710655691275,875.6785378443087
1653,1853.000,3.106149473742221,875.1834205262578
1654,1854.000,11.834504998587704,874.6876760014123
1655,1855.000,0.0,874.1913104587613
1656,1856.000,7.335561893335921,873.6943301066641
1657,1857.000,4.609633827125776,873.1967411728742
1658,1858.000,7.099227095446054,872.6985499045539
1659,1859.000,3.6745554317024016,872.1997625682976
1660,1860.000,9.821412549851289,871.7003854501487
1661,1861.000,16.981287144379735,871.2004248556202
1662,1862.000,15.56203889028518,870.6998871097148
1663,1863.000,16.88367444305777,870.1987785569422
1664,1864.000,17.311993438658988,869.697105561341
1665,1865.000,17.740870493503166,869.1948745064968
1666,1866.000,8.351352204438513,868.6920917955615
1667,1867.000,3.9661821487261477,868.1887638512738
1668,1868.000,0.0,867.6848971159781
1669,1869.000,10.239287948357173,867.1804980516429
1670,1870.000,16.18863886011775,866.6755731398822
1671,1871.000,5.221683118025567,866.1701288819744
1672,1872.000,10.128784201119743,865.6641717988803
1673,1873.000,1.4764855687353702,865.1577084312646
1674,1874.000,5.223927660486538,864.6507453395135
1675,1875.000,8.971862896243806,864.1432891037562
1676,1876.000,5.897748676117999,863.635346323882
1677,1877.000,3.3698563804377955,863.1269236195621
1678,1878.000,4.829770369732842,862.6180276302672
1679,1879.000,14.39910398471227,862.1086650152878
1680,1880.000,1.0924715462456334,861.5988424537544
1681,1881.000,6.329452355344529,861.0885666446554
1682,1882.000,4.045701693143201,860.5778443068568
1683,1883.000,8.746529320876562,860.0666821791235
1684,1884.000,13.447789979864183,859.5550870201358
1685,1885.000,5.126570391487917,859.0430656085122
1686,1886.000,0.0,858.5306247428263
1687,1887.000,4.063542758373387,858.0177712416266
1688,1888.000,0.0,857.5045119434573
1689,1889.000,5.548948293123885,856.9908537068761
1690,1890.000,6.633245589524336,856.4768034104757
1691,1891.000,12.253699047099758,855.9623679529002
1692,1892.000,2.299131747131014,855.4475542528689
1693,1893.000,11.416062750809033,854.932369249191
1694,1894.000,5.6735280992119215,854.416819900788
1695,1895.000,14.459191813286907,853.9009131867131
1696,1896.000,11.85633989383075,853.3846561061692
1697,1897.000,9.253831321470443,852.8680556785296
1698,1898.000,1.1384680566424095,852.3511189433576
1699,1899.000,7.603314039575707,851.8338529604243
1700,1900.000,4.62717719026989,851.3162648097301
1701,1901.000,0.0,850.7983615915223
1702,1902.000,12.567677573683454,850.2801504263166
1703,1903.000,6.921489545085365,849.7616384549146
1704,1904.000,3.6080541615751827,849.2428328384248
1705,1905.000,9.498357241719305,848.7237407582807
1706,1906.000,12.23344258373902,848.204369416261
1707,1907.000,6.531790965490018,847.6847260345099
1708,1908.000,5.608338144445611,847.1648178555544
1709,1909.000,0.0,846.6446521423262
1710,1910.000,0.0,846.124236178179
1711,1911.000,7.073658733090497,845.6035772669095
1712,1912.000,3.8507872672238364,845.0826827327762
1713,1913.000,13.513387079481163,844.5615599205188
1714,1914.000,7.828613804622137,844.0402161953779
1715,1915.000,2.4366830568857267,843.5186589431142
1716,1916.000,8.445764429971405,842.9968955700286
1717,1917.000,7.130604497019021,842.474933502981
1718,1918.000,0.0,841.9527801894099
1719,1919.000,14.011982902648356,841.4304430973516
1720,1920.000,16.863653284539737,840.9079297154602
1721,1921.000,10.372366446972478,840.3852475530275
1722,1922.000,6.343430859999103,839.8624041400009
1723,1923.000,9.278836972995691,839.3394070270043
1724,1924.000,4.356902214643696,838.8162637853563
1725,1925.000,15.526152992909033,838.2929820070909
1726,1926.000,14.148839695023185,837.7695693049768
1727,1927.000,2.478617687464066,837.2460333125359
1728,1928.000,14.214522315936392,836.7223816840636
1729,1929.000,1.0066439053518934,836.1986220946482
1730,1930.000,3.951020759810035,835.6747622401899
1731,1931.000,16.061294162579657,835.1508098374203
1732,1932.000,11.922228376077783,834.6267726239222
1733,1933.000,5.103939641850047,834.1026583581499
1734,1934.000,8.864261180553285,833.5784748194467
1735,1935.000,15.386503191934594,833.0542298080654
1736,1936.000,17.189254854811566,832.5299311451885
1737,1937.000,8.824232327054688,832.0055866729454
1738,1938.000,14.124113745564728,831.4812042544353
1739,1939.000,9.704285226256957,830.956791773743
1740,1940.000,2.649413864038138,830.4323571359619
1741,1941.000,17.322792732790276,829.9079082672097
1742,1942.000,10.05462788534885,829.3834531146512
1743,1943.000,9.222344353484914,828.858999646515
1744,1944.000,12.043977147883538,828.3345558521164
1745,1945.000,19.5688322581276,827.8101297418724
1746,1946.000,4.577713652674788,827.2857293473252
1747,1947.000,5.685443778840863,826.7613627211591
1748,1948.000,6.793132062777886,826.2370379372221
1749,1949.000,0.1673679094574254,825.7127630905426
1750,1950.000,0.0,825.188546297351
1751,1951.000,6.879203304901125,824.6643956950988
1752,1952.000,16.282048557523126,824.1403194424769
1753,1953.000,11.995108280562249,823.6163257194378
1754,1954.000,13.772782272788504,823.0924227272114
1755,1955.000,11.42419431167366,822.5686186883263
1756,1956.000,9.661303153368976,822.044921846631
1757,1957.000,5.946590532690834,821.5213404673092
1758,1958.000,3.4586941630957426,820.9978828369043
1759,1959.000,11.147756736666338,820.4745572633336
1760,1960.000,20.44438392408688,819.9513720759131
1761,1961.000,9.72887137462908,819.4283356253709
1762,1962.000,10.97769671612707,818.9054562838729
1763,1963.000,12.373664554962033,818.3827424450379
1764,1964.000,10.079166476040427,817.8602025239596
1765,1965.000,15.011630042776574,817.3378449572234
1766,1966.000,11.66656279707081,816.8156782029292
1767,1967.000,12.638941259291641,816.2937107407083
1768,1968.000,11.66567992825776,815.7719510717423
1769,1969.000,5.005094281213701,815.2504077187863
1770,1970.000,2.544345773815735,814.7290892261842
1771,1971.000,7.426938840108619,814.2080041598914
1772,1972.000,0.0,813.6871611074918
1773,1973.000,5.351424321781451,813.1665686782186
1774,1974.000,13.08052549702768,812.6462355029723
1775,1975.000,9.101595765656612,812.1261702343434
1776,1976.000,17.5622914533717,811.6063815466283
1777,1977.000,2.7601378641496694,811.0868781358504
1778,1978.000,10.183214280220795,810.5676687197792
1779,1979.000,13.84182896204834,810.0487620379516
1780,1980.000,11.7165391483137,809.5301668516863
1781,1981.000,10.98032305589004,809.01189194411
1782,1982.000,11.694936879828674,808.4939461201714
1783,1983.000,3.639839793336705,807.9763382066633
1784,1984.000,13.190278947757633,807.4590770522424
1785,1985.000,6.367606472552893,806.9421715274472
1786,1986.000,16.21442247528205,806.4256305247179
1787,1987.000,5.149068041584087,805.9094629584159
1788,1988.000,0.48269523515580204,805.3936777648441
1789,1989.000,2.370897097734769,804.8782839022653
1790,1990.000,0.0,804.3632903509225
1791,1991.000,12.149024886941788,803.8487061130583
1792,1992.000,0.11070178706779643,803.3345402129322
1793,1993.000,19.114814303156663,802.8208016968433
1794,1994.000,9.677861366850834,802.3074996331492
1795,1995.000,2.48257788771798,801.7946431122821
1796,1996.000,6.597731753226867,801.2822412467731
1797,1997.000,7.014240828732113,800.7703031712679
1798,1998.000,8.050302957452686,800.2588380425473
1799,1999.000,2.7869759604514,799.7478550395487
1800,2000.000,14.143928636617375,799.2373633633827
