pixel_index,raman_shift_cm-1,intensity
0,200.000,0.019960618744759764
1,201.000,0.01824995180262301
2,202.000,0.016856686956432634
3,203.000,0.01574698884796778
4,204.000,0.014887022119007597
5,205.000,0.014242951411331275
6,206.000,0.013860972173824664
7,207.000,0.013974981754765603
8,208.000,0.014077025416635242
9,209.000,0.01214990683814217
10,210.000,0.0116862612722667
11,211.000,0.012289484890228124
12,212.000,0.011535378877624734
13,213.000,0.009451158463402798
14,214.000,0.0077236577052337205
15,215.000,0.007337484757991705
16,216.000,0.0064659762549595205
17,217.000,0.006732406012118433
18,218.000,0.008153055385826686
19,219.000,0.008427034622828001
20,220.000,0.007542608141918926
21,221.000,0.010504611117136143
22,222.000,0.012905525242501159
23,223.000,0.014392945076154212
24,224.000,0.015793569448713452
25,225.000,0.016629642544033183
26,226.000,0.015063758135909714
27,227.000,0.013587953221927896
28,228.000,0.01387202653664289
29,229.000,0.01191099198783329
30,230.000,0.009815465219315813
31,231.000,0.011471905975732557
32,232.000,0.011580349297712898
33,233.000,0.012644430322460968
34,234.000,0.012795737137685406
35,235.000,0.01212619158096625
36,236.000,0.009904011783811518
37,237.000,0.008098210721850647
38,238.000,0.007747477006737157
39,239.000,0.006345441297638084
40,240.000,0.006711193403936066
41,241.000,0.007664994831870801
42,242.000,0.006957689017078242
43,243.000,0.007014800781476018
44,244.000,0.007619134756551437
45,245.000,0.008496034648588053
46,246.000,0.010046147268542431
47,247.000,0.01143442736048157
48,248.000,0.012491820139888574
49,249.000,0.014250904673772807
50,250.000,0.01614907390320249
51,251.000,0.01644609855397027
52,252.000,0.017054631586273194
53,253.000,0.01654686978158734
54,254.000,0.0177997935612065
55,255.000,0.017333448109215697
56,256.000,0.016519771199689864
57,257.000,0.01473295727483009
58,258.000,0.012079068782888553
59,259.000,0.009019229701989123
60,260.000,0.007276443382235127
61,261.000,0.006688507538418943
62,262.000,0.008092500644722472
63,263.000,0.00937520598082619
64,264.000,0.015109019045742906
65,265.000,0.016821827760582306
66,266.000,0.0174213805163565
67,267.000,0.018438321711679497
68,268.000,0.016181160985078023
69,269.000,0.015027339584176444
70,270.000,0.013038893682056274
71,271.000,0.012257827476016028
72,272.000,0.012678877703503096
73,273.000,0.013075816908656107
74,274.000,0.01411167103596351
75,275.000,0.012925223487418341
76,276.000,0.011232684008751118
77,277.000,0.009501590458832773
78,278.000,0.008520590357890026
79,279.000,0.008835202659133472
80,280.000,0.008725014613794798
81,281.000,0.010832499106796126
82,282.000,0.013413789173107503
83,283.000,0.014889148221087225
84,284.000,0.015273560502494907
85,285.000,0.015143340665854686
86,286.000,0.01479094694912654
87,287.000,0.01610287889609999
88,288.000,0.016518175076965704
89,289.000,0.01690324704732657
90,290.000,0.016477191182393762
91,291.000,0.015539989973012988
92,292.000,0.015817316810156315
93,293.000,0.016550963522618926
94,294.000,0.01613283628436573
95,295.000,0.014951596119921425
96,296.000,0.01731647750229643
97,297.000,0.018552194384967816
98,298.000,0.01715091091395572
99,299.000,0.01736230827373496
100,300.000,0.016436606068993286
101,301.000,0.015998312911090915
102,302.000,0.01632606707288784
103,303.000,0.014719826645414808
104,304.000,0.012355236548719612
105,305.000,0.011118473911894734
106,306.000,0.013060015620702659
107,307.000,0.013828816781605309
108,308.000,0.013136224579452445
109,309.000,0.014337679542606304
110,310.000,0.017167002181976244
111,311.000,0.017127857991688703
112,312.000,0.01813372521716386
113,313.000,0.016853193304617414
114,314.000,0.01667408772944116
115,315.000,0.019047380833686265
116,316.000,0.019350600282616166
117,317.000,0.018659185826166186
118,318.000,0.0152836129436312
119,319.000,0.0137880325324749
120,320.000,0.013848914482663047
121,321.000,0.01165075312117166
122,322.000,0.010838795311802851
123,323.000,0.009140767936429586
124,324.000,0.01083253393730544
125,325.000,0.013703953470036315
126,326.000,0.015155360204706493
127,327.000,0.015833058513472723
128,328.000,0.014347327305801716
129,329.000,0.015247809822919331
130,330.000,0.01462758931938709
131,331.000,0.013472709576485461
132,332.000,0.013586264562992474
133,333.000,0.011731568970104765
134,334.000,0.013949269608534376
135,335.000,0.016238892183054833
136,336.000,0.01921529348739585
137,337.000,0.019919525973483516
138,338.000,0.018767257457520056
139,339.000,0.02058943834548506
140,340.000,0.018356928569832197
141,341.000,0.01993708817380757
142,342.000,0.02178084284503936
143,343.000,0.020609210626978142
144,344.000,0.020483852750604263
145,345.000,0.0203799878276691
146,346.000,0.019236378797022707
147,347.000,0.018314690910279277
148,348.000,0.01777590573571477
149,349.000,0.01561393558137914
150,350.000,0.014164422137845283
151,351.000,0.016179392683608743
152,352.000,0.01703659067055553
153,353.000,0.015355059058607968
154,354.000,0.012749928528531495
155,355.000,0.010061923073384707
156,356.000,0.008351408140626702
157,357.000,0.009545011397814667
158,358.000,0.01021138046734185
159,359.000,0.008953683390148903
160,360.000,0.011886169819132826
161,361.000,0.01588570681804394
162,362.000,0.01935561273101575
163,363.000,0.02079982869811521
164,364.000,0.021756994114605403
165,365.000,0.021426129198153752
166,366.000,0.02229060132514742
167,367.000,0.020903395404320325
168,368.000,0.018880236329113877
169,369.000,0.014651865521666207
170,370.000,0.011759381249824162
171,371.000,0.011767438706964062
172,372.000,0.013005564613118898
173,373.000,0.01300548742288816
174,374.000,0.014227957383743484
175,375.000,0.01606861938291777
176,376.000,0.01837072259920802
177,377.000,0.017215846738121005
178,378.000,0.018294453517477393
179,379.000,0.015425799029325048
180,380.000,0.013819487562108816
181,381.000,0.013821728176456124
182,382.000,0.013028239471701389
183,383.000,0.012395780661543216
184,384.000,0.01119681227376078
185,385.000,0.012366794406661514
186,386.000,0.012499803987702776
187,387.000,0.01264745988946763
188,388.000,0.012165919845971882
189,389.000,0.011677987841155887
190,390.000,0.011762713344602053
191,391.000,0.011068412463849084
192,392.000,0.01012943893549647
193,393.000,0.009930103442755996
194,394.000,0.00944241173678021
195,395.000,0.010089505769906467
196,396.000,0.011272584487099046
197,397.000,0.013102925055867872
198,398.000,0.014292726942673476
199,399.000,0.015641418191150325
200,400.000,0.016774877682871375
201,401.000,0.017176279680615244
202,402.000,0.016928195608609135
203,403.000,0.014757051361196219
204,404.000,0.014008487205937593
205,405.000,0.011806397349536769
206,406.000,0.012808035327750437
207,407.000,0.014427543607751402
208,408.000,0.014203772601154996
209,409.000,0.015326522844722761
210,410.000,0.017410721628700596
211,411.000,0.021490322374863556
212,412.000,0.024608452047344954
213,413.000,0.02363509764343006
214,414.000,0.022994407432683883
215,415.000,0.018894348614585204
216,416.000,0.017650262860812525
217,417.000,0.017862070839196983
218,418.000,0.015676837011039387
219,419.000,0.015937355683137863
220,420.000,0.015077627224132577
221,421.000,0.016261915339460073
222,422.000,0.014901494248154267
223,423.000,0.011178155024827318
224,424.000,0.008797586379372611
225,425.000,0.005965510489449397
226,426.000,0.007232622107042661
227,427.000,0.009238481137526991
228,428.000,0.009708115695063536
229,429.000,0.011340742103459457
230,430.000,0.013285355417496685
231,431.000,0.015457827278229244
232,432.000,0.015765917021358197
233,433.000,0.016356726412669238
234,434.000,0.018105461867042795
235,435.000,0.016723979492182073
236,436.000,0.01564100234204304
237,437.000,0.014574878238566746
238,438.000,0.010770296440168003
239,439.000,0.00993626945912768
240,440.000,0.01030824432565448
241,441.000,0.010414748044199784
242,442.000,0.009615972938916653
243,443.000,0.011791133306708102
244,444.000,0.01413140224922157
245,445.000,0.014460662107285492
246,446.000,0.016655061980450064
247,447.000,0.018722499778077988
248,448.000,0.01910975401118011
249,449.000,0.01962209028937361
250,450.000,0.020235181924023467
251,451.000,0.01734400653853114
252,452.000,0.015328390937551443
253,453.000,0.014921827504497004
254,454.000,0.01335686364581427
255,455.000,0.01319090427322069
256,456.000,0.012739731688043645
257,457.000,0.012159617755251718
258,458.000,0.011642608947627331
259,459.000,0.011255183581303854
260,460.000,0.01045128199221924
261,461.000,0.009900051456510319
262,462.000,0.011151320954683167
263,463.000,0.01083330420888182
264,464.000,0.013217203555887682
265,465.000,0.015633653850852212
266,466.000,0.015845638112106406
267,467.000,0.016249853318704217
268,468.000,0.016945634834634404
269,469.000,0.018251010741151187
270,470.000,0.016606996321090646
271,471.000,0.016066700122001322
272,472.000,0.014259906528125317
273,473.000,0.014591573385269166
274,474.000,0.014753868092109455
275,475.000,0.013678940514296386
276,476.000,0.012404091710949515
277,477.000,0.013803473649135733
278,478.000,0.015684589346304654
279,479.000,0.019223433100412635
280,480.000,0.020405579169722264
281,481.000,0.02107844872486588
282,482.000,0.01882538468722132
283,483.000,0.01813195599579282
284,484.000,0.015872155230293502
285,485.000,0.015284545355999242
286,486.000,0.016003138276370284
287,487.000,0.017108634905145644
288,488.000,0.018012276796522304
289,489.000,0.019910491372149834
290,490.000,0.020047383104092247
291,491.000,0.01897337376061828
292,492.000,0.01686119798874964
293,493.000,0.014919547850369119
294,494.000,0.013222510750478107
295,495.000,0.013505867337174113
296,496.000,0.013283304949499511
297,497.000,0.01323175039387268
298,498.000,0.014130160885031719
299,499.000,0.015182343088269684
300,500.000,0.015665253707185453
301,501.000,0.01721173334849879
302,502.000,0.018666303293945894
303,503.000,0.01756728557064673
304,504.000,0.015712398648127106
305,505.000,0.014289767930998948
306,506.000,0.011553836055711076
307,507.000,0.010118252235107187
308,508.000,0.008508671379859903
309,509.000,0.007631803726083231
310,510.000,0.008863947513560242
311,511.000,0.01286864963298496
312,512.000,0.014316452366008292
313,513.000,0.01665280380090288
314,514.000,0.015194484532086331
315,515.000,0.015598766087453302
316,516.000,0.015318552231564956
317,517.000,0.013352443747146297
318,518.000,0.01262909725039921
319,519.000,0.012064000842641599
320,520.000,0.01295678414658612
321,521.000,0.014484423763371283
322,522.000,0.014760031487997666
323,523.000,0.016431144741471455
324,524.000,0.016158435197044817
325,525.000,0.01934947445724471
326,526.000,0.020488511450313204
327,527.000,0.018768565920925784
328,528.000,0.019896299835284858
329,529.000,0.017573294244833452
330,530.000,0.015698654655423205
331,531.000,0.015309674164437482
332,532.000,0.01614209495132532
333,533.000,0.01625353350994245
334,534.000,0.015402521582847719
335,535.000,0.016399663321785683
336,536.000,0.015868495816044194
337,537.000,0.01526269886734634
338,538.000,0.015653698382383296
339,539.000,0.013705493983595465
340,540.000,0.015024466516360649
341,541.000,0.01591014225511456
342,542.000,0.017233783274921203
343,543.000,0.017497079921507945
344,544.000,0.016440277756600005
345,545.000,0.01842808967862841
346,546.000,0.01894315341677607
347,547.000,0.018750467737598125
348,548.000,0.0163719959949966
349,549.000,0.01416590950639081
350,550.000,0.014564024563749892
351,551.000,0.013484708583129697
352,552.000,0.013110311815971968
353,553.000,0.012438379617766221
354,554.000,0.011252619012133121
355,555.000,0.011901026259561187
356,556.000,0.012003218114141134
357,557.000,0.013394523935891786
358,558.000,0.01215857804175758
359,559.000,0.012833426566077943
360,560.000,0.014198701780057504
361,561.000,0.014875691248206317
362,562.000,0.014737254887578781
363,563.000,0.013851105158368217
364,564.000,0.012392074395972534
365,565.000,0.012426009072246226
366,566.000,0.012472888725393105
367,567.000,0.013404465426544795
368,568.000,0.011577891113824988
369,569.000,0.011922371054959777
370,570.000,0.013133115253743001
371,571.000,0.014356371233913371
372,572.000,0.015208333490199913
373,573.000,0.014638627588968983
374,574.000,0.014058772671384237
375,575.000,0.012380687572061051
376,576.000,0.01160186518238887
377,577.000,0.00897016158896248
378,578.000,0.0069896799574537885
379,579.000,0.006168328071762126
380,580.000,0.006092781312299082
381,581.000,0.007528491490969651
382,582.000,0.0074075072136602456
383,583.000,0.008532301653802608
384,584.000,0.01118775259751843
385,585.000,0.013046309305715402
386,586.000,0.016587711931880057
387,587.000,0.015968265478360284
388,588.000,0.016198078269164445
389,589.000,0.016880922176144425
390,590.000,0.015059338269223626
391,591.000,0.015499640642843029
392,592.000,0.012614769869223524
393,593.000,0.013368023458670053
394,594.000,0.014761615300893082
395,595.000,0.016483830989633467
396,596.000,0.019498792828925807
397,597.000,0.02078635272881617
398,598.000,0.02287408653707633
399,599.000,0.024975252961806402
400,600.000,0.02692774372610545
401,601.000,0.030163230575261178
402,602.000,0.030389435083910517
403,603.000,0.032435602888162295
404,604.000,0.03293212403347632
405,605.000,0.03429618600131953
406,606.000,0.03493938799830958
407,607.000,0.035567431729927046
408,608.000,0.03417499623718067
409,609.000,0.03556053402397874
410,610.000,0.04271069627246275
411,611.000,0.05016690950830933
412,612.000,0.05928451544384667
413,613.000,0.07194736413550487
414,614.000,0.08943986605044914
415,615.000,0.11322251302049323
416,616.000,0.13739208272954867
417,617.000,0.16070675659050238
418,618.000,0.17862956132378757
419,619.000,0.19405846492974985
420,620.000,0.20014056632755778
421,621.000,0.19260290183904363
422,622.000,0.17722089603033578
423,623.000,0.1568378663768296
424,624.000,0.13461477726014362
425,625.000,0.11316844157424186
426,626.000,0.09309781599939616
427,627.000,0.07601951429601843
428,628.000,0.06433419999616748
429,629.000,0.05736445965907745
430,630.000,0.04826755441007625
431,631.000,0.0414508425648262
432,632.000,0.03795233002068055
433,633.000,0.036146709062236285
434,634.000,0.03499648074206362
435,635.000,0.03127822944676011
436,636.000,0.02827397458586858
437,637.000,0.026047750114449972
438,638.000,0.023035898918533894
439,639.000,0.021763081974304186
440,640.000,0.018793398372213586
441,641.000,0.01674181190452341
442,642.000,0.017219571181140564
443,643.000,0.01783355342116115
444,644.000,0.017191604511055912
445,645.000,0.014913778166427702
446,646.000,0.014624274074639391
447,647.000,0.015177508153998346
448,648.000,0.014574238252826006
449,649.000,0.014588471354310253
450,650.000,0.01443352240680959
451,651.000,0.015644032369962386
452,652.000,0.01837598442493106
453,653.000,0.0186220847946548
454,654.000,0.018322375465226685
455,655.000,0.018920888222096255
456,656.000,0.019638584826159464
457,657.000,0.01880919125203487
458,658.000,0.01694155833012898
459,659.000,0.012872854383549797
460,660.000,0.0112902207420555
461,661.000,0.013316162629972565
462,662.000,0.014776200454094422
463,663.000,0.016846834523154334
464,664.000,0.018050452062399525
465,665.000,0.01791667099047933
466,666.000,0.018063934457658245
467,667.000,0.016998312444293177
468,668.000,0.015417998488259619
469,669.000,0.013190571015289325
470,670.000,0.011454587852797689
471,671.000,0.011599224228444992
472,672.000,0.011283221375847235
473,673.000,0.0132199755772376
474,674.000,0.015042953696986928
475,675.000,0.014565564130865917
476,676.000,0.01641290449864083
477,677.000,0.015675065730428414
478,678.000,0.016417195859523014
479,679.000,0.016261730633628953
480,680.000,0.013309922093944007
481,681.000,0.012357993468589304
482,682.000,0.012519694775722928
483,683.000,0.011724277339347533
484,684.000,0.012932742883092301
485,685.000,0.011654512547770262
486,686.000,0.009961236481512238
487,687.000,0.0085731544113755
488,688.000,0.010483015030953818
489,689.000,0.009456672626089088
490,690.000,0.009706884843936673
491,691.000,0.011157500870992957
492,692.000,0.011018041379912448
493,693.000,0.007840292266307615
494,694.000,0.009294031385028696
495,695.000,0.009980684559429659
496,696.000,0.010242700530471067
497,697.000,0.012751804948460984
498,698.000,0.014103308343727571
499,699.000,0.013661517401973676
500,700.000,0.015994774037247257
501,701.000,0.01271251370839029
502,702.000,0.010520303652046016
503,703.000,0.007767387797243717
504,704.000,0.007286363672813027
505,705.000,0.009050496576499695
506,706.000,0.010243963789389398
507,707.000,0.011946988773057386
508,708.000,0.01431128774253939
509,709.000,0.013998356534248723
510,710.000,0.014957164432148118
511,711.000,0.013270213691528476
512,712.000,0.014945032040242024
513,713.000,0.01526923834268777
514,714.000,0.015898552022573103
515,715.000,0.0169686818074029
516,716.000,0.01693815204565928
517,717.000,0.017664245842181178
518,718.000,0.01758770597436249
519,719.000,0.015526068135276884
520,720.000,0.014402600268561702
521,721.000,0.013459090604800904
522,722.000,0.01293553575278023
523,723.000,0.012008180570674933
524,724.000,0.01236572515102522
525,725.000,0.009947312692377268
526,726.000,0.010607617168719986
527,727.000,0.010183976072147594
528,728.000,0.010520794346512694
529,729.000,0.011886970411224931
530,730.000,0.010716906554919836
531,731.000,0.011585335910075848
532,732.000,0.010800494924410311
533,733.000,0.010873715475014908
534,734.000,0.012165568342660395
535,735.000,0.010486716439362966
536,736.000,0.01014273191138932
537,737.000,0.008436725558106706
538,738.000,0.008128171299729602
539,739.000,0.008503593399014298
540,740.000,0.0056046967727408515
541,741.000,0.005897894658308947
542,742.000,0.004722040178884719
543,743.000,0.0056922119536896975
544,744.000,0.006078781737146574
545,745.000,0.006123302228331519
546,746.000,0.006716149820821924
547,747.000,0.006317223322763642
548,748.000,0.007716224485502069
549,749.000,0.010382205524069668
550,750.000,0.012277197143721757
551,751.000,0.01725626289336903
552,752.000,0.01857994422793492
553,753.000,0.01921299357208512
554,754.000,0.019346068928225074
555,755.000,0.017954831941458985
556,756.000,0.015544877122519573
557,757.000,0.010564760419348623
558,758.000,0.007569345814204522
559,759.000,0.00828198415825664
560,760.000,0.010769489388632699
561,761.000,0.015426387325636249
562,762.000,0.015396445663609442
563,763.000,0.014303770233369711
564,764.000,0.014359045830509586
565,765.000,0.013459151236356147
566,766.000,0.011074226547133815
567,767.000,0.010682919441441105
568,768.000,0.01031998400999153
569,769.000,0.01203363418353368
570,770.000,0.013716169299116666
571,771.000,0.016682970834119886
572,772.000,0.01761874057919131
573,773.000,0.01827841922269916
574,774.000,0.019998964290284315
575,775.000,0.023563780682401562
576,776.000,0.0247417116501384
577,777.000,0.027562661095979955
578,778.000,0.027789639757300595
579,779.000,0.027670709163578316
580,780.000,0.027778522460150362
581,781.000,0.02992997340328967
582,782.000,0.03212566055522644
583,783.000,0.03488294923765755
584,784.000,0.037732950898650315
585,785.000,0.04342639390074399
586,786.000,0.04671440548354161
587,787.000,0.052084175472221335
588,788.000,0.06069010590892046
589,789.000,0.06989353372822678
590,790.000,0.0799343256049657
591,791.000,0.09298193854327572
592,792.000,0.10370378507951929
593,793.000,0.11504986822701378
594,794.000,0.12090868134681014
595,795.000,0.12347991375993929
596,796.000,0.11963108129355361
597,797.000,0.11475034823484369
598,798.000,0.10730275986237406
599,799.000,0.09735798528943512
600,800.000,0.08470708132050234
601,801.000,0.07557222985995526
602,802.000,0.06589863620163562
603,803.000,0.057724367674002235
604,804.000,0.048880646306117145
605,805.000,0.04236917316268295
606,806.000,0.03662908659395533
607,807.000,0.03199774269788991
608,808.000,0.02875261086202006
609,809.000,0.024940162022579735
610,810.000,0.022134451736744377
611,811.000,0.023307067798550882
612,812.000,0.02233501195462961
613,813.000,0.01903685078274619
614,814.000,0.018212980658606378
615,815.000,0.017522586370121492
616,816.000,0.016894391237271426
617,817.000,0.015533147461671785
618,818.000,0.01453083902915958
619,819.000,0.013550121298938638
620,820.000,0.014142889002245546
621,821.000,0.01434863862121924
622,822.000,0.012071749472570703
623,823.000,0.011898528009568492
624,824.000,0.012454497541370277
625,825.000,0.01198091150960385
626,826.000,0.0128972489000208
627,827.000,0.014158234590663659
628,828.000,0.012987375857543176
629,829.000,0.015093718091383148
630,830.000,0.013910040928540523
631,831.000,0.014134456963289934
632,832.000,0.013476033191419108
633,833.000,0.014963960788026425
634,834.000,0.01386821141345225
635,835.000,0.014053108940133055
636,836.000,0.014471071789520193
637,837.000,0.015296284216369936
638,838.000,0.01249328207582051
639,839.000,0.011573502350639371
640,840.000,0.010335337208454733
641,841.000,0.011595796305600732
642,842.000,0.011149809412012292
643,843.000,0.011921063319174537
644,844.000,0.012866924664378483
645,845.000,0.013992530695974502
646,846.000,0.013795025963211027
647,847.000,0.014529694801792668
648,848.000,0.01178430186901145
649,849.000,0.009566937679814655
650,850.000,0.007810379760632249
651,851.000,0.006178239674144303
652,852.000,0.00597199111223069
653,853.000,0.005974779832103043
654,854.000,0.006910062331441925
655,855.000,0.008900911314479525
656,856.000,0.011188219439291484
657,857.000,0.012075296855729662
658,858.000,0.012131217364733757
659,859.000,0.01305767186155362
660,860.000,0.013884655364580932
661,861.000,0.013959597663052777
662,862.000,0.015575631396690584
663,863.000,0.01397921654056333
664,864.000,0.01522916120156332
665,865.000,0.016694025616697108
666,866.000,0.016449923913472504
667,867.000,0.01511991319933297
668,868.000,0.015293787450978816
669,869.000,0.01581557311002748
670,870.000,0.01576188743339046
671,871.000,0.013278278017742466
672,872.000,0.01173621821659328
673,873.000,0.009377549129678897
674,874.000,0.00926555129861659
675,875.000,0.009533314884169041
676,876.000,0.009371187495468584
677,877.000,0.010720158550200745
678,878.000,0.0139955092778771
679,879.000,0.014983316273335979
680,880.000,0.015182167530635199
681,881.000,0.015049705419500004
682,882.000,0.01425928602127065
683,883.000,0.013913793634901195
684,884.000,0.014495997556256525
685,885.000,0.014230247099487286
686,886.000,0.01266092415354196
687,887.000,0.011162573682770493
688,888.000,0.010992980542698306
689,889.000,0.009182062709382228
690,890.000,0.00835438466659815
691,891.000,0.0074032603545022896
692,892.000,0.005950755868841791
693,893.000,0.005273342708094073
694,894.000,0.006681359420810031
695,895.000,0.007291053517351038
696,896.000,0.008575713293452381
697,897.000,0.007864259460353979
698,898.000,0.008194158875477399
699,899.000,0.008259075498940328
700,900.000,0.00983732240349474
701,901.000,0.011118329398349383
702,902.000,0.012835221053431859
703,903.000,0.0131829678196202
704,904.000,0.015483619610391337
705,905.000,0.018289512652535426
706,906.000,0.01944570425619425
707,907.000,0.01648481656809076
708,908.000,0.013601983293970289
709,909.000,0.012106728728682386
710,910.000,0.011025143138325155
711,911.000,0.010500471182352837
712,912.000,0.008919913581949768
713,913.000,0.008218938258662031
714,914.000,0.007958699130916297
715,915.000,0.00833623158702351
716,916.000,0.007233913351003403
717,917.000,0.00523714534873441
718,918.000,0.006540063767258473
719,919.000,0.0078107670643506495
720,920.000,0.008008987029622393
721,921.000,0.009688415563149385
722,922.000,0.011061385073484774
723,923.000,0.012145872367096357
724,924.000,0.011092786243378647
725,925.000,0.01034944728016008
726,926.000,0.009199722909064898
727,927.000,0.009527598956029325
728,928.000,0.012189128266626922
729,929.000,0.011462202161636622
730,930.000,0.010125082325024458
731,931.000,0.011007097578089934
732,932.000,0.010823179923945868
733,933.000,0.010406605409106692
734,934.000,0.012356009767643866
735,935.000,0.013701278986508674
736,936.000,0.014488275347587789
737,937.000,0.015717420099365113
738,938.000,0.015281203379519201
739,939.000,0.013813779969255488
740,940.000,0.01301704599214764
741,941.000,0.012670929371017539
742,942.000,0.010117828020411043
743,943.000,0.008097340905715022
744,944.000,0.008214109577532663
745,945.000,0.009963265974458433
746,946.000,0.010916586345431942
747,947.000,0.012320770481061819
748,948.000,0.013070084204794337
749,949.000,0.016310354042745986
750,950.000,0.019082110322874248
751,951.000,0.01956885507353033
752,952.000,0.02013402026432525
753,953.000,0.019995969812661007
754,954.000,0.020025384251009182
755,955.000,0.022032837308195666
756,956.000,0.0202492586371411
757,957.000,0.01967645040733155
758,958.000,0.019080565458201765
759,959.000,0.01872298357299682
760,960.000,0.01973515896474831
761,961.000,0.019273718464662814
762,962.000,0.021584777510026854
763,963.000,0.023124249314098583
764,964.000,0.021003195364828642
765,965.000,0.01995087686315759
766,966.000,0.018744716271942515
767,967.000,0.01809153058657718
768,968.000,0.01662220156667121
769,969.000,0.015566688327884945
770,970.000,0.01671129426264015
771,971.000,0.018277129223278597
772,972.000,0.0206607369672423
773,973.000,0.02568152442626414
774,974.000,0.028995567455633496
775,975.000,0.03417592784212181
776,976.000,0.039744660914771385
777,977.000,0.040376801790969766
778,978.000,0.03762316064801675
779,979.000,0.03448489272978744
780,980.000,0.03180926962255497
781,981.000,0.03066975174221631
782,982.000,0.03316084710521365
783,983.000,0.038882385735526964
784,984.000,0.04454192781634432
785,985.000,0.05200114634444221
786,986.000,0.06015704544615631
787,987.000,0.0672347051998245
788,988.000,0.07368449627058689
789,989.000,0.08191525611017832
790,990.000,0.0922350835067802
791,991.000,0.10705043130746576
792,992.000,0.12953032233982922
793,993.000,0.15348233221234192
794,994.000,0.18954858805623204
795,995.000,0.24780900946301745
796,996.000,0.3586314973514528
797,997.000,0.502386706317328
798,998.000,0.6795299418204498
799,999.000,0.8441411864636463
800,1000.000,0.9581497205893612
801,1001.000,1.0
802,1002.000,0.9595663139702504
803,1003.000,0.84585950436473
804,1004.000,0.6824012936243267
805,1005.000,0.506605628004576
806,1006.000,0.3653601224667699
807,1007.000,0.2557127232677225
808,1008.000,0.19913149804195732
809,1009.000,0.16435439701860927
810,1010.000,0.14154203553276332
811,1011.000,0.121956824147442
812,1012.000,0.10651542182961765
813,1013.000,0.09564908257996824
814,1014.000,0.08766373086586786
815,1015.000,0.08225836071530215
816,1016.000,0.07802214193574011
817,1017.000,0.0763278371829452
818,1018.000,0.07824589552717724
819,1019.000,0.08078785140958117
820,1020.000,0.08577985758139148
821,1021.000,0.08897575146642413
822,1022.000,0.09513867460027446
823,1023.000,0.10427148490014022
824,1024.000,0.12478926292629544
825,1025.000,0.15309529208692083
826,1026.000,0.2003692459274592
827,1027.000,0.2611595593708986
828,1028.000,0.33177580812823904
829,1029.000,0.39617739937944774
830,1030.000,0.44238318198686427
831,1031.000,0.45837513207713154
832,1032.000,0.4409700332320992
833,1033.000,0.39358936105579245
834,1034.000,0.33141667724991186
835,1035.000,0.2593395736963026
836,1036.000,0.19729264293653354
837,1037.000,0.14619953217265763
838,1038.000,0.11432274602984162
839,1039.000,0.09527941499957841
840,1040.000,0.08012530769722048
841,1041.000,0.06978162084257132
842,1042.000,0.060155829349218114
843,1043.000,0.051964149857469416
844,1044.000,0.048861749737070324
845,1045.000,0.044020679931304145
846,1046.000,0.03987006173059492
847,1047.000,0.03664910084598128
848,1048.000,0.03447483492726378
849,1049.000,0.03287489022013149
850,1050.000,0.02859119643361318
851,1051.000,0.027499334639816134
852,1052.000,0.026372063355653792
853,1053.000,0.026522529367494763
854,1054.000,0.027727072586053076
855,1055.000,0.02778793310794304
856,1056.000,0.028887857736304465
857,1057.000,0.02948129749304106
858,1058.000,0.02830526068417561
859,1059.000,0.027243005828176233
860,1060.000,0.023941334842359364
861,1061.000,0.02179152221821641
862,1062.000,0.020037782957940804
863,1063.000,0.020486446547772628
864,1064.000,0.020175919718012348
865,1065.000,0.01907355563238077
866,1066.000,0.018931306441451683
867,1067.000,0.01932411810985998
868,1068.000,0.01862079610897171
869,1069.000,0.020032076347631964
870,1070.000,0.020355984461650586
871,1071.000,0.020195068343404166
872,1072.000,0.02148078544807948
873,1073.000,0.021667521986869435
874,1074.000,0.02109681606105541
875,1075.000,0.018958493161818434
876,1076.000,0.016989636088861435
877,1077.000,0.016852003276469005
878,1078.000,0.015941722724259075
879,1079.000,0.015000486884732595
880,1080.000,0.016977624516008528
881,1081.000,0.015284992042605939
882,1082.000,0.015201813702104479
883,1083.000,0.013041157759836462
884,1084.000,0.01233599632455425
885,1085.000,0.012171931846038922
886,1086.000,0.011376661429078946
887,1087.000,0.01040448049001715
888,1088.000,0.00932770059348559
889,1089.000,0.007262931220229504
890,1090.000,0.005222111369696304
891,1091.000,0.002838836798101439
892,1092.000,0.004460517471359485
893,1093.000,0.006218898261678526
894,1094.000,0.009683155419463421
895,1095.000,0.01503176282372685
896,1096.000,0.016501437707705603
897,1097.000,0.01725595420009059
898,1098.000,0.017480845539686766
899,1099.000,0.01631030084830976
900,1100.000,0.015668045077674293
901,1101.000,0.017692097416181277
902,1102.000,0.018299610502340632
903,1103.000,0.018922738387804727
904,1104.000,0.020904062602386548
905,1105.000,0.018844813044605172
906,1106.000,0.016300852690507545
907,1107.000,0.013999378081549987
908,1108.000,0.013292109744976128
909,1109.000,0.015147012770088605
910,1110.000,0.01825842821383728
911,1111.000,0.019388831843500147
912,1112.000,0.019447624533754215
913,1113.000,0.01897106889465463
914,1114.000,0.019141534369271865
915,1115.000,0.018628644141926116
916,1116.000,0.019895684131524767
917,1117.000,0.019911705322348386
918,1118.000,0.02078827464820855
919,1119.000,0.021729193177676864
920,1120.000,0.021737879870374607
921,1121.000,0.020610507189659795
922,1122.000,0.019288372207353858
923,1123.000,0.017435335136306067
924,1124.000,0.01802146110997457
925,1125.000,0.021715047948534093
926,1126.000,0.022363806964637956
927,1127.000,0.022075173966775125
928,1128.000,0.01990527538289761
929,1129.000,0.017257679873433716
930,1130.000,0.015535654482814179
931,1131.000,0.015671611126224373
932,1132.000,0.017153958959178737
933,1133.000,0.020313617495798904
934,1134.000,0.024983896320564674
935,1135.000,0.030822613762611858
936,1136.000,0.030712125413171303
937,1137.000,0.03212564191896449
938,1138.000,0.02959903072989117
939,1139.000,0.02716445088339577
940,1140.000,0.027853567878211687
941,1141.000,0.03038647329546017
942,1142.000,0.0335554733870456
943,1143.000,0.03885351799873266
944,1144.000,0.04187724231873091
945,1145.000,0.04380541356811098
946,1146.000,0.048017119944323
947,1147.000,0.056279011047827704
948,1148.000,0.06527533382539928
949,1149.000,0.07908128678672381
950,1150.000,0.09825516808587616
951,1151.000,0.11850358979482781
952,1152.000,0.13775041365656657
953,1153.000,0.15590061230462943
954,1154.000,0.166097246319357
955,1155.000,0.16916629973128286
956,1156.000,0.16863479583406624
957,1157.000,0.1568753423136096
958,1158.000,0.1404357890702493
959,1159.000,0.12137804992791366
960,1160.000,0.10269640730330147
961,1161.000,0.08524327857936358
962,1162.000,0.07103039289824115
963,1163.000,0.06236948822571093
964,1164.000,0.058538378488470814
965,1165.000,0.05432002124610899
966,1166.000,0.05266560565139462
967,1167.000,0.05002386973113249
968,1168.000,0.047480836394421896
969,1169.000,0.04794221125710955
970,1170.000,0.047568399901785345
971,1171.000,0.04555170258378307
972,1172.000,0.047092708613412325
973,1173.000,0.04829745473050151
974,1174.000,0.052529484077534806
975,1175.000,0.05757446307417973
976,1176.000,0.0651084854034271
977,1177.000,0.07655402987135099
978,1178.000,0.08952945850016526
979,1179.000,0.1049907279236998
980,1180.000,0.11748374995646793
981,1181.000,0.1285057537060264
982,1182.000,0.13721103142902136
983,1183.000,0.13815010990286106
984,1184.000,0.13489283085488216
985,1185.000,0.1282499106477741
986,1186.000,0.11591630081154403
987,1187.000,0.10325555479856421
988,1188.000,0.08700769755231295
989,1189.000,0.07086521377068636
990,1190.000,0.05905845951350997
991,1191.000,0.05011694532774338
992,1192.000,0.04352418566759978
993,1193.000,0.03747891705390237
994,1194.000,0.0332376910093072
995,1195.000,0.03017694979413839
996,1196.000,0.027303690720234846
997,1197.000,0.024345279182418557
998,1198.000,0.02173939278189373
999,1199.000,0.02016688533810156
1000,1200.000,0.021961619298736124
1001,1201.000,0.019744303855833235
1002,1202.000,0.020918840085247938
1003,1203.000,0.019797551923122915
1004,1204.000,0.019376394135146406
1005,1205.000,0.018241177370339604
1006,1206.000,0.017974190372682206
1007,1207.000,0.01846171377471842
1008,1208.000,0.020350861877012703
1009,1209.000,0.021028059397537983
1010,1210.000,0.021743693484670205
1011,1211.000,0.01919253258898365
1012,1212.000,0.018727728976828287
1013,1213.000,0.01665115775605368
1014,1214.000,0.015179413751178985
1015,1215.000,0.012919743161556847
1016,1216.000,0.011154904918179998
1017,1217.000,0.012126176841046513
1018,1218.000,0.012261406149266013
1019,1219.000,0.011807197868179355
1020,1220.000,0.014601570194594325
1021,1221.000,0.013215179573680217
1022,1222.000,0.014174100025502574
1023,1223.000,0.014147618170548165
1024,1224.000,0.014847630015262596
1025,1225.000,0.013496581548402076
1026,1226.000,0.013317887038560607
1027,1227.000,0.01468710420917184
1028,1228.000,0.013209567965735329
1029,1229.000,0.013811347259709878
1030,1230.000,0.016906997216885544
1031,1231.000,0.015259931650628621
1032,1232.000,0.016423348180712508
1033,1233.000,0.016021051798583014
1034,1234.000,0.015800772860193633
1035,1235.000,0.012731756030993064
1036,1236.000,0.011544115203720982
1037,1237.000,0.01026905483617973
1038,1238.000,0.00951608502671119
1039,1239.000,0.011475331965498292
1040,1240.000,0.013133566127480597
1041,1241.000,0.01269605576918678
1042,1242.000,0.014135128204136291
1043,1243.000,0.015284847705909523
1044,1244.000,0.014130516854719237
1045,1245.000,0.014540642066873137
1046,1246.000,0.015764690251586187
1047,1247.000,0.013859505054740413
1048,1248.000,0.01322171029867812
1049,1249.000,0.012518688357679905
1050,1250.000,0.01152417592819932
1051,1251.000,0.010258061670526909
1052,1252.000,0.011239720560661484
1053,1253.000,0.012608833106485313
1054,1254.000,0.01270837240129822
1055,1255.000,0.014554103388457237
1056,1256.000,0.01523445777583157
1057,1257.000,0.013684254076544207
1058,1258.000,0.01351702714089833
1059,1259.000,0.013643558592686641
1060,1260.000,0.013243208819670046
1061,1261.000,0.012858934020934394
1062,1262.000,0.011725763280332048
1063,1263.000,0.011351659054087268
1064,1264.000,0.010706469599456356
1065,1265.000,0.010339011565706548
1066,1266.000,0.012342280568009487
1067,1267.000,0.01184677191623897
1068,1268.000,0.012826506576167372
1069,1269.000,0.012099160043560838
1070,1270.000,0.013106124493043103
1071,1271.000,0.012553737040423662
1072,1272.000,0.010717320953841864
1073,1273.000,0.011255445924839673
1074,1274.000,0.010434240362079518
1075,1275.000,0.011333220894514646
1076,1276.000,0.013690913266868488
1077,1277.000,0.011472505817503198
1078,1278.000,0.013610839142899643
1079,1279.000,0.012534060548931797
1080,1280.000,0.014888852604428857
1081,1281.000,0.015584884941653486
1082,1282.000,0.015401973453053318
1083,1283.000,0.015217569845349829
1084,1284.000,0.013329467477619492
1085,1285.000,0.014165156281444524
1086,1286.000,0.0141754279178104
1087,1287.000,0.012902709928898184
1088,1288.000,0.015480754379999151
1089,1289.000,0.015402006097072641
1090,1290.000,0.014735491895706308
1091,1291.000,0.015332549588770042
1092,1292.000,0.015101366734547093
1093,1293.000,0.013632964332362904
1094,1294.000,0.013775923356375851
1095,1295.000,0.01222808459943975
1096,1296.000,0.013674009814056283
1097,1297.000,0.013784161580024561
1098,1298.000,0.014736552682326428
1099,1299.000,0.013002681462148245
1100,1300.000,0.011371887485377447
1101,1301.000,0.011502505880695152
1102,1302.000,0.010106343909587843
1103,1303.000,0.008154610850691992
1104,1304.000,0.006863193793998755
1105,1305.000,0.006807053355019529
1106,1306.000,0.010816819909776986
1107,1307.000,0.011863444189446428
1108,1308.000,0.012408821807059751
1109,1309.000,0.014469421385750064
1110,1310.000,0.01736933985439641
1111,1311.000,0.01897975729649877
1112,1312.000,0.018089948392998594
1113,1313.000,0.018173264007636348
1114,1314.000,0.016584781916770135
1115,1315.000,0.016989458674124866
1116,1316.000,0.016617463323388683
1117,1317.000,0.015122012109264867
1118,1318.000,0.013888731002569144
1119,1319.000,0.013256566792256626
1120,1320.000,0.012778945124376504
1121,1321.000,0.011166353481584703
1122,1322.000,0.00844589706294455
1123,1323.000,0.009267026647214776
1124,1324.000,0.008090886094806444
1125,1325.000,0.010308714208470744
1126,1326.000,0.011343969174330448
1127,1327.000,0.011831265067350423
1128,1328.000,0.013340388330995278
1129,1329.000,0.013423049728833169
1130,1330.000,0.014682372317066102
1131,1331.000,0.013002037736699022
1132,1332.000,0.010404190186809385
1133,1333.000,0.011008337387019639
1134,1334.000,0.010917689704641464
1135,1335.000,0.011852994273956873
1136,1336.000,0.012145320049675298
1137,1337.000,0.011782349835056619
1138,1338.000,0.012719893622560293
1139,1339.000,0.013780346852846365
1140,1340.000,0.014371218195421658
1141,1341.000,0.013491271919564727
1142,1342.000,0.013724520514992214
1143,1343.000,0.01637790429902191
1144,1344.000,0.01839284611198063
1145,1345.000,0.017695044395784437
1146,1346.000,0.01846147410241919
1147,1347.000,0.015184159574935411
1148,1348.000,0.013244601751279617
1149,1349.000,0.009238818949786523
1150,1350.000,0.005812066505096463
1151,1351.000,0.005248569760364059
1152,1352.000,0.007311018775429596
1153,1353.000,0.010530714857250318
1154,1354.000,0.016499480868962406
1155,1355.000,0.019388119270598667
1156,1356.000,0.02096795155467678
1157,1357.000,0.0181253654286403
1158,1358.000,0.015494873561053083
1159,1359.000,0.009734109116316938
1160,1360.000,0.005068612090197448
1161,1361.000,0.0020189852240005603
1162,1362.000,0.0
1163,1363.000,0.001485809930717245
1164,1364.000,0.00551717341750205
1165,1365.000,0.006906636827720914
1166,1366.000,0.0072457520232007185
1167,1367.000,0.006142236860142848
1168,1368.000,0.004564019814040892
1169,1369.000,0.004582079294781675
1170,1370.000,0.005966920086492159
1171,1371.000,0.007625051256940402
1172,1372.000,0.008682031594337176
1173,1373.000,0.011005448157153215
1174,1374.000,0.013468869416031573
1175,1375.000,0.013687776349822737
1176,1376.000,0.01342467674102111
1177,1377.000,0.009910412024036919
1178,1378.000,0.007481865223204078
1179,1379.000,0.008661294818851027
1180,1380.000,0.011784276808584352
1181,1381.000,0.012194677521391657
1182,1382.000,0.014742021840563328
1183,1383.000,0.01629121412248952
1184,1384.000,0.019268400027054943
1185,1385.000,0.020464145079396243
1186,1386.000,0.02140575549047094
1187,1387.000,0.018426282177449245
1188,1388.000,0.016253993570309516
1189,1389.000,0.01630197791860651
1190,1390.000,0.014354510590190828
1191,1391.000,0.008988033456582188
1192,1392.000,0.008910758011498852
1193,1393.000,0.0058667145587011915
1194,1394.000,0.007880008417397846
1195,1395.000,0.009313540854910003
1196,1396.000,0.01222759358857877
1197,1397.000,0.01354796393906631
1198,1398.000,0.016224665258250212
1199,1399.000,0.019031329789586483
1200,1400.000,0.01948048488471119
1201,1401.000,0.017376074855725752
1202,1402.000,0.018866741673713886
1203,1403.000,0.01662540158088568
1204,1404.000,0.017667432407041647
1205,1405.000,0.015898714162416182
1206,1406.000,0.014947590517922377
1207,1407.000,0.014085312455934895
1208,1408.000,0.015692337607165447
1209,1409.000,0.016578488223133486
1210,1410.000,0.015741673856560178
1211,1411.000,0.01569027230546064
1212,1412.000,0.018024292258472446
1213,1413.000,0.017895890401395876
1214,1414.000,0.018661057177271526
1215,1415.000,0.01766529760724305
1216,1416.000,0.01986339588880897
1217,1417.000,0.02112964633004543
1218,1418.000,0.021432244372739814
1219,1419.000,0.022599615776321896
1220,1420.000,0.02337348775128916
1221,1421.000,0.026147082785358024
1222,1422.000,0.027114986131042296
1223,1423.000,0.027553761321336877
1224,1424.000,0.029625809291438064
1225,1425.000,0.030537375149657917
1226,1426.000,0.032752855475432205
1227,1427.000,0.03172272230139858
1228,1428.000,0.03007140721813679
1229,1429.000,0.03257974259332482
1230,1430.000,0.03693855976630374
1231,1431.000,0.0415403076652344
1232,1432.000,0.042801573908769895
1233,1433.000,0.04725458962742346
1234,1434.000,0.05230602954923633
1235,1435.000,0.05665349477662064
1236,1436.000,0.06204890295456216
1237,1437.000,0.069446976158469
1238,1438.000,0.0772394649706343
1239,1439.000,0.08792100562902412
1240,1440.000,0.1011612038110581
1241,1441.000,0.115115729580135
1242,1442.000,0.12783110215884483
1243,1443.000,0.1447862369059435
1244,1444.000,0.16218944841591704
1245,1445.000,0.18349347921209067
1246,1446.000,0.2057724679929218
1247,1447.000,0.22898756872784898
1248,1448.000,0.24548342802187573
1249,1449.000,0.25848523926801753
1250,1450.000,0.2661278706195008
1251,1451.000,0.26455170540201456
1252,1452.000,0.24886364206282088
1253,1453.000,0.2284853552529184
1254,1454.000,0.20695134316101071
1255,1455.000,0.18277975054563655
1256,1456.000,0.1596790246809031
1257,1457.000,0.1385196711693485
1258,1458.000,0.11888409743095094
1259,1459.000,0.10569136466181733
1260,1460.000,0.0964497821463388
1261,1461.000,0.08747506943553073
1262,1462.000,0.07451759790749636
1263,1463.000,0.06664606879525273
1264,1464.000,0.06176040700204712
1265,1465.000,0.05519185764775883
1266,1466.000,0.047865288811314265
1267,1467.000,0.04378058782760811
1268,1468.000,0.03865469669598398
1269,1469.000,0.035015486697724287
1270,1470.000,0.03393378741102908
1271,1471.000,0.033331768819452795
1272,1472.000,0.032438109660828995
1273,1473.000,0.03232957330479888
1274,1474.000,0.03348567031524998
1275,1475.000,0.030578140424366542
1276,1476.000,0.028555411322440417
1277,1477.000,0.03000751534765871
1278,1478.000,0.02597727806459162
1279,1479.000,0.025345392676834007
1280,1480.000,0.02374541660449971
1281,1481.000,0.022751167365295824
1282,1482.000,0.023884316423071372
1283,1483.000,0.025193361374077683
1284,1484.000,0.026097653388186832
1285,1485.000,0.02266268555197196
1286,1486.000,0.022771631231480894
1287,1487.000,0.023238454213470327
1288,1488.000,0.019742008589874994
1289,1489.000,0.019978390597256573
1290,1490.000,0.016682817198651202
1291,1491.000,0.015025456721447178
1292,1492.000,0.015181672544029832
1293,1493.000,0.015318203532438473
1294,1494.000,0.014513597426054877
1295,1495.000,0.013012725204211768
1296,1496.000,0.014687583658040413
1297,1497.000,0.016714218913841103
1298,1498.000,0.018387672646959917
1299,1499.000,0.020174334280689307
1300,1500.000,0.02013150020299167
1301,1501.000,0.01822872957052677
1302,1502.000,0.015056733319307944
1303,1503.000,0.012685066810956483
1304,1504.000,0.009824686108964928
1305,1505.000,0.007153735455011142
1306,1506.000,0.005727894745228049
1307,1507.000,0.005360147885014003
1308,1508.000,0.0067518100189224465
1309,1509.000,0.007606788550629558
1310,1510.000,0.009687368724909391
1311,1511.000,0.010346227487080636
1312,1512.000,0.00972260346285697
1313,1513.000,0.009589980488068766
1314,1514.000,0.011186794874548104
1315,1515.000,0.01054642028408214
1316,1516.000,0.009601119847463108
1317,1517.000,0.010857285736081206
1318,1518.000,0.0112057697588797
1319,1519.000,0.011850190817485645
1320,1520.000,0.013869297462000094
1321,1521.000,0.015477413444769147
1322,1522.000,0.016891737432413834
1323,1523.000,0.017597173786491005
1324,1524.000,0.020809889847060576
1325,1525.000,0.02191114000864178
1326,1526.000,0.023145477623321187
1327,1527.000,0.022661678205032707
1328,1528.000,0.020808846672217
1329,1529.000,0.01934419687385512
1330,1530.000,0.019907620232940723
1331,1531.000,0.017785072708926507
1332,1532.000,0.019498508663879123
1333,1533.000,0.017696861383252667
1334,1534.000,0.01579822459908071
1335,1535.000,0.015266622103561195
1336,1536.000,0.014791679045613838
1337,1537.000,0.013426908953241865
1338,1538.000,0.013906386181452499
1339,1539.000,0.016078777037450784
1340,1540.000,0.019202840855703583
1341,1541.000,0.020153841122985384
1342,1542.000,0.021755666886651925
1343,1543.000,0.02057157050042549
1344,1544.000,0.019589067467745924
1345,1545.000,0.020193127262213305
1346,1546.000,0.02176953958860563
1347,1547.000,0.023237348881726107
1348,1548.000,0.02391037812179531
1349,1549.000,0.02427815570267496
1350,1550.000,0.024689306060463313
1351,1551.000,0.023889350237260038
1352,1552.000,0.021691276729752556
1353,1553.000,0.018970190268041247
1354,1554.000,0.019606559552917575
1355,1555.000,0.020568092824604433
1356,1556.000,0.024018937861146752
1357,1557.000,0.026185265376192046
1358,1558.000,0.02679684484496364
1359,1559.000,0.027843965289628937
1360,1560.000,0.02869513753625741
1361,1561.000,0.03000236301622428
1362,1562.000,0.031180444075043477
1363,1563.000,0.031878732463883924
1364,1564.000,0.03480870746290709
1365,1565.000,0.03729766323017139
1366,1566.000,0.03834921237150583
1367,1567.000,0.040523873646500654
1368,1568.000,0.04195064541288644
1369,1569.000,0.043930806231221524
1370,1570.000,0.046782388581090364
1371,1571.000,0.05222889123283088
1372,1572.000,0.06051637642614335
1373,1573.000,0.0700804843434788
1374,1574.000,0.08002454530505293
1375,1575.000,0.09309082622741806
1376,1576.000,0.10721703712804105
1377,1577.000,0.1276395806022377
1378,1578.000,0.1518691852533101
1379,1579.000,0.18053572222421468
1380,1580.000,0.20919649308257035
1381,1581.000,0.23395453466596017
1382,1582.000,0.2530603414815348
1383,1583.000,0.2600581701824619
1384,1584.000,0.2555572313878855
1385,1585.000,0.2412512503031207
1386,1586.000,0.22011775937135147
1387,1587.000,0.19912967737716833
1388,1588.000,0.18087291037390263
1389,1589.000,0.1668336714199632
1390,1590.000,0.1577292150133228
1391,1591.000,0.1579016670315035
1392,1592.000,0.16288358756007018
1393,1593.000,0.17360468983230948
1394,1594.000,0.19082382600614403
1395,1595.000,0.22006996761331635
1396,1596.000,0.2664052267525607
1397,1597.000,0.3381342278653676
1398,1598.000,0.42132664007341425
1399,1599.000,0.5171009479860927
1400,1600.000,0.602941427729954
1401,1601.000,0.6650667373042726
1402,1602.000,0.6886309684306394
1403,1603.000,0.6727501413335749
1404,1604.000,0.6130878205316357
1405,1605.000,0.5264484703728793
1406,1606.000,0.43041348623050724
1407,1607.000,0.34168939495199385
1408,1608.000,0.26119143237472375
1409,1609.000,0.20585496724775929
1410,1610.000,0.16013717420268256
1411,1611.000,0.12939357250695796
1412,1612.000,0.10883271690970046
1413,1613.000,0.09466637472509247
1414,1614.000,0.08004623288453207
1415,1615.000,0.06996110534063134
1416,1616.000,0.06411318453093631
1417,1617.000,0.05814106455565467
1418,1618.000,0.052282580121440124
1419,1619.000,0.04896242106397017
1420,1620.000,0.04453292948951203
1421,1621.000,0.043374353291510855
1422,1622.000,0.04037974413089639
1423,1623.000,0.037775583046599816
1424,1624.000,0.035000175117067135
1425,1625.000,0.033658485342517176
1426,1626.000,0.03406878018743698
1427,1627.000,0.03173593087432236
1428,1628.000,0.0312900380384723
1429,1629.000,0.027998767343436978
1430,1630.000,0.026356473546785445
1431,1631.000,0.025792955108478816
1432,1632.000,0.023140240459751223
1433,1633.000,0.020772140680221655
1434,1634.000,0.0197988128031901
1435,1635.000,0.01768262547659904
1436,1636.000,0.016534036449814663
1437,1637.000,0.016447297161095
1438,1638.000,0.017290590176479194
1439,1639.000,0.016896463236673615
1440,1640.000,0.01896167451670015
1441,1641.000,0.020692804795225995
1442,1642.000,0.020261035237910976
1443,1643.000,0.0172882805483283
1444,1644.000,0.017025423189328343
1445,1645.000,0.014999950864754533
1446,1646.000,0.013641826069044663
1447,1647.000,0.016061248259166935
1448,1648.000,0.0175502233880127
1449,1649.000,0.018734320260687293
1450,1650.000,0.020267019252334283
1451,1651.000,0.019768476449183933
1452,1652.000,0.01838918921261102
1453,1653.000,0.014851730078886325
1454,1654.000,0.015229998673189315
1455,1655.000,0.014639998380158914
1456,1656.000,0.013794021152302154
1457,1657.000,0.014128911086365223
1458,1658.000,0.015407429726922084
1459,1659.000,0.015911833631398063
1460,1660.000,0.015348715262020439
1461,1661.000,0.015743986546524525
1462,1662.000,0.015173772901999838
1463,1663.000,0.013001407593927882
1464,1664.000,0.01289706423153152
1465,1665.000,0.0110827146595595
1466,1666.000,0.01092072543707927
1467,1667.000,0.010405914407677224
1468,1668.000,0.011869323195999983
1469,1669.000,0.012183567565326197
1470,1670.000,0.012729458657173266
1471,1671.000,0.016643427929702984
1472,1672.000,0.01698836356960428
1473,1673.000,0.01661106308708065
1474,1674.000,0.0155271059580631
1475,1675.000,0.012339819068752554
1476,1676.000,0.010267622190477017
1477,1677.000,0.006547227093315737
1478,1678.000,0.004731850794843778
1479,1679.000,0.003929684064871239
1480,1680.000,0.006027315732703475
1481,1681.000,0.00909496438047623
1482,1682.000,0.009954628941743487
1483,1683.000,0.010973971160008977
1484,1684.000,0.01261941211367818
1485,1685.000,0.013810243439847485
1486,1686.000,0.01334737959614979
1487,1687.000,0.014176628000557375
1488,1688.000,0.013463506622762392
1489,1689.000,0.014471915753782514
1490,1690.000,0.015662335199240464
1491,1691.000,0.0160160029729037
1492,1692.000,0.013957686894072126
1493,1693.000,0.010422446859799001
1494,1694.000,0.008664094933906734
1495,1695.000,0.009155021364585975
1496,1696.000,0.011779521513527208
1497,1697.000,0.013914324635596838
1498,1698.000,0.013876132715983083
1499,1699.000,0.014672121250538437
1500,1700.000,0.015313842655270277
1501,1701.000,0.014686683479434392
1502,1702.000,0.013067733608695566
1503,1703.000,0.00992217402847049
1504,1704.000,0.008348269009333054
1505,1705.000,0.009858773887524236
1506,1706.000,0.01073073954882643
1507,1707.000,0.010171324698682876
1508,1708.000,0.009448735999306223
1509,1709.000,0.007854395843299921
1510,1710.000,0.007683807076067723
1511,1711.000,0.007202529083194818
1512,1712.000,0.00890725696925705
1513,1713.000,0.011940512177340065
1514,1714.000,0.015436957050787488
1515,1715.000,0.018568745333560177
1516,1716.000,0.019587760720346
1517,1717.000,0.01848539170694449
1518,1718.000,0.014974791494267664
1519,1719.000,0.012679945480168195
1520,1720.000,0.009494011102428614
1521,1721.000,0.008892640970370971
1522,1722.000,0.00864317937062885
1523,1723.000,0.008691533926230174
1524,1724.000,0.009782718659357174
1525,1725.000,0.010739864209512498
1526,1726.000,0.009876057049236444
1527,1727.000,0.007827163653258366
1528,1728.000,0.007892649241245282
1529,1729.000,0.009184394723113236
1530,1730.000,0.008935542940570522
1531,1731.000,0.011837311835555009
1532,1732.000,0.014637322600076288
1533,1733.000,0.01588861504805347
1534,1734.000,0.016267037175254226
1535,1735.000,0.01624486030704355
1536,1736.000,0.014180589683540254
1537,1737.000,0.013678487096925195
1538,1738.000,0.013728591542179352
1539,1739.000,0.013059313203529314
1540,1740.000,0.011104470579202894
1541,1741.000,0.010812373132353243
1542,1742.000,0.011053457129321471
1543,1743.000,0.0108844727828533
1544,1744.000,0.009792526786049159
1545,1745.000,0.01084162132440783
1546,1746.000,0.010921361103899532
1547,1747.000,0.011452010765622769
1548,1748.000,0.012968178294576683
1549,1749.000,0.012412686085603673
1550,1750.000,0.009942981010472886
1551,1751.000,0.008215617774555086
1552,1752.000,0.008721955840396072
1553,1753.000,0.011116328503410712
1554,1754.000,0.013080127156927135
1555,1755.000,0.014568097597936721
1556,1756.000,0.015467744804953115
1557,1757.000,0.017350357624499445
1558,1758.000,0.018336960676413945
1559,1759.000,0.014227534228773757
1560,1760.000,0.01110846991409706
1561,1761.000,0.007890550445604038
1562,1762.000,0.009672200900508979
1563,1763.000,0.009345589871651834
1564,1764.000,0.009302998521691691
1565,1765.000,0.0070517173607628145
1566,1766.000,0.008785068934749379
1567,1767.000,0.011406566719264767
1568,1768.000,0.011712350567531548
1569,1769.000,0.010612997873096986
1570,1770.000,0.009603607700662023
1571,1771.000,0.010061061504522273
1572,1772.000,0.012871079888589312
1573,1773.000,0.014423991591097864
1574,1774.000,0.015132279916485062
1575,1775.000,0.014055267887105259
1576,1776.000,0.016851282378195408
1577,1777.000,0.018189769870834288
1578,1778.000,0.019740000597551603
1579,1779.000,0.020560510395294357
1580,1780.000,0.01835851874168028
1581,1781.000,0.018093857554265104
1582,1782.000,0.018734587251164392
1583,1783.000,0.01812656413193385
1584,1784.000,0.016018721842535145
1585,1785.000,0.013253455152796098
1586,1786.000,0.014821143983765196
1587,1787.000,0.016086936448129807
1588,1788.000,0.0190314244831046
1589,1789.000,0.01771557011468566
1590,1790.000,0.016036761782551975
1591,1791.000,0.013995831505125553
1592,1792.000,0.013534382227793752
1593,1793.000,0.013104011182938385
1594,1794.000,0.012216107251650623
1595,1795.000,0.010535012824049486
1596,1796.000,0.01142040488065465
1597,1797.000,0.01289279601161287
1598,1798.000,0.01386929830153849
1599,1799.000,0.01371809734666254
1600,1800.000,0.015014310079126004
1601,1801.000,0.01573063180431118
1602,1802.000,0.01709810625988876
1603,1803.000,0.017558904636370328
1604,1804.000,0.017153224795861392
1605,1805.000,0.014647105051668557
1606,1806.000,0.012720900135263996
1607,1807.000,0.012816930194042035
1608,1808.000,0.012873246956478632
1609,1809.000,0.013694579280980524
1610,1810.000,0.01370458786902255
1611,1811.000,0.014606863988220236
1612,1812.000,0.013785600805132463
1613,1813.000,0.01226166684998916
1614,1814.000,0.013161749238746096
1615,1815.000,0.011192737458265165
1616,1816.000,0.01110665008435778
1617,1817.000,0.011402127553472408
1618,1818.000,0.011564816747077824
1619,1819.000,0.010442164442014136
1620,1820.000,0.011522535038088122
1621,1821.000,0.01089627112502134
1622,1822.000,0.010196359661491917
1623,1823.000,0.010271103020750152
1624,1824.000,0.012713899839877297
1625,1825.000,0.013006216207244303
1626,1826.000,0.013794404506593534
1627,1827.000,0.013997909747503078
1628,1828.000,0.01603450631507359
1629,1829.000,0.01725170522257973
1630,1830.000,0.01896848019449579
1631,1831.000,0.01711926534454866
1632,1832.000,0.017580852826222942
1633,1833.000,0.015916887223835392
1634,1834.000,0.01551146252090864
1635,1835.000,0.013412391071402775
1636,1836.000,0.01217816801935505
1637,1837.000,0.01142589211225059
1638,1838.000,0.013629246974435141
1639,1839.000,0.012647211619171707
1640,1840.000,0.01207558332885479
1641,1841.000,0.010639060050228803
1642,1842.000,0.011840981689289607
1643,1843.000,0.011538236286423153
1644,1844.000,0.012488656402458637
1645,1845.000,0.013538959577920298
1646,1846.000,0.013946747717364262
1647,1847.000,0.014139320876598908
1648,1848.000,0.014729028964252981
1649,1849.000,0.012208913999344363
1650,1850.000,0.01338877595130929
1651,1851.000,0.011133447740370927
1652,1852.000,0.010863813667672303
1653,1853.000,0.0107294694924249
1654,1854.000,0.011507367897059114
1655,1855.000,0.011406418706198396
1656,1856.000,0.01076910690196956
1657,1857.000,0.011880248519860722
1658,1858.000,0.013589135792209077
1659,1859.000,0.01573790948896579
1660,1860.000,0.020241453904358775
1661,1861.000,0.02253155188566859
1662,1862.000,0.025544927250550714
1663,1863.000,0.026661653199456452
1664,1864.000,0.024758858334775716
1665,1865.000,0.020726125854006336
1666,1866.000,0.018677250994392776
1667,1867.000,0.01668881680506965
1668,1868.000,0.015971643204839268
1669,1869.000,0.01484560760173252
1670,1870.000,0.014175729124041785
1671,1871.000,0.015500818503103472
1672,1872.000,0.01623150931840467
1673,1873.000,0.015558632408670208
1674,1874.000,0.01221141628201196
1675,1875.000,0.012605127732164956
1676,1876.000,0.013571880879160267
1677,1877.000,0.013583722119575847
1678,1878.000,0.013951770375345179
1679,1879.000,0.01277113603488756
1680,1880.000,0.01351240824031216
1681,1881.000,0.015485541302100952
1682,1882.000,0.01507861695754812
1683,1883.000,0.014361905214112023
1684,1884.000,0.012064473136299346
1685,1885.000,0.012023422138937062
1686,1886.000,0.009883441896860546
1687,1887.000,0.010364512440693655
1688,1888.000,0.00908731258542178
1689,1889.000,0.010107653315628136
1690,1890.000,0.011912061539419266
1691,1891.000,0.01438103133617874
1692,1892.000,0.0156745770234538
1693,1893.000,0.018246166091040347
1694,1894.000,0.01744331522623842
1695,1895.000,0.017177180141281577
1696,1896.000,0.017355364809459154
1697,1897.000,0.015189087325529628
1698,1898.000,0.012779148884157853
1699,1899.000,0.012183564532881936
1700,1900.000,0.009859841097625343
1701,1901.000,0.009678920032149905
1702,1902.000,0.01142947076589091
1703,1903.000,0.013526561593324243
1704,1904.000,0.014737448010647226
1705,1905.000,0.01577749164220679
1706,1906.000,0.014908672305366548
1707,1907.000,0.011962062059728744
1708,1908.000,0.010541217955050818
1709,1909.000,0.010369856668395558
1710,1910.000,0.010262249986839419
1711,1911.000,0.010108296192927285
1712,1912.000,0.011674843595021264
1713,1913.000,0.013804853369146285
1714,1914.000,0.01375391540583192
1715,1915.000,0.012970682517855308
1716,1916.000,0.013166146481924487
1717,1917.000,0.014639715649118446
1718,1918.000,0.014553142266527794
1719,1919.000,0.016721785616425268
1720,1920.000,0.016674152107687995
1721,1921.000,0.0163463441538242
1722,1922.000,0.018268272794276803
1723,1923.000,0.01759051500961379
1724,1924.000,0.016648411848748355
1725,1925.000,0.016112659780155116
1726,1926.000,0.0150978368894763
1727,1927.000,0.015161916041817039
1728,1928.000,0.015534742088825399
1729,1929.000,0.015303952500313944
1730,1930.000,0.013252146035112844
1731,1931.000,0.013818670784341527
1732,1932.000,0.016786317197218514
1733,1933.000,0.016891571100025676
1734,1934.000,0.0196785029653008
1735,1935.000,0.02038934983821999
1736,1936.000,0.01780339363618254
1737,1937.000,0.018693593690240408
1738,1938.000,0.019248313957261395
1739,1939.000,0.01775513791229379
1740,1940.000,0.01560245210193449
1741,1941.000,0.01712943451808407
1742,1942.000,0.018572002245663854
1743,1943.000,0.018139590009905573
1744,1944.000,0.01898029200787029
1745,1945.000,0.01841093643170479
1746,1946.000,0.013963783470016906
1747,1947.000,0.011220832465407789
1748,1948.000,0.00971596039936508
1749,1949.000,0.008657104895269057
1750,1950.000,0.009386997745602125
1751,1951.000,0.013115017171835691
1752,1952.000,0.01553735819072192
1753,1953.000,0.017695942840878064
1754,1954.000,0.018434015684459838
1755,1955.000,0.01686657825347792
1756,1956.000,0.01591273710101534
1757,1957.000,0.014916990915665215
1758,1958.000,0.01540596217844215
1759,1959.000,0.01605798376563779
1760,1960.000,0.016732293514566746
1761,1961.000,0.018197746997287014
1762,1962.000,0.019303955142145772
1763,1963.000,0.01955290585811407
1764,1964.000,0.018948329219398378
1765,1965.000,0.01819603523319527
1766,1966.000,0.01799974315563503
1767,1967.000,0.017341954189083686
1768,1968.000,0.014592626283394415
1769,1969.000,0.011393188134598699
1770,1970.000,0.009342288324108456
1771,1971.000,0.008094466977707802
1772,1972.000,0.009840106201787605
1773,1973.000,0.010954145631561305
1774,1974.000,0.012661527435417994
1775,1975.000,0.014457173368065646
1776,1976.000,0.01574025685918718
1777,1977.000,0.017490736066952874
1778,1978.000,0.017537789817474652
1779,1979.000,0.015774489581467984
1780,1980.000,0.016190212422125684
1781,1981.000,0.014520137529904933
1782,1982.000,0.016648205005361582
1783,1983.000,0.016057155242727807
1784,1984.000,0.014780972810669956
1785,1985.000,0.014020930810650256
1786,1986.000,0.011149284117183652
1787,1987.000,0.010663563774703148
1788,1988.000,0.008213969330197501
1789,1989.000,0.007204992846983978
1790,1990.000,0.009010808859525111
1791,1991.000,0.009058226447796748
1792,1992.000,0.011475216564542538
1793,1993.000,0.012767336015026531
1794,1994.000,0.01356378552470936
1795,1995.000,0.012291878082636454
1796,1996.000,0.010030028969712973
1797,1997.000,0.008536884337024413
1798,1998.000,0.00871656072200207
1799,1999.000,0.011473174662077267
1800,2000.000,0.017710842694681348
