pixel_index,raman_shift_cm-1,intensity
0,200.0,41.255338454545445
1,201.0,37.15867565734267
2,202.0,35.07710914452217
3,203.0,34.61861049766902
4,204.0,35.391151298368314
5,205.0,37.002703128205226
6,206.0,38.6144551981353
7,207.0,42.162448512820625
8,208.0,41.93869080652692
9,209.0,44.28750785081597
10,210.0,42.13214308158519
11,211.0,42.87645403496515
12,212.0,37.91723774592084
13,213.0,38.1710235034966
14,214.0,35.00316445221455
15,215.0,39.11465669930081
16,216.0,39.30482476689988
17,217.0,43.01611044988356
18,218.0,42.59751512354324
19,219.0,40.72650970396281
20,220.0,38.53281012820523
21,221.0,39.17933412587423
22,222.0,38.14426077855487
23,223.0,39.401420599067706
24,224.0,37.13100197669007
25,225.0,40.1554741888113
26,226.0,39.73824799300709
27,227.0,40.43365854079265
28,228.0,43.60231020512832
29,229.0,42.716064659673776
30,230.0,43.70321359440571
31,231.0,46.82402345920758
32,232.0,43.434128687645796
33,233.0,41.846567244755356
34,234.0,38.53512258974369
35,235.0,36.18043615850825
36,236.0,30.97399740559449
37,237.0,29.412147629370704
38,238.0,33.997707342657435
39,239.0,35.81555447319357
40,240.0,39.66948362004673
41,241.0,40.55379431235442
42,242.0,42.12991133100244
43,243.0,43.669385473193586
44,244.0,45.54049362937076
45,245.0,47.83990425174838
46,246.0,41.994409620046724
47,247.0,38.456602349650446
48,248.0,36.427629878787975
49,249.0,31.056258104895186
50,250.0,27.245444270396334
51,251.0,25.926716226107295
52,252.0,28.91383441025648
53,253.0,32.66326414918423
54,254.0,42.11760953379965
55,255.0,52.284599062937204
56,256.0,54.121499948718096
57,257.0,53.35112400932415
58,258.0,49.74666884149198
59,259.0,45.575579104895226
60,260.0,43.56154635431247
61,261.0,39.65565902564113
62,262.0,36.14799752214462
63,263.0,34.299960522144616
64,264.0,34.95826162937072
65,265.0,36.5311896060607
66,266.0,34.04945459906769
67,267.0,36.565532608391706
68,268.0,37.39942422377632
69,269.0,40.249191214452324
70,270.0,42.648166783216894
71,271.0,44.77523510722622
72,272.0,43.484535675990784
73,273.0,42.68996926340338
74,274.0,43.64442689277401
75,275.0,40.48361271794883
76,276.0,36.92144565501175
77,277.0,38.58508874592084
78,278.0,34.9143950046621
79,279.0,34.377425958042046
80,280.0,35.548958293706384
81,281.0,38.88272096736607
82,282.0,36.388677503496595
83,283.0,42.20115054079265
84,284.0,46.75129716783229
85,285.0,49.527281552447675
86,286.0,51.38923842424256
87,287.0,51.37115371095585
88,288.0,51.31363065967379
89,289.0,51.94469099067613
90,290.0,48.0108313752915
91,291.0,42.36260433333345
92,292.0,34.83196137529146
93,293.0,34.874938813519904
94,294.0,34.20129978787888
95,295.0,35.09632839627049
96,296.0,37.93266689743599
97,297.0,40.97581784615396
98,298.0,46.45719563403276
99,299.0,48.11553588345001
100,300.0,44.983784265734386
101,301.0,41.45411154079265
102,302.0,36.62224177156186
103,303.0,33.72191703263412
104,304.0,34.1199864125875
105,305.0,33.24819865501174
106,306.0,34.85853185547795
107,307.0,36.071815006993106
108,308.0,37.472539249417345
109,309.0,39.16591112587423
110,310.0,38.414147522144624
111,311.0,40.054648363636474
112,312.0,36.88285353846163
113,313.0,33.974207128205215
114,314.0,37.00718127039637
115,315.0,37.17152879020989
116,316.0,32.909431846153936
117,317.0,33.12773627738937
118,318.0,32.66782390209799
119,319.0,35.15215167832177
120,320.0,34.87913004428914
121,321.0,39.38881371794882
122,322.0,37.91531432867143
123,323.0,37.494130004662104
124,324.0,39.19922906759918
125,325.0,36.80776841958052
126,326.0,34.124357006993094
127,327.0,37.926003522144626
128,328.0,40.62546608158519
129,329.0,43.778664046620165
130,330.0,42.795027675990795
131,331.0,43.48128234965046
132,332.0,41.147396426573536
133,333.0,41.04212462703973
134,334.0,37.51295941258751
135,335.0,37.06616889743599
136,336.0,38.92690718181828
137,337.0,40.8148667972029
138,338.0,44.67361554079265
139,339.0,45.00681567832179
140,340.0,44.22047214452226
141,341.0,47.584045165501294
142,342.0,50.53677135664349
143,343.0,48.17515590209803
144,344.0,43.75062857575769
145,345.0,42.9975384871796
146,346.0,38.40347347086257
147,347.0,36.57053695338004
148,348.0,39.09781741491852
149,349.0,34.38046009557119
150,350.0,36.43085221445231
151,351.0,40.303385955711065
152,352.0,41.90705623310035
153,353.0,40.60778085780896
154,354.0,40.55948653613064
155,355.0,40.5686140932402
156,356.0,38.757575086247186
157,357.0,41.89381622610733
158,358.0,46.4368735757577
159,359.0,44.6448944825176
160,360.0,46.26424646386958
161,361.0,46.62159151981364
162,362.0,43.29016986946398
163,363.0,42.392947930070044
164,364.0,39.53574110489521
165,365.0,39.30370037995348
166,366.0,40.24455311888123
167,367.0,43.00746886247097
168,368.0,47.04630100000013
169,369.0,49.097670041958175
170,370.0,48.67702693939407
171,371.0,49.55286610489523
172,372.0,46.89937509324022
173,373.0,44.958968368298486
174,374.0,40.563982240093345
175,375.0,40.01683816317026
176,376.0,40.14189944988355
177,377.0,41.30292714685325
178,378.0,42.89302923543134
179,379.0,45.19596629370641
180,380.0,47.07896350116563
181,381.0,48.99364782517496
182,382.0,53.342185044289195
183,383.0,52.242745853146985
184,384.0,50.85424524708638
185,385.0,50.61984889044302
186,386.0,50.885492918415046
187,387.0,49.76708481351994
188,388.0,48.43144652214465
189,389.0,47.668844249417376
190,390.0,45.57822942890455
191,391.0,41.822538890443
192,392.0,42.48564685547797
193,393.0,44.769874734265855
194,394.0,47.386668986014115
195,395.0,50.22659023543137
196,396.0,53.6058052540794
197,397.0,52.2419311655013
198,398.0,52.970586848484984
199,399.0,52.80982329370643
200,400.0,49.81639141491854
201,401.0,46.48858877389289
202,402.0,41.29640883216794
203,403.0,42.76560941258752
204,404.0,41.600961981352086
205,405.0,43.20251787878799
206,406.0,39.43579132400943
207,407.0,34.95866265967375
208,408.0,32.82076860606069
209,409.0,31.020274652680733
210,410.0,32.53462029370638
211,411.0,32.5242862144523
212,412.0,32.140282221445304
213,413.0,35.02709856643365
214,414.0,38.74047658275069
215,415.0,40.8506247972029
216,416.0,38.73814994871805
217,417.0,34.70182696503505
218,418.0,33.57012219580429
219,419.0,36.41014048717959
220,420.0,38.6553173006994
221,421.0,34.81668266200475
222,422.0,39.18791332867143
223,423.0,40.786547685314794
224,424.0,42.193278410256525
225,425.0,46.156717030303156
226,426.0,46.58888022377635
227,427.0,42.94262525407937
228,428.0,41.5091646853148
229,429.0,42.03628624475536
230,430.0,38.383655722610825
231,431.0,34.99662119347328
232,432.0,36.78652412587422
233,433.0,38.83019604895115
234,434.0,41.847031622377735
235,435.0,46.481137969697095
236,436.0,46.1278437715619
237,437.0,46.09964798834511
238,438.0,43.45813141258753
239,439.0,41.27543356410267
240,440.0,39.306585221445324
241,441.0,38.88152454545465
242,442.0,39.7624773986015
243,443.0,41.84050452913765
244,444.0,44.98032883916096
245,445.0,46.33854545920759
246,446.0,43.079843948718064
247,447.0,40.11791913986025
248,448.0,36.86423397435907
249,449.0,36.85919581118891
250,450.0,39.86666523543134
251,451.0,41.3486727855479
252,452.0,39.45476941958053
253,453.0,39.52145023310034
254,454.0,45.3490575804197
255,455.0,46.633752666666794
256,456.0,45.96855953146866
257,457.0,46.647381151515276
258,458.0,49.73580044289058
259,459.0,51.919723524475664
260,460.0,54.138851655011806
261,461.0,50.59444091841506
262,462.0,46.52140751748264
263,463.0,45.58629527505839
264,464.0,43.18857036829848
265,465.0,40.153749501165606
266,466.0,39.89446013286724
267,467.0,40.70634227039638
268,468.0,41.335389037296146
269,469.0,40.901573386946495
270,470.0,42.305897314685424
271,471.0,43.59677886480198
272,472.0,45.00410942191154
273,473.0,42.03346819813531
274,474.0,38.74722298834509
275,475.0,35.646514037296136
276,476.0,33.174097111888194
277,477.0,32.624992967366055
278,478.0,32.246652643356725
279,479.0,31.536101111888193
280,480.0,34.319901195804285
281,481.0,34.72929532634042
282,482.0,35.84316136130545
283,483.0,40.739522153846266
284,484.0,42.91571407692319
285,485.0,46.6666866806528
286,486.0,47.16488778787891
287,487.0,45.806610298368426
288,488.0,45.44487981351993
289,489.0,41.61387970163182
290,490.0,41.794479769230875
291,491.0,36.9644715081586
292,492.0,38.86115329137539
293,493.0,42.74121597902109
294,494.0,40.469305969697075
295,495.0,44.433097081585196
296,496.0,42.50826340326352
297,497.0,43.3722132843824
298,498.0,44.51950754079266
299,499.0,43.02749513986025
300,500.0,46.32020761072273
301,501.0,44.27992410256422
302,502.0,44.31730716550128
303,503.0,41.45105103263414
304,504.0,38.18006238694649
305,505.0,35.635025822843915
306,506.0,35.31504753846163
307,507.0,38.00688254778565
308,508.0,41.09246273659684
309,509.0,41.04179756410268
310,510.0,43.805840375291496
311,511.0,42.16084892307703
312,512.0,41.53576186013997
313,513.0,42.07110476223787
314,514.0,42.56204121212133
315,515.0,42.377171836829945
316,516.0,46.25303018648031
317,517.0,47.15203023776236
318,518.0,47.094616836829964
319,519.0,44.35321113986025
320,520.0,46.779263200466325
321,521.0,44.84082857808869
322,522.0,46.39326283682996
323,523.0,46.170270827505945
324,524.0,45.165086009324135
325,525.0,46.67319781585094
326,526.0,43.33422232634044
327,527.0,39.24864564801875
328,528.0,33.905914200466285
329,529.0,35.35434596270406
330,530.0,38.07975037062947
331,531.0,40.5981627902099
332,532.0,44.787111116550236
333,533.0,44.828532983683104
334,534.0,46.851776897436025
335,535.0,47.26326869230782
336,536.0,43.838569139860255
337,537.0,42.49829773426585
338,538.0,43.55871313286725
339,539.0,45.28442449883462
340,540.0,47.68602375757588
341,541.0,52.49320679254093
342,542.0,50.64125955244768
343,543.0,50.427086976690106
344,544.0,50.46843657109571
345,545.0,47.48027010722623
346,546.0,45.791802818181935
347,547.0,42.56930485780897
348,548.0,41.47562718181829
349,549.0,39.58543274592085
350,550.0,44.38212207226119
351,551.0,43.366564496503614
352,552.0,41.8027542937064
353,553.0,42.77934536363648
354,554.0,43.131924293706405
355,555.0,42.60051481118893
356,556.0,43.95432439627051
357,557.0,40.865417890443
358,558.0,39.169634953380054
359,559.0,41.43110712121223
360,560.0,42.46593852680664
361,561.0,40.19729386247097
362,562.0,41.58209392307703
363,563.0,43.80509662004674
364,564.0,42.15862684382296
365,565.0,42.00635194405605
366,566.0,42.193283321678436
367,567.0,43.29334733333344
368,568.0,44.23143066433578
369,569.0,46.521644993007115
370,570.0,48.31333244289057
371,571.0,47.99741302797216
372,572.0,46.866687571095696
373,573.0,51.25964475524489
374,574.0,44.79919436363648
375,575.0,45.79961525407937
376,576.0,47.045515319347444
377,577.0,50.7849896620048
378,578.0,50.684266438228576
379,579.0,55.36695925641041
380,580.0,55.42805400699316
381,581.0,53.28430598834514
382,582.0,51.763303974359104
383,583.0,53.91757693007007
384,584.0,51.55454844522158
385,585.0,56.706438967366125
386,586.0,56.46945846853162
387,587.0,54.748273755244895
388,588.0,57.26773136829852
389,589.0,57.334617648018806
390,590.0,57.39829420046635
391,591.0,58.592889261072415
392,592.0,62.09443754778571
393,593.0,61.981587324009496
394,594.0,62.63020491608408
395,595.0,63.19379873659691
396,596.0,57.43596298368313
397,597.0,56.16124920745935
398,598.0,62.258371088578244
399,599.0,61.02197139393955
400,600.0,70.02227984382301
401,601.0,77.80383151282072
402,602.0,85.94384795104918
403,603.0,89.45201687645712
404,604.0,96.22298657575783
405,605.0,103.19569869230796
406,606.0,107.87775938694668
407,607.0,118.8101047878791
408,608.0,129.6716648601402
409,609.0,137.84427917482552
410,610.0,155.65693163869503
411,611.0,174.8480664428909
412,612.0,191.76256252913805
413,613.0,218.20584049883507
414,614.0,248.5317108881125
415,615.0,286.43395215850893
416,616.0,333.2319770256419
417,617.0,379.03278572727373
418,618.0,415.8366847109568
419,619.0,442.24970510722727
420,620.0,455.7215359184162
421,621.0,448.92010376456994
422,622.0,422.8696241818193
423,623.0,386.9080167272738
424,624.0,338.22680378088666
425,625.0,291.1388385431243
426,626.0,254.33963584382354
427,627.0,219.98260397202856
428,628.0,192.48627910256462
429,629.0,167.73211610489554
430,630.0,152.66169454312393
431,631.0,135.35653958741293
432,632.0,129.7511243659677
433,633.0,121.88391623076957
434,634.0,110.65575206993037
435,635.0,97.98211579254104
436,636.0,89.05096531468556
437,637.0,80.6175380885783
438,638.0,73.34203808857829
439,639.0,67.40935341724958
440,640.0,67.81072213519832
441,641.0,62.02955831701649
442,642.0,68.67595437762256
443,643.0,68.12320475058293
444,644.0,66.41139004195821
445,645.0,63.755257668997835
446,646.0,63.958590256410425
447,647.0,63.99501994405611
448,648.0,63.929578981352144
449,649.0,63.84429916783233
450,650.0,59.550304825174976
451,651.0,54.08313281585095
452,652.0,51.614734247086375
453,653.0,45.9011051724943
454,654.0,42.94340557109568
455,655.0,44.25406032400944
456,656.0,46.98441817948731
457,657.0,48.93355337995351
458,658.0,51.11727965734279
459,659.0,51.01437466433579
460,660.0,48.39710122377635
461,661.0,48.493520825174954
462,662.0,48.36761751048964
463,663.0,43.104837925408034
464,664.0,40.63020994871805
465,665.0,41.68289408624719
466,666.0,43.672160578088686
467,667.0,46.391060412587535
468,668.0,50.225624083916216
469,669.0,50.534221470862605
470,670.0,48.44260220279733
471,671.0,49.99351635431249
472,672.0,51.81389159673673
473,673.0,49.06297964335677
474,674.0,47.55417904195818
475,675.0,47.858341319347446
476,676.0,50.0487841678323
477,677.0,46.94113011188823
478,678.0,46.196886832167955
479,679.0,45.25013869230781
480,680.0,41.47121491841503
481,681.0,41.779273291375404
482,682.0,43.91563071328683
483,683.0,47.34764609324022
484,684.0,45.194498540792665
485,685.0,43.220774193473304
486,686.0,41.9914754871796
487,687.0,37.01949520979031
488,688.0,37.78392155477865
489,689.0,41.78605295338006
490,690.0,43.231476995338106
491,691.0,48.92583286247099
492,692.0,51.885816862471
493,693.0,56.8484309510491
494,694.0,55.01749906759922
495,695.0,51.39428900699315
496,696.0,45.97923738694651
497,697.0,42.59132424708636
498,698.0,39.007826522144626
499,699.0,39.39383898135208
500,700.0,37.19568883916094
501,701.0,36.400571109557205
502,702.0,35.14976773193483
503,703.0,38.71810199300709
504,704.0,37.78139762004672
505,705.0,39.04065384615395
506,706.0,39.14340990909101
507,707.0,41.87511413053624
508,708.0,41.549915682983794
509,709.0,42.08341826573438
510,710.0,38.5451336993008
511,711.0,39.693963993007095
512,712.0,39.96718471328682
513,713.0,41.47675117948729
514,714.0,38.63166900932411
515,715.0,38.17894248717959
516,716.0,38.37598187179497
517,717.0,36.20538388578098
518,718.0,40.792675107226216
519,719.0,43.97698679720291
520,720.0,47.541358759906885
521,721.0,48.76306145454558
522,722.0,45.48848472494185
523,723.0,47.433536312354434
524,724.0,45.36567975058286
525,725.0,40.89882032167843
526,726.0,42.78514186013997
527,727.0,39.62104146153857
528,728.0,43.143422594405706
529,729.0,43.967315109557234
530,730.0,46.188892452214574
531,731.0,43.80467541258753
532,732.0,41.94255157109568
533,733.0,43.34693754312366
534,734.0,41.48981510023321
535,735.0,39.74675726340336
536,736.0,40.35800941258752
537,737.0,35.230345216783306
538,738.0,32.789477424242506
539,739.0,31.748485599067678
540,740.0,34.283065958042044
541,741.0,37.215210573426674
542,742.0,35.29041305594416
543,743.0,39.836393428904536
544,744.0,41.18275996736608
545,745.0,42.212288645687764
546,746.0,45.556165344988464
547,747.0,43.89756406060617
548,748.0,41.63169311888123
549,749.0,42.314554496503604
550,750.0,43.47319109324021
551,751.0,47.32303212354325
552,752.0,45.25889344289057
553,753.0,46.49002038694651
554,754.0,41.70790813053625
555,755.0,40.05000080652691
556,756.0,40.69155120745931
557,757.0,37.44712513752924
558,758.0,34.12156600699309
559,759.0,37.353307615384715
560,760.0,38.99745978787888
561,761.0,45.01507738927751
562,762.0,47.755664759906885
563,763.0,44.827466545454655
564,764.0,45.52361383449896
565,765.0,47.32644761771574
566,766.0,45.93373903729616
567,767.0,46.681518403263524
568,768.0,44.67503711188822
569,769.0,47.768629037296165
570,770.0,47.77990273892787
571,771.0,47.68238523543137
572,772.0,46.322497508158634
573,773.0,45.43662626340338
574,774.0,48.437065643356775
575,775.0,47.61621988811201
576,776.0,41.3482161911423
577,777.0,43.27191953846166
578,778.0,42.35124446386958
579,779.0,42.60414798135209
580,780.0,41.07114977622389
581,781.0,42.452285974359086
582,782.0,45.05756861305373
583,783.0,47.480881864801994
584,784.0,47.956886242424375
585,785.0,46.009902668997796
586,786.0,41.21801106526817
587,787.0,48.42515369930082
588,788.0,46.99603489976702
589,789.0,47.238343212121336
590,790.0,48.70620853146866
591,791.0,49.49546774825188
592,792.0,46.175716638694766
593,793.0,37.1687862004663
594,794.0,29.26594911655019
595,795.0,22.18032433100239
596,796.0,21.240852123543178
597,797.0,25.558220000000066
598,798.0,27.56242647086254
599,799.0,36.6214961095572
600,800.0,42.71869016783228
601,801.0,45.94005099533811
602,802.0,48.23614481585094
603,803.0,48.242489456876584
604,804.0,42.579431916084026
605,805.0,39.51121496037307
606,806.0,43.423483925408036
607,807.0,41.87317091142203
608,808.0,45.66039192307705
609,809.0,45.66179973892786
610,810.0,44.26558952913764
611,811.0,46.15371643822856
612,812.0,46.081431657342776
613,813.0,49.01227620046633
614,814.0,46.77943555944068
615,815.0,49.63925929370643
616,816.0,51.92141904895119
617,817.0,53.05206359207473
618,818.0,53.12502813519828
619,819.0,48.127067930070055
620,820.0,45.223671438228564
621,821.0,44.67305486480198
622,822.0,43.11494401864813
623,823.0,44.95692810023322
624,824.0,43.56426155244767
625,825.0,42.14351226340337
626,826.0,38.187720261072364
627,827.0,40.17778641724952
628,828.0,39.831638139860246
629,829.0,40.66673670396281
630,830.0,41.610570146853256
631,831.0,46.62872301398614
632,832.0,49.54969630536144
633,833.0,47.35674358741271
634,834.0,45.26630592773905
635,835.0,40.560907918415026
636,836.0,37.00006428205138
637,837.0,33.481844328671414
638,838.0,33.042373097902185
639,839.0,29.497161109557183
640,840.0,32.25287338228447
641,841.0,35.68224976456885
642,842.0,38.35961313286723
643,843.0,42.28830508624719
644,844.0,48.909485874126005
645,845.0,49.71552020046633
646,846.0,51.561391326340456
647,847.0,51.47169458974373
648,848.0,51.523603426573565
649,849.0,48.16242672727285
650,850.0,51.48943673193487
651,851.0,48.75606671561785
652,852.0,48.08856788578102
653,853.0,48.20714165734279
654,854.0,49.049753354312486
655,855.0,47.689545890443014
656,856.0,49.38327525174839
657,857.0,50.80906729836843
658,858.0,46.19543883682996
659,859.0,42.591645268065385
660,860.0,41.024912638694744
661,861.0,34.59615977156186
662,862.0,31.82069004895113
663,863.0,35.49023811655021
664,864.0,41.30720135431247
665,865.0,46.12760803496516
666,866.0,49.887064300699436
667,867.0,54.18857932634047
668,868.0,55.89814540326355
669,869.0,55.48016311421926
670,870.0,54.380683312354456
671,871.0,50.518137566433694
672,872.0,50.27187915384629
673,873.0,53.551746282051425
674,874.0,54.556384139860285
675,875.0,53.04711037062951
676,876.0,50.842941778554916
677,877.0,50.866344317016456
678,878.0,50.868843745920884
679,879.0,47.40178595104908
680,880.0,45.13319461771574
681,881.0,41.95481251748263
682,882.0,40.91034919813531
683,883.0,41.9342766969698
684,884.0,46.01306661072273
685,885.0,43.83571868764581
686,886.0,42.94213522843834
687,887.0,42.239149797202906
688,888.0,44.347559118881236
689,889.0,43.581485568764684
690,890.0,40.46386130769241
691,891.0,41.16153040792552
692,892.0,37.94531174358984
693,893.0,37.94249497202807
694,894.0,37.40291105128215
695,895.0,32.6634565174826
696,896.0,37.74821638927749
697,897.0,38.209774720279825
698,898.0,46.12098545687658
699,899.0,48.19998592074605
700,900.0,45.28928401398613
701,901.0,47.022998251748376
702,902.0,41.171545857808965
703,903.0,42.25727872494184
704,904.0,39.27318404428915
705,905.0,38.27769253613064
706,906.0,43.11820016550128
707,907.0,41.43161915850826
708,908.0,46.50638565268078
709,909.0,47.484132242424366
710,910.0,43.08760660606072
711,911.0,40.75535701631712
712,912.0,38.789326902098004
713,913.0,37.751750769230874
714,914.0,34.51403182284391
715,915.0,34.802891426573524
716,916.0,36.29521037062947
717,917.0,35.483076699300796
718,918.0,39.72626041258752
719,919.0,43.563534160839275
720,920.0,41.6018639976691
721,921.0,46.23967607226119
722,922.0,48.24241710955724
723,923.0,49.182085130536265
724,924.0,46.063696561771685
725,925.0,46.606259869464
726,926.0,44.59013986247098
727,927.0,43.28958421445233
728,928.0,44.456354846153964
729,929.0,40.64925711188822
730,930.0,39.42255127505838
731,931.0,45.040756284382404
732,932.0,43.31696129603741
733,933.0,48.664352454545586
734,934.0,45.08895289277401
735,935.0,45.90937892307704
736,936.0,42.790197538461655
737,937.0,46.540711461538585
738,938.0,47.191525724941854
739,939.0,46.81540990442902
740,940.0,50.25831723310037
741,941.0,54.36549054079269
742,942.0,54.769813515151654
743,943.0,58.14154215151531
744,944.0,52.453933522144666
745,945.0,51.89290144522158
746,946.0,50.4825885664337
747,947.0,55.34717843822858
748,948.0,55.277732650349805
749,949.0,55.62467464568779
750,950.0,55.0755914592076
751,951.0,56.80516160606076
752,952.0,57.77467866200482
753,953.0,58.09215200233115
754,954.0,54.90887044755259
755,955.0,59.220057484848645
756,956.0,63.00710830303047
757,957.0,68.26813097202815
758,958.0,70.92719706526825
759,959.0,68.79132676223793
760,960.0,70.67448963869482
761,961.0,72.9726251118883
762,962.0,74.006587801865
763,963.0,74.91921348717969
764,964.0,78.30667523543144
765,965.0,79.82101529836851
766,966.0,83.68710605361328
767,967.0,86.501964764569
768,968.0,84.97587998368321
769,969.0,83.30867987645709
770,970.0,84.39103961538484
771,971.0,87.72303762937086
772,972.0,87.72740221678345
773,973.0,92.61459459440583
774,974.0,100.32227489976717
775,975.0,99.53177548717976
776,976.0,105.24292729836858
777,977.0,112.65768325641056
778,978.0,117.06913002564133
779,979.0,124.22778348484881
780,980.0,130.41155409790244
781,981.0,136.44427958741295
782,982.0,140.74840754778592
783,983.0,151.71221118648057
784,984.0,163.71184405361345
785,985.0,176.27099572727317
786,986.0,197.10389993007044
787,987.0,214.729669442891
788,988.0,231.45195644522204
789,989.0,259.1513817062944
790,990.0,289.13488638694713
791,991.0,318.1712893100241
792,992.0,363.68275451049044
793,993.0,421.09665354545564
794,994.0,489.50095978788005
795,995.0,575.114768466202
796,996.0,669.2795187459226
797,997.0,766.0857624125894
798,998.0,866.072897606063
799,999.0,955.2610890815876
800,1000.0,1010.8076614009351
801,1001.0,1031.9802177669026
802,1002.0,1019.3325668601426
803,1003.0,965.3641087995366
804,1004.0,880.9055287855501
805,1005.0,782.604939801867
806,1006.0,678.6037856876476
807,1007.0,587.51972439161
808,1008.0,510.36869422377754
809,1009.0,438.3842702587424
810,1010.0,382.99395131002433
811,1011.0,344.9213037365977
812,1012.0,312.5634899743598
813,1013.0,287.9540401025649
814,1014.0,272.4657910769238
815,1015.0,258.81941874592144
816,1016.0,252.34641820046687
817,1017.0,253.33314521212185
818,1018.0,249.52696870629438
819,1019.0,248.2402497715624
820,1020.0,254.32807538228502
821,1021.0,263.3893579906767
822,1022.0,274.59565481818254
823,1023.0,299.3384017016325
824,1024.0,334.79031772960457
825,1025.0,373.03700165035065
826,1026.0,419.7248463986025
827,1027.0,471.3818231072273
828,1028.0,525.7978774289058
829,1029.0,571.455583470864
830,1030.0,603.1005576130551
831,1031.0,615.4032945547801
832,1032.0,601.7818220256427
833,1033.0,570.0476070769246
834,1034.0,522.5223658111902
835,1035.0,461.33379495338113
836,1036.0,400.78121979720385
837,1037.0,347.03638989976787
838,1038.0,305.88557416083995
839,1039.0,264.8304386759914
840,1040.0,236.30161065268123
841,1041.0,209.45406824941782
842,1042.0,183.9510366200471
843,1043.0,164.51718600932446
844,1044.0,151.13953073659712
845,1045.0,140.367306617716
846,1046.0,133.39922504662042
847,1047.0,125.46086352447585
848,1048.0,117.16312893007023
849,1049.0,113.15055304428935
850,1050.0,107.64109720512849
851,1051.0,101.66336777156204
852,1052.0,98.35820356410282
853,1053.0,98.2866932447555
854,1054.0,98.22894489510514
855,1055.0,98.90836647785574
856,1056.0,96.03351833333357
857,1057.0,91.63468958974383
858,1058.0,85.94488895804218
859,1059.0,79.20428415151537
860,1060.0,74.3960663053615
861,1061.0,72.06749857109577
862,1062.0,69.67175884848504
863,1063.0,69.61151414685334
864,1064.0,69.74432513286732
865,1065.0,69.28141659440578
866,1066.0,65.45246435897454
867,1067.0,64.49383995104913
868,1068.0,61.7041592284384
869,1069.0,59.01823289277405
870,1070.0,60.238257226107386
871,1071.0,58.560933361305516
872,1072.0,59.11297997669013
873,1073.0,61.427927792540956
874,1074.0,60.7769624358976
875,1075.0,59.43905450582766
876,1076.0,59.11766825874142
877,1077.0,58.50715147086263
878,1078.0,55.7838102540794
879,1079.0,56.267242256410405
880,1080.0,51.47436672027986
881,1081.0,48.63316941958054
882,1082.0,49.20626434032647
883,1083.0,50.17842227505841
884,1084.0,52.01103413519827
885,1085.0,57.564642254079416
886,1086.0,59.81418333100249
887,1087.0,57.50657110256425
888,1088.0,56.3242306480188
889,1089.0,59.55415730069946
890,1090.0,57.35512541491856
891,1091.0,61.15786936363652
892,1092.0,58.177339303030465
893,1093.0,59.97462745920762
894,1094.0,60.436934668997836
895,1095.0,57.83984836130551
896,1096.0,54.49490304428919
897,1097.0,49.58070660606073
898,1098.0,49.07326603030316
899,1099.0,47.76806891142204
900,1100.0,44.99780191608403
901,1101.0,49.84211471794885
902,1102.0,49.005116265734394
903,1103.0,51.872668242424375
904,1104.0,53.05202060139874
905,1105.0,54.5977670606062
906,1106.0,54.4338270559442
907,1107.0,55.753570361305506
908,1108.0,53.15335144988359
909,1109.0,50.47495656177169
910,1110.0,48.93668528438242
911,1111.0,49.78189875524488
912,1112.0,48.204911310023434
913,1113.0,44.69599126340337
914,1114.0,47.5620589766901
915,1115.0,51.510795962704094
916,1116.0,54.745693727272865
917,1117.0,62.00607264102581
918,1118.0,63.697810456876624
919,1119.0,63.22347255944073
920,1120.0,62.01414430069947
921,1121.0,58.90243659207475
922,1122.0,53.48882612820526
923,1123.0,49.556404013986146
924,1124.0,48.49163198368311
925,1125.0,46.52116834265746
926,1126.0,48.19210666666679
927,1127.0,53.71972866899781
928,1128.0,56.133438780885925
929,1129.0,55.3081182540794
930,1130.0,54.36689709790224
931,1131.0,56.969427475524625
932,1132.0,57.4507237505829
933,1133.0,62.370518727272895
934,1134.0,63.06178686480203
935,1135.0,61.865419650349814
936,1136.0,63.19637172261089
937,1137.0,64.54454139160856
938,1138.0,67.70039877622395
939,1139.0,68.90257755244774
940,1140.0,68.29612425641044
941,1141.0,73.3514138997671
942,1142.0,80.03836654312376
943,1143.0,88.53482841025664
944,1144.0,97.35501409324036
945,1145.0,104.82012006759935
946,1146.0,114.44323124475557
947,1147.0,125.29276547785582
948,1148.0,144.81878545454583
949,1149.0,161.5973669580424
950,1150.0,181.33809790909137
951,1151.0,202.96094290442943
952,1152.0,223.92728116550177
953,1153.0,238.75343654079313
954,1154.0,252.53902889277458
955,1155.0,254.9620672657349
956,1156.0,247.5836176456883
957,1157.0,231.07938435431296
958,1158.0,215.42032019347374
959,1159.0,193.41648258974408
960,1160.0,170.41952516550162
961,1161.0,150.45736800000037
962,1162.0,131.60064786247122
963,1163.0,117.19190515617748
964,1164.0,107.3787363053616
965,1165.0,96.4982564335667
966,1166.0,87.79924108158531
967,1167.0,81.66012791142212
968,1168.0,78.0330135058277
969,1169.0,75.13861449650369
970,1170.0,68.08865767832185
971,1171.0,69.89870295338014
972,1172.0,67.78757823076941
973,1173.0,62.86610383216801
974,1174.0,59.79227296270413
975,1175.0,59.316336634032794
976,1176.0,59.855314841492
977,1177.0,62.76002436596754
978,1178.0,61.52137451981369
979,1179.0,63.9916922307694
980,1180.0,62.753800333333494
981,1181.0,64.96025086480203
982,1182.0,61.15476776456892
983,1183.0,54.36444070163184
984,1184.0,48.28181198368311
985,1185.0,44.85725431235443
986,1186.0,40.278332608391715
987,1187.0,41.86864527039638
988,1188.0,41.93858613519824
989,1189.0,44.366336340326455
990,1190.0,44.147708480186594
991,1191.0,49.65372453613067
992,1192.0,54.636505072261215
993,1193.0,57.91061033333348
994,1194.0,54.64079109557123
995,1195.0,56.99851221212136
996,1196.0,52.57043497202811
997,1197.0,49.44463501165514
998,1198.0,45.49258379720291
999,1199.0,42.76521881585093
1000,1200.0,39.158047944056044
1001,1201.0,41.639681081585195
1002,1202.0,43.12096772960385
1003,1203.0,46.248768881119005
1004,1204.0,46.253244853146974
1005,1205.0,50.409912452214584
1006,1206.0,45.147183214452326
1007,1207.0,42.174784223776335
1008,1208.0,43.30403844988356
1009,1209.0,42.378575680652794
1010,1210.0,43.6429847902099
1011,1211.0,44.54313064335676
1012,1212.0,48.616870519813645
1013,1213.0,49.56485233100246
1014,1214.0,52.975054193473326
1015,1215.0,53.06263562703977
1016,1216.0,50.36321196270409
1017,1217.0,47.79858776456889
1018,1218.0,48.992822069930206
1019,1219.0,45.15157421212133
1020,1220.0,45.91504303729616
1021,1221.0,41.3993042960374
1022,1222.0,38.51399767832178
1023,1223.0,38.3893284125875
1024,1224.0,39.083720878787986
1025,1225.0,39.13388291142201
1026,1226.0,38.93551987412597
1027,1227.0,37.80739192307702
1028,1228.0,41.43997807459218
1029,1229.0,39.824406797202904
1030,1230.0,39.900745564102664
1031,1231.0,39.22680193240104
1032,1232.0,39.85857958275069
1033,1233.0,43.59505656410268
1034,1234.0,43.53509185081597
1035,1235.0,47.57058064568778
1036,1236.0,48.75748315384628
1037,1237.0,50.134557529137666
1038,1238.0,53.64738129370643
1039,1239.0,51.747286545454685
1040,1240.0,48.33363593007006
1041,1241.0,49.10927934965048
1042,1242.0,47.103309076923196
1043,1243.0,48.39516765034978
1044,1244.0,47.11548758508171
1045,1245.0,45.949219048951164
1046,1246.0,47.71238953613066
1047,1247.0,45.83458316783229
1048,1248.0,43.921663261072375
1049,1249.0,42.01816047086258
1050,1250.0,39.170164666666764
1051,1251.0,40.258504610722724
1052,1252.0,41.26240270862482
1053,1253.0,44.14795831235443
1054,1254.0,43.6434419860141
1055,1255.0,46.04206038461551
1056,1256.0,46.55874644755257
1057,1257.0,42.86509305827517
1058,1258.0,42.57108489743601
1059,1259.0,44.4717504825176
1060,1260.0,45.25456287878799
1061,1261.0,41.295235307692415
1062,1262.0,43.48878075058286
1063,1263.0,44.27194156410268
1064,1264.0,46.03587984149197
1065,1265.0,45.242868694638815
1066,1266.0,41.157399895105
1067,1267.0,40.559862729603836
1068,1268.0,42.81872215617727
1069,1269.0,40.82715096736608
1070,1270.0,42.135303594405705
1071,1271.0,40.995968904429006
1072,1272.0,43.32327927505838
1073,1273.0,44.5850019790211
1074,1274.0,46.915258722610844
1075,1275.0,44.904149011655136
1076,1276.0,43.70912429836841
1077,1277.0,43.49634242890454
1078,1278.0,44.00657864568776
1079,1279.0,40.193546594405696
1080,1280.0,42.12401074592086
1081,1281.0,43.92356125174837
1082,1282.0,39.21233405827516
1083,1283.0,41.390637137529254
1084,1284.0,42.39528993007004
1085,1285.0,38.648034526806626
1086,1286.0,38.67220868298378
1087,1287.0,35.56522874358984
1088,1288.0,36.519162629370726
1089,1289.0,35.64035613053622
1090,1290.0,36.61525245221455
1091,1291.0,37.452493696969796
1092,1292.0,39.274536848484956
1093,1293.0,38.819100065268174
1094,1294.0,39.13150962004672
1095,1295.0,41.67387853846165
1096,1296.0,47.802854655011785
1097,1297.0,44.32005114219126
1098,1298.0,47.43449732400945
1099,1299.0,45.891654594405715
1100,1300.0,47.129403811188936
1101,1301.0,47.45975590442903
1102,1302.0,45.139694191142304
1103,1303.0,40.353878188811294
1104,1304.0,40.36867672027982
1105,1305.0,43.1623787855479
1106,1306.0,44.89232225174837
1107,1307.0,44.40663314219126
1108,1308.0,42.73339303496515
1109,1309.0,45.37307626806539
1110,1310.0,47.33586822843835
1111,1311.0,45.534078678321805
1112,1312.0,41.21980460139871
1113,1313.0,37.6823861025642
1114,1314.0,34.44932535897445
1115,1315.0,36.73754947785557
1116,1316.0,37.70300138461548
1117,1317.0,41.64834077855489
1118,1318.0,41.499026144522254
1119,1319.0,48.35948199533813
1120,1320.0,48.415774093240216
1121,1321.0,48.735313825174956
1122,1322.0,48.986813165501296
1123,1323.0,44.69787193240105
1124,1324.0,46.4451614801866
1125,1325.0,47.772284212121335
1126,1326.0,44.59675532634044
1127,1327.0,43.34681977389289
1128,1328.0,42.60858390442902
1129,1329.0,42.23046121911433
1130,1330.0,39.82174165501176
1131,1331.0,38.20633102097912
1132,1332.0,37.495224578088674
1133,1333.0,39.51227544522155
1134,1334.0,44.528259095571215
1135,1335.0,47.86225424242437
1136,1336.0,48.917720652680785
1137,1337.0,52.5985273589745
1138,1338.0,52.050783715617854
1139,1339.0,49.22923559673673
1140,1340.0,46.17494637296049
1141,1341.0,41.9867855874127
1142,1342.0,40.66146846386957
1143,1343.0,44.7084336876458
1144,1344.0,46.352413358974474
1145,1345.0,50.545091312354444
1146,1346.0,53.34380822610736
1147,1347.0,52.69550951048964
1148,1348.0,47.46529384382296
1149,1349.0,45.06299942424255
1150,1350.0,43.820771009324126
1151,1351.0,39.43498982750593
1152,1352.0,35.9128143986015
1153,1353.0,36.740932032634134
1154,1354.0,39.3298987972029
1155,1355.0,40.68060452680663
1156,1356.0,43.24343862237774
1157,1357.0,43.281591995338104
1158,1358.0,46.21636940792553
1159,1359.0,50.08008108158521
1160,1360.0,53.8129342447554
1161,1361.0,48.028177594405726
1162,1362.0,45.638601668997794
1163,1363.0,45.646931386946505
1164,1364.0,44.11640430769242
1165,1365.0,40.60590504195815
1166,1366.0,40.559851890443
1167,1367.0,40.58222677855488
1168,1368.0,39.566702934732035
1169,1369.0,41.948629666666776
1170,1370.0,42.93350453146865
1171,1371.0,40.16904672027983
1172,1372.0,43.01083736829848
1173,1373.0,45.54693349883462
1174,1374.0,45.806829785547905
1175,1375.0,46.757739820512946
1176,1376.0,48.62311228904442
1177,1377.0,48.55337895338008
1178,1378.0,49.27444702564116
1179,1379.0,51.23838217482531
1180,1380.0,52.067641750582894
1181,1381.0,49.369675006993134
1182,1382.0,47.661598787878916
1183,1383.0,48.90972390909104
1184,1384.0,49.64834372494187
1185,1385.0,48.08628455710969
1186,1386.0,50.0441485641027
1187,1387.0,50.039412606060736
1188,1388.0,51.612784717948855
1189,1389.0,51.29990659673673
1190,1390.0,47.30820535897449
1191,1391.0,38.20782463636374
1192,1392.0,34.8133864102565
1193,1393.0,36.15202935664345
1194,1394.0,38.772935941725045
1195,1395.0,37.94168743822854
1196,1396.0,43.88445333100245
1197,1397.0,45.63659421445233
1198,1398.0,52.38060306993022
1199,1399.0,52.17593978787893
1200,1400.0,50.40642792773906
1201,1401.0,47.79324932400945
1202,1402.0,46.93221046386959
1203,1403.0,48.288293219114344
1204,1404.0,48.26859614685327
1205,1405.0,45.75591633100245
1206,1406.0,48.20695241724954
1207,1407.0,45.150649284382396
1208,1408.0,50.39848339160852
1209,1409.0,45.99375402564115
1210,1410.0,48.28214258041971
1211,1411.0,52.369101731934876
1212,1412.0,53.94549437529152
1213,1413.0,59.66195530303047
1214,1414.0,61.52373175990692
1215,1415.0,60.420713172494324
1216,1416.0,54.3013399603731
1217,1417.0,45.47877100932412
1218,1418.0,45.304179752913875
1219,1419.0,43.477243508158615
1220,1420.0,49.754044314685444
1221,1421.0,59.33071166200482
1222,1422.0,63.4853760256412
1223,1423.0,68.16644280652699
1224,1424.0,67.2037906130538
1225,1425.0,66.56466414685332
1226,1426.0,59.883768678321836
1227,1427.0,58.40021001165516
1228,1428.0,61.51941196270412
1229,1429.0,63.71861352447569
1230,1430.0,70.30846157109576
1231,1431.0,77.38513702797223
1232,1432.0,84.4331886573429
1233,1433.0,94.98201727972054
1234,1434.0,101.95017251048978
1235,1435.0,109.08198241958071
1236,1436.0,115.31415515617746
1237,1437.0,123.1337938671332
1238,1438.0,129.213695699301
1239,1439.0,138.39276078088614
1240,1440.0,149.6704168438232
1241,1441.0,162.92170654079297
1242,1442.0,183.54140465967413
1243,1443.0,211.21691734498893
1244,1444.0,245.83148493240157
1245,1445.0,283.30517355011733
1246,1446.0,323.0085142727281
1247,1447.0,362.8460461258751
1248,1448.0,399.13681752913857
1249,1449.0,428.02502545687753
1250,1450.0,434.75696878787994
1251,1451.0,421.5930281515163
1252,1452.0,398.78983650815957
1253,1453.0,365.4559399207469
1254,1454.0,330.2916993379962
1255,1455.0,287.72374499533873
1256,1456.0,245.42386829603794
1257,1457.0,215.21269001864857
1258,1458.0,191.2873629860145
1259,1459.0,174.80202024708672
1260,1460.0,153.08160983216823
1261,1461.0,137.9143549463873
1262,1462.0,127.2362873729607
1263,1463.0,116.09013775524505
1264,1464.0,102.78121848018675
1265,1465.0,92.55678888345011
1266,1466.0,82.8921769790212
1267,1467.0,80.58806314685336
1268,1468.0,75.62954046386966
1269,1469.0,76.05987350582771
1270,1470.0,70.5357427086249
1271,1471.0,71.66999768764589
1272,1472.0,69.79708459207477
1273,1473.0,67.44531327738946
1274,1474.0,65.85852571095589
1275,1475.0,66.33631136130555
1276,1476.0,66.60723576923094
1277,1477.0,67.05876033799552
1278,1478.0,62.24073933799551
1279,1479.0,61.45033455477872
1280,1480.0,58.85256480652697
1281,1481.0,58.6222286410258
1282,1482.0,53.67777768531482
1283,1483.0,52.56534397902112
1284,1484.0,54.598674489510636
1285,1485.0,55.153400209790355
1286,1486.0,58.68685875990691
1287,1487.0,59.06596098135214
1288,1488.0,59.179027046620206
1289,1489.0,57.26633738927754
1290,1490.0,56.1796650512822
1291,1491.0,52.766949370629504
1292,1492.0,46.217536776223895
1293,1493.0,47.17429082284395
1294,1494.0,44.77210211421923
1295,1495.0,48.20755534032647
1296,1496.0,52.187948610722756
1297,1497.0,54.30832557808873
1298,1498.0,56.71458008391624
1299,1499.0,52.88911599533813
1300,1500.0,49.58461138927751
1301,1501.0,47.839286680652805
1302,1502.0,46.82829676456889
1303,1503.0,47.047942662004786
1304,1504.0,44.89971467132879
1305,1505.0,49.931567340326474
1306,1506.0,50.334188857808996
1307,1507.0,47.14827322610735
1308,1508.0,45.62335845687657
1309,1509.0,42.7135594871796
1310,1510.0,42.0188826899768
1311,1511.0,44.66450467365979
1312,1512.0,47.23876995104908
1313,1513.0,51.355778209790344
1314,1514.0,52.87481418181832
1315,1515.0,53.51156452214466
1316,1516.0,54.72272993240108
1317,1517.0,54.52043630536146
1318,1518.0,53.065846762237896
1319,1519.0,52.412033645687785
1320,1520.0,50.26782626806539
1321,1521.0,46.16157674125886
1322,1522.0,46.523468009324134
1323,1523.0,49.45174196503509
1324,1524.0,52.01023881118894
1325,1525.0,52.724444072261214
1326,1526.0,56.68806227972043
1327,1527.0,55.52447197435913
1328,1528.0,55.712438342657485
1329,1529.0,54.66169399766915
1330,1530.0,49.17974373193486
1331,1531.0,46.42732886013998
1332,1532.0,45.31930341025652
1333,1533.0,50.4880699673661
1334,1534.0,52.56969302564116
1335,1535.0,53.66734779254092
1336,1536.0,58.232309895105054
1337,1537.0,57.90190068997684
1338,1538.0,62.118819958042124
1339,1539.0,61.49970831002348
1340,1540.0,58.67258557109572
1341,1541.0,58.37350631002346
1342,1542.0,54.74418770396285
1343,1543.0,54.7801251538463
1344,1544.0,53.84445524475538
1345,1545.0,56.44883846853162
1346,1546.0,62.36485389976707
1347,1547.0,63.9344419300701
1348,1548.0,66.57973872960392
1349,1549.0,64.34492349184166
1350,1550.0,62.431464081585254
1351,1551.0,65.36545798368316
1352,1552.0,67.01361438694656
1353,1553.0,66.25008805128223
1354,1554.0,72.69404505128225
1355,1555.0,70.70313787878806
1356,1556.0,71.98741895804216
1357,1557.0,73.27589860372979
1358,1558.0,75.73697185081605
1359,1559.0,73.44764956643377
1360,1560.0,78.82280606060627
1361,1561.0,85.45919664102587
1362,1562.0,88.01551957808881
1363,1563.0,89.93605681818205
1364,1564.0,98.07934165734291
1365,1565.0,97.9351236363639
1366,1566.0,100.5949379230772
1367,1567.0,104.10667388111915
1368,1568.0,112.050996706294
1369,1569.0,115.04382715850846
1370,1570.0,120.59141124708655
1371,1571.0,131.9106950582754
1372,1572.0,142.1977454289048
1373,1573.0,159.20385173892817
1374,1574.0,180.9576356247091
1375,1575.0,203.03611075990727
1376,1576.0,229.28840689510548
1377,1577.0,259.5677461771569
1378,1578.0,294.2262335501173
1379,1579.0,326.5936698787887
1380,1580.0,359.94989961538556
1381,1581.0,392.3102280769241
1382,1582.0,409.4286469930081
1383,1583.0,419.3407027109568
1384,1584.0,414.6644788228449
1385,1585.0,400.41605187179596
1386,1586.0,380.32409149417356
1387,1587.0,355.92140541958133
1388,1588.0,332.8845621958051
1389,1589.0,317.6380603216792
1390,1590.0,310.4816024452222
1391,1591.0,306.5512536713295
1392,1592.0,306.35754564335747
1393,1593.0,316.199135172495
1394,1594.0,334.9960349860148
1395,1595.0,366.5990624405604
1396,1596.0,407.65364394871904
1397,1597.0,455.88086672494296
1398,1598.0,513.8138942004675
1399,1599.0,571.0573411142207
1400,1600.0,621.4831805011672
1401,1601.0,653.5393599883467
1402,1602.0,658.8246411142209
1403,1603.0,647.6860233986031
1404,1604.0,619.2480799883466
1405,1605.0,570.6093407878802
1406,1606.0,509.80013937529276
1407,1607.0,445.5476656689989
1408,1608.0,385.75987968997765
1409,1609.0,327.95801316550205
1410,1610.0,279.43484058974434
1411,1611.0,244.25122090209857
1412,1612.0,212.2675439463875
1413,1613.0,193.6608483986019
1414,1614.0,178.93830070629417
1415,1615.0,161.20202366200508
1416,1616.0,152.83741572960412
1417,1617.0,144.37456709557148
1418,1618.0,138.04853931468568
1419,1619.0,125.65558211655045
1420,1620.0,117.04577592307723
1421,1621.0,111.84363484149215
1422,1622.0,102.81633708391635
1423,1623.0,92.07224296736621
1424,1624.0,85.98001262937086
1425,1625.0,76.93980447785569
1426,1626.0,77.74701693473214
1427,1627.0,75.37225596969716
1428,1628.0,75.0224788951051
1429,1629.0,73.9428220186482
1430,1630.0,73.4623641025643
1431,1631.0,74.29098318648039
1432,1632.0,70.65622244055963
1433,1633.0,66.60234614685332
1434,1634.0,65.31597901631719
1435,1635.0,63.219806083916254
1436,1636.0,60.93483219114234
1437,1637.0,58.5449687412589
1438,1638.0,56.34051131701647
1439,1639.0,51.393960230769366
1440,1640.0,48.154229955711074
1441,1641.0,46.3998219813521
1442,1642.0,44.47964251748263
1443,1643.0,47.93526278787891
1444,1644.0,46.966548967366094
1445,1645.0,51.68817371561785
1446,1646.0,55.14477156410271
1447,1647.0,60.71657242890459
1448,1648.0,60.42842241724958
1449,1649.0,57.337169526806676
1450,1650.0,57.70744858741274
1451,1651.0,53.34397551981366
1452,1652.0,53.44298644055958
1453,1653.0,53.739494321678464
1454,1654.0,51.721667643356774
1455,1655.0,51.00551259906774
1456,1656.0,49.80154335897449
1457,1657.0,49.13711732167846
1458,1658.0,44.681097165501285
1459,1659.0,43.71090002564114
1460,1660.0,44.53317052447564
1461,1661.0,42.52230210023321
1462,1662.0,42.38198137529149
1463,1663.0,40.544743361305464
1464,1664.0,40.029945375291476
1465,1665.0,40.16624480885791
1466,1666.0,39.1920696013987
1467,1667.0,39.96307221678332
1468,1668.0,41.82382062470874
1469,1669.0,44.79356811655023
1470,1670.0,46.14556905594418
1471,1671.0,45.00167624941737
1472,1672.0,43.705057958042076
1473,1673.0,42.51911097435909
1474,1674.0,42.24408172261083
1475,1675.0,43.84892705594417
1476,1676.0,45.81225173426586
1477,1677.0,51.83668463403277
1478,1678.0,53.925563102564254
1479,1679.0,50.77241768531482
1480,1680.0,51.12745745920759
1481,1681.0,50.783555815850946
1482,1682.0,53.839633655011795
1483,1683.0,52.840549685314826
1484,1684.0,50.43336561305375
1485,1685.0,50.401909631701756
1486,1686.0,51.68095538461552
1487,1687.0,48.79476024009337
1488,1688.0,44.14959599300711
1489,1689.0,37.43961565268074
1490,1690.0,38.84521586713297
1491,1691.0,39.113267806526906
1492,1692.0,42.38889687412599
1493,1693.0,41.57627666899778
1494,1694.0,45.259826275058394
1495,1695.0,42.73332005128216
1496,1696.0,44.284504214452326
1497,1697.0,41.999515174825284
1498,1698.0,44.37372954312366
1499,1699.0,40.73313968065278
1500,1700.0,42.92061445687657
1501,1701.0,41.319993344988454
1502,1702.0,42.602190097902216
1503,1703.0,43.65563845920757
1504,1704.0,45.69583872727285
1505,1705.0,43.097006941725056
1506,1706.0,46.80592808624721
1507,1707.0,46.2847362797204
1508,1708.0,45.64494150815863
1509,1709.0,43.05418570862483
1510,1710.0,38.05669459207469
1511,1711.0,33.70499907925417
1512,1712.0,32.68456262237771
1513,1713.0,30.127761496503574
1514,1714.0,33.27715837296046
1515,1715.0,35.992381797202896
1516,1716.0,37.98850610489521
1517,1717.0,42.11247982051293
1518,1718.0,46.309056790209915
1519,1719.0,50.78962722377636
1520,1720.0,48.296340286713416
1521,1721.0,46.410372344988474
1522,1722.0,42.69910745221456
1523,1723.0,38.32572686247096
1524,1724.0,34.405495932401024
1525,1725.0,33.556688405594485
1526,1726.0,33.39352578088587
1527,1727.0,39.10409104662015
1528,1728.0,42.39987513286725
1529,1729.0,46.895385372960504
1530,1730.0,44.922672419580536
1531,1731.0,42.31011856410268
1532,1732.0,42.13484749883462
1533,1733.0,38.27544886247097
1534,1734.0,33.61765148251757
1535,1735.0,32.69910544289053
1536,1736.0,29.68890466666674
1537,1737.0,30.72749523776232
1538,1738.0,32.28005308624717
1539,1739.0,33.895710969697056
1540,1740.0,35.699556976690076
1541,1741.0,37.78899647319357
1542,1742.0,39.44125805594416
1543,1743.0,40.14701939860151
1544,1744.0,36.83446848251758
1545,1745.0,35.31915707692317
1546,1746.0,32.71067965268074
1547,1747.0,31.808624484848565
1548,1748.0,35.447715699300794
1549,1749.0,34.524422554778646
1550,1750.0,38.61613458041968
1551,1751.0,43.81312610489522
1552,1752.0,47.00264324475536
1553,1753.0,48.75773042424255
1554,1754.0,48.61592260839174
1555,1755.0,49.608517864801996
1556,1756.0,44.39572595571107
1557,1757.0,38.5023924988346
1558,1758.0,38.85199365967376
1559,1759.0,36.06527375990686
1560,1760.0,37.04819432634042
1561,1761.0,37.31934169930079
1562,1762.0,36.37478278321688
1563,1763.0,32.67398726340335
1564,1764.0,34.972251904429
1565,1765.0,34.08747134498843
1566,1766.0,34.12813536829846
1567,1767.0,36.53928206526817
1568,1768.0,44.93841921212133
1569,1769.0,48.3895829743591
1570,1770.0,48.37334688578102
1571,1771.0,46.77254533799546
1572,1772.0,48.50960618881132
1573,1773.0,46.81732571794884
1574,1774.0,47.41333534032647
1575,1775.0,44.820515748251864
1576,1776.0,41.46795804428916
1577,1777.0,37.15090551981362
1578,1778.0,34.55988262937072
1579,1779.0,30.72542308857817
1580,1780.0,26.26178241258748
1581,1781.0,26.18551424009331
1582,1782.0,32.98933607459216
1583,1783.0,37.97851608857819
1584,1784.0,42.26451918414929
1585,1785.0,43.755519384615496
1586,1786.0,39.45611688811199
1587,1787.0,39.249784841491945
1588,1788.0,41.911661727272836
1589,1789.0,43.09837574125885
1590,1790.0,42.20428369930081
1591,1791.0,40.18043441025651
1592,1792.0,39.68127471561782
1593,1793.0,41.50160571561783
1594,1794.0,42.209552846153954
1595,1795.0,37.184735041958135
1596,1796.0,34.4200384125875
1597,1797.0,38.43960765734276
1598,1798.0,42.531359967366086
1599,1799.0,39.93375303962715
1600,1800.0,39.06019347785558
1601,1801.0,39.548138331002434
1602,1802.0,41.317309041958154
1603,1803.0,45.98577182517495
1604,1804.0,43.82108423076935
1605,1805.0,43.04015967365979
1606,1806.0,43.59500633333345
1607,1807.0,46.4477366783218
1608,1808.0,43.66084051981363
1609,1809.0,34.59358950349659
1610,1810.0,33.357314289044375
1611,1811.0,37.166570759906854
1612,1812.0,34.94774638461547
1613,1813.0,35.826123258741355
1614,1814.0,33.13004430303039
1615,1815.0,39.96572724242435
1616,1816.0,42.878009074592185
1617,1817.0,47.34863285314698
1618,1818.0,48.23152075291388
1619,1819.0,47.62651312121224
1620,1820.0,54.91137661305376
1621,1821.0,55.66593262470877
1622,1822.0,50.42333083216796
1623,1823.0,49.473918578088714
1624,1824.0,44.61874392074604
1625,1825.0,43.71686121678333
1626,1826.0,38.79331284615395
1627,1827.0,37.46108812587423
1628,1828.0,36.34465932867142
1629,1829.0,38.2640510000001
1630,1830.0,42.045290093240204
1631,1831.0,39.39624780419591
1632,1832.0,35.9518648041959
1633,1833.0,36.7081501002332
1634,1834.0,36.55243374592085
1635,1835.0,34.69167171561781
1636,1836.0,32.789692107226195
1637,1837.0,39.620954321678425
1638,1838.0,39.81613775757586
1639,1839.0,43.405931261072375
1640,1840.0,41.374838617715724
1641,1841.0,39.559225841491944
1642,1842.0,35.725038118881216
1643,1843.0,36.94005924242434
1644,1844.0,35.96373555710965
1645,1845.0,34.9390682074593
1646,1846.0,33.204820484848575
1647,1847.0,39.47388216083927
1648,1848.0,37.54519334498845
1649,1849.0,41.13113690909101
1650,1850.0,41.32685308391619
1651,1851.0,39.9717903986015
1652,1852.0,41.02770167365978
1653,1853.0,42.32093206060617
1654,1854.0,41.350786477855586
1655,1855.0,43.05055183682995
1656,1856.0,38.932286221445324
1657,1857.0,40.763307568764674
1658,1858.0,38.086569682983786
1659,1859.0,38.611642953380056
1660,1860.0,36.48813726107235
1661,1861.0,37.001874125874224
1662,1862.0,38.59445033566443
1663,1863.0,37.539666212121304
1664,1864.0,34.44690618881128
1665,1865.0,38.33336468531479
1666,1866.0,39.26318598368309
1667,1867.0,45.97969659207472
1668,1868.0,48.283679321678456
1669,1869.0,49.49434879953393
1670,1870.0,51.014547207459344
1671,1871.0,50.46457014219128
1672,1872.0,47.9702645687647
1673,1873.0,41.17182981351992
1674,1874.0,37.967734571095676
1675,1875.0,37.788745104895206
1676,1876.0,32.97433038461547
1677,1877.0,36.87311768531478
1678,1878.0,35.24476613986023
1679,1879.0,30.624776228438307
1680,1880.0,28.97991563636371
1681,1881.0,29.732476610722692
1682,1882.0,33.017751501165584
1683,1883.0,37.72508012121222
1684,1884.0,42.19054275291386
1685,1885.0,46.23708504895117
1686,1886.0,44.359037424242544
1687,1887.0,48.878246822843955
1688,1888.0,47.041072738927866
1689,1889.0,41.523729925408034
1690,1890.0,42.3879252890444
1691,1891.0,41.81041808158519
1692,1892.0,38.408055205128306
1693,1893.0,41.752228755244865
1694,1894.0,41.18493900466211
1695,1895.0,42.47231109557121
1696,1896.0,38.89374129137539
1697,1897.0,39.75363816317027
1698,1898.0,38.79006662470873
1699,1899.0,39.387415839160944
1700,1900.0,38.566284153846254
1701,1901.0,37.938871377622476
1702,1902.0,36.81989113286723
1703,1903.0,37.181049356643456
1704,1904.0,36.02829868997678
1705,1905.0,29.95903647086255
1706,1906.0,30.506287703962784
1707,1907.0,34.334722473193565
1708,1908.0,34.42627009790219
1709,1909.0,40.81592666200477
1710,1910.0,39.49383585547796
1711,1911.0,40.73078224242435
1712,1912.0,40.94870106060617
1713,1913.0,42.26430333799544
1714,1914.0,42.038308958042066
1715,1915.0,38.070883034965135
1716,1916.0,43.247362121212234
1717,1917.0,46.08781770163182
1718,1918.0,49.367942275058404
1719,1919.0,51.99934556876471
1720,1920.0,45.766212296037416
1721,1921.0,43.36394421445233
1722,1922.0,40.35820336130546
1723,1923.0,41.76251432867144
1724,1924.0,41.77937206993018
1725,1925.0,37.92988258275068
1726,1926.0,37.913875053613154
1727,1927.0,36.59520186013996
1728,1928.0,40.59193703729615
1729,1929.0,37.62037352680663
1730,1930.0,36.1610293053614
1731,1931.0,38.656500627039726
1732,1932.0,37.8709921981353
1733,1933.0,42.19421170396282
1734,1934.0,45.16648006526819
1735,1935.0,43.89877897435909
1736,1936.0,43.86872811421924
1737,1937.0,41.04627531934743
1738,1938.0,41.297414365967484
1739,1939.0,38.611981004662105
1740,1940.0,38.07307201631712
1741,1941.0,36.44076486946396
1742,1942.0,33.94801538461547
1743,1943.0,34.06876903962713
1744,1944.0,38.60716424941735
1745,1945.0,40.127000717948825
1746,1946.0,42.104467983683094
1747,1947.0,40.95901322843834
1748,1948.0,41.60635555710967
1749,1949.0,38.175264405594504
1750,1950.0,34.94500057808867
1751,1951.0,33.463373358974444
1752,1952.0,37.183120463869564
1753,1953.0,39.109381158508256
1754,1954.0,44.298424053613175
1755,1955.0,41.577015692307796
1756,1956.0,43.13837630536142
1757,1957.0,40.65274409790221
1758,1958.0,39.860316489510595
1759,1959.0,40.28354005128216
1760,1960.0,43.18681942424254
1761,1961.0,39.74265360139871
1762,1962.0,45.25955264801877
1763,1963.0,40.64887441958052
1764,1964.0,38.1956766993008
1765,1965.0,36.656047666666765
1766,1966.0,33.495781165501256
1767,1967.0,26.602413454545523
1768,1968.0,28.664914128205204
1769,1969.0,32.272747212121295
1770,1970.0,35.611946312354405
1771,1971.0,29.726707729603806
1772,1972.0,31.966915557109637
1773,1973.0,30.35984468764576
1774,1974.0,36.488107379953476
1775,1975.0,42.025012174825285
1776,1976.0,39.980157659673765
1777,1977.0,37.185107540792636
1778,1978.0,37.6839235011656
1779,1979.0,39.54508246153857
1780,1980.0,42.21259889510501
1781,1981.0,41.285652799533906
1782,1982.0,38.02840563403274
1783,1983.0,39.010898878787984
1784,1984.0,44.569196020979135
1785,1985.0,43.21763419580431
1786,1986.0,41.129431086247195
1787,1987.0,38.88799454079264
1788,1988.0,36.35788145221454
1789,1989.0,34.97755817016326
1790,1990.0,35.93202106526816
1791,1991.0,37.12338899300709
1792,1992.0,35.34399408391617
1793,1993.0,34.84961274125884
1794,1994.0,33.1400045128206
1795,1995.0,30.06270444289052
1796,1996.0,28.344380452214516
1797,1997.0,28.7658245291376
1798,1998.0,32.28974637529144
1799,1999.0,39.87885569230775
1800,2000.0,52.49586218181825
