pixel_index,raman_shift_cm-1,intensity
0,200.000,11.983534258828854
1,201.000,13.26131770958284
2,202.000,19.752957855821478
3,203.000,25.616934057849846
4,204.000,7.9021646945908515
5,205.000,7.531469163557006
6,206.000,16.3168398808221
7,207.000,7.199765280993347
8,208.000,5.2021948171828285
9,209.000,20.41925496098014
10,210.000,9.355081202423662
11,211.000,15.308226049972916
12,212.000,13.706837030479846
13,213.000,10.734252689161394
14,214.000,9.699549589571006
15,215.000,17.69631231357073
16,216.000,16.472413461302835
17,217.000,4.351424651162176
18,218.000,8.342950519767442
19,219.000,7.486842721933726
20,220.000,10.088094930644104
21,221.000,28.70369483702143
22,222.000,8.473904150300314
23,223.000,16.36401759779943
24,224.000,5.574646924892477
25,225.000,17.357520894981235
26,226.000,1.1830012894665742
27,227.000,7.747920907720754
28,228.000,7.5303795670591285
29,229.000,16.36195510271233
30,230.000,1.523120367797901
31,231.000,17.577267233292332
32,232.000,15.485366588002876
33,233.000,-2.0144586614605373
34,234.000,2.6288944092866586
35,235.000,4.985616742375555
36,236.000,5.763148297655675
37,237.000,21.37516605266677
38,238.000,25.20343200261084
39,239.000,16.87375516032398
40,240.000,28.707306556248227
41,241.000,8.393820238403691
42,242.000,16.7980562723601
43,243.000,16.754998741208965
44,244.000,16.12280874553545
45,245.000,16.141935403390107
46,246.000,12.690007850260827
47,247.000,7.448369239045235
48,248.000,14.797858740021638
49,249.000,16.509290540821667
50,250.000,19.014402846401993
51,251.000,13.036325879016204
52,252.000,16.03822087818645
53,253.000,20.961000100675903
54,254.000,14.419338820460155
55,255.000,17.41742532869938
56,256.000,11.754468933709973
57,257.000,14.270071960937003
58,258.000,19.438155752925354
59,259.000,13.1275696692922
60,260.000,17.501391086698675
61,261.000,11.370231398821716
62,262.000,9.853729016326326
63,263.000,12.317886366837115
64,264.000,14.251802894910043
65,265.000,10.292593062004755
66,266.000,16.3421473464565
67,267.000,11.738948243447396
68,268.000,19.64197726497906
69,269.000,20.833093939844275
70,270.000,9.028058813598534
71,271.000,9.288208448532373
72,272.000,14.341084423643224
73,273.000,18.34175633460717
74,274.000,17.1104567937507
75,275.000,18.227329430023133
76,276.000,14.909220888967923
77,277.000,12.734180832694904
78,278.000,3.3979019398520904
79,279.000,17.996416905597755
80,280.000,27.920153441571927
81,281.000,17.346781275868693
82,282.000,14.655684153007883
83,283.000,16.062021833907068
84,284.000,13.897176095853297
85,285.000,13.046603732475205
86,286.000,12.25052355371497
87,287.000,16.4483103857998
88,288.000,13.2654570712142
89,289.000,1.5003634686719352
90,290.000,22.676123453087484
91,291.000,18.303027915548455
92,292.000,5.925466763287147
93,293.000,26.156372919652597
94,294.000,-3.706031675917643
95,295.000,18.256904932074576
96,296.000,4.0508967151598085
97,297.000,21.460860660872754
98,298.000,27.70003577272456
99,299.000,8.147558070174227
100,300.000,10.788266588600777
101,301.000,25.89603837927541
102,302.000,20.472305509332728
103,303.000,9.716925061743325
104,304.000,21.699139135285236
105,305.000,19.554238844516078
106,306.000,12.928710319744823
107,307.000,13.886989707003693
108,308.000,16.69210516802019
109,309.000,19.552135880188757
110,310.000,6.487571036543159
111,311.000,11.231384845727689
112,312.000,10.788383531969714
113,313.000,28.928407335051077
114,314.000,13.552337510280324
115,315.000,7.3099003284645505
116,316.000,10.88930807588116
117,317.000,6.778700054249839
118,318.000,7.598101580704565
119,319.000,15.238200987765254
120,320.000,20.815235623310002
121,321.000,10.328988850546693
122,322.000,15.974910047984963
123,323.000,16.340241609408338
124,324.000,17.312187943845572
125,325.000,13.865841475543391
126,326.000,14.633227643937516
127,327.000,21.952351903625072
128,328.000,24.45185272433656
129,329.000,16.538504590907394
130,330.000,6.908957003249839
131,331.000,22.210028476325476
132,332.000,13.17027354011634
133,333.000,21.73934373959719
134,334.000,7.710048634707505
135,335.000,5.876822800323225
136,336.000,11.870281826228563
137,337.000,10.704179317088176
138,338.000,9.861755892418842
139,339.000,27.26551818656145
140,340.000,17.51892984865276
141,341.000,14.771092542597671
142,342.000,20.836010947040677
143,343.000,26.203176755338006
144,344.000,21.96445267552957
145,345.000,21.29800943031063
146,346.000,14.45575675700394
147,347.000,29.885974407531478
148,348.000,15.148630148386417
149,349.000,9.195661760605105
150,350.000,17.31796103973892
151,351.000,16.59511579582579
152,352.000,9.35397885336289
153,353.000,17.71840505127784
154,354.000,17.43925824290085
155,355.000,12.517681295936654
156,356.000,18.03411309243637
157,357.000,17.69997352876942
158,358.000,13.26458251559552
159,359.000,17.700768977836162
160,360.000,21.1787748546472
161,361.000,5.4159300993901525
162,362.000,20.069052679604454
163,363.000,13.741359576979107
164,364.000,10.685813787324662
165,365.000,15.322216320545351
166,366.000,10.076063200610747
167,367.000,14.683682465527568
168,368.000,20.86666016731192
169,369.000,6.804779371960706
170,370.000,1.6486171594242478
171,371.000,23.167804623577354
172,372.000,18.079609872191895
173,373.000,18.008591026908164
174,374.000,28.266344223207284
175,375.000,11.147433610382791
176,376.000,12.684974351512551
177,377.000,13.424507623430827
178,378.000,15.5205476166999
179,379.000,14.992064535582415
180,380.000,14.52094859801258
181,381.000,11.203428035569004
182,382.000,26.220629093445666
183,383.000,17.164225030424348
184,384.000,15.237749118846637
185,385.000,22.88145464458529
186,386.000,7.027209907016584
187,387.000,22.303809218992228
188,388.000,8.73820890681094
189,389.000,17.220555310190377
190,390.000,10.837474782239667
191,391.000,20.363629689430184
192,392.000,9.157657411568664
193,393.000,18.91667834176826
194,394.000,13.198668886420762
195,395.000,21.14919346516831
196,396.000,12.679871510875671
197,397.000,10.662036469601787
198,398.000,22.731511800571752
199,399.000,7.378321976148698
200,400.000,17.835118481805807
201,401.000,18.08096681609834
202,402.000,15.87684049063489
203,403.000,20.43114103005024
204,404.000,15.537321971976326
205,405.000,17.030962867014864
206,406.000,20.05755527870889
207,407.000,18.11351078351464
208,408.000,17.77482597077352
209,409.000,21.22611844268414
210,410.000,8.299541814274107
211,411.000,10.083596713371662
212,412.000,15.850890780578084
213,413.000,23.29784066923935
214,414.000,12.478842045417878
215,415.000,15.90623058786457
216,416.000,21.731777987990768
217,417.000,24.609729949840187
218,418.000,20.7509301900605
219,419.000,20.455039437875655
220,420.000,20.43254543505759
221,421.000,6.976615935897996
222,422.000,12.814352707180376
223,423.000,18.44141352815194
224,424.000,9.071748190495668
225,425.000,4.804649498301558
226,426.000,7.091728268039503
227,427.000,22.553756328530312
228,428.000,8.309456520918275
229,429.000,21.14086869864235
230,430.000,26.723237727409014
231,431.000,7.164537485163237
232,432.000,15.276746862060804
233,433.000,11.27082676044023
234,434.000,11.833973094794771
235,435.000,11.710657791743984
236,436.000,5.375202790005744
237,437.000,17.77421704036857
238,438.000,10.65638150566258
239,439.000,17.942017160732576
240,440.000,15.279563992408896
241,441.000,13.768278999480003
242,442.000,13.736728192664032
243,443.000,14.29555959458088
244,444.000,13.872196239723849
245,445.000,19.879363174431944
246,446.000,18.109552456861536
247,447.000,18.538047156957987
248,448.000,18.67470835642831
249,449.000,19.396176148712016
250,450.000,23.383685638954205
251,451.000,24.82071194397645
252,452.000,19.192006192249096
253,453.000,22.17126652386355
254,454.000,11.049643090503253
255,455.000,14.582010055416617
256,456.000,20.79025459338817
257,457.000,10.918886890710667
258,458.000,17.677089145157368
259,459.000,19.71151756595316
260,460.000,11.29118737374722
261,461.000,6.447053800584683
262,462.000,13.946533089878073
263,463.000,4.4002644963799185
264,464.000,16.37841228615423
265,465.000,13.309986736548524
266,466.000,7.570633136165554
267,467.000,7.990559784835625
268,468.000,30.22950599358802
269,469.000,10.318985084623023
270,470.000,15.280031391284126
271,471.000,19.26976125802946
272,472.000,18.048455040404235
273,473.000,17.430591105012013
274,474.000,14.797186829487089
275,475.000,18.83526460246634
276,476.000,14.036991823560754
277,477.000,17.717211903327836
278,478.000,21.98012126324312
279,479.000,15.946537335672417
280,480.000,13.66231756384326
281,481.000,7.910593401817039
282,482.000,12.038804314461288
283,483.000,15.199396777420816
284,484.000,17.334193277090208
285,485.000,8.23297631058557
286,486.000,14.985432385716194
287,487.000,9.09958702095679
288,488.000,8.563996745419217
289,489.000,16.217468098824384
290,490.000,19.506497631474247
291,491.000,12.292698904223471
292,492.000,13.25151648845167
293,493.000,17.729582966035082
294,494.000,16.678378929318512
295,495.000,31.70795298108709
296,496.000,22.588033734538726
297,497.000,6.314032813255096
298,498.000,30.79888485117442
299,499.000,11.158161492562783
300,500.000,6.721635391986467
301,501.000,6.380729214283349
302,502.000,17.158111634535317
303,503.000,6.874080338039732
304,504.000,11.913659020281841
305,505.000,22.226696386905928
306,506.000,8.61094315368797
307,507.000,7.20453204650704
308,508.000,17.155144801317647
309,509.000,10.329816164121098
310,510.000,17.585311890937703
311,511.000,18.397004747778738
312,512.000,15.151405510618304
313,513.000,22.39015796536495
314,514.000,9.947159907834248
315,515.000,1.530472143719578
316,516.000,8.896412488565147
317,517.000,18.575331767737566
318,518.000,22.29059081639707
319,519.000,6.114458479470613
320,520.000,22.453936611622453
321,521.000,10.60720507722715
322,522.000,11.154579750341213
323,523.000,25.126929514674316
324,524.000,21.619155263561993
325,525.000,16.68200289993706
326,526.000,23.326475336301883
327,527.000,-1.3270925052995608
328,528.000,17.87042130668908
329,529.000,18.108746713309642
330,530.000,19.520745665061213
331,531.000,11.958115121871288
332,532.000,21.14735705306839
333,533.000,8.800916437353294
334,534.000,9.37460926277231
335,535.000,26.089475526687238
336,536.000,14.294183235748505
337,537.000,8.31909440586719
338,538.000,9.123911062185925
339,539.000,24.028233239052042
340,540.000,25.489257979988565
341,541.000,21.396904337666
342,542.000,13.666591373875463
343,543.000,15.967231159498965
344,544.000,16.68208377448252
345,545.000,12.453869307807508
346,546.000,17.684346857462288
347,547.000,12.291567530415477
348,548.000,20.22880044258568
349,549.000,17.89771271881534
350,550.000,11.26392249284197
351,551.000,8.249422907269036
352,552.000,19.950623113539564
353,553.000,27.73277827190725
354,554.000,12.928141551408089
355,555.000,25.9560231298326
356,556.000,31.39167519369755
357,557.000,9.497824938218173
358,558.000,9.790308567279908
359,559.000,19.803721293410263
360,560.000,17.296990337750344
361,561.000,7.3330969300272955
362,562.000,22.217421308526696
363,563.000,17.419513720062582
364,564.000,21.157533419951505
365,565.000,18.999374671983105
366,566.000,-0.8842432516076997
367,567.000,17.443097929831993
368,568.000,22.03717150534294
369,569.000,7.739610772328092
370,570.000,11.376974036523052
371,571.000,19.448359611968044
372,572.000,11.500013820980485
373,573.000,12.959553994125827
374,574.000,16.873063470190687
375,575.000,23.398607596153965
376,576.000,12.191275727158995
377,577.000,24.046904226484912
378,578.000,13.553934465519546
379,579.000,11.772368823730858
380,580.000,21.32327368863821
381,581.000,15.056339455785292
382,582.000,10.074169528711309
383,583.000,17.16118531892357
384,584.000,0.3775522458682872
385,585.000,9.82711773690346
386,586.000,18.428962227270745
387,587.000,13.926555160066755
388,588.000,20.20180398621494
389,589.000,28.930283164438492
390,590.000,8.98348316123122
391,591.000,12.868378450829596
392,592.000,7.998104515185219
393,593.000,12.107209843936175
394,594.000,24.104854934379432
395,595.000,15.648264291441706
396,596.000,13.021346427652816
397,597.000,16.793716863116288
398,598.000,27.321748125482145
399,599.000,20.208522749918643
400,600.000,21.60973227908346
401,601.000,18.507293263096585
402,602.000,30.564509259511397
403,603.000,24.691557833287106
404,604.000,22.90739455676089
405,605.000,44.03929800961885
406,606.000,23.6581967788685
407,607.000,29.75485045881078
408,608.000,39.470598651011755
409,609.000,45.96522596427474
410,610.000,40.750641014611574
411,611.000,57.4013724252153
412,612.000,63.84692082643153
413,613.000,70.9869038557307
414,614.000,73.75887915767987
415,615.000,96.17026938391416
416,616.000,105.26058619310948
417,617.000,141.91085425095378
418,618.000,160.02303923011948
419,619.000,187.19533381023427
420,620.000,188.54519167785486
421,621.000,177.71639352643717
422,622.000,152.51346105630876
423,623.000,129.10099297464137
424,624.000,111.64459099542194
425,625.000,99.0753488394248
426,626.000,75.52154523418415
427,627.000,62.39520991396489
428,628.000,53.42058261973523
429,629.000,58.81517309913875
430,630.000,46.16763410646536
431,631.000,37.407331402624436
432,632.000,42.1705737551157
433,633.000,28.502775938001946
434,634.000,18.526302731880378
435,635.000,32.99585392385438
436,636.000,31.805606307505855
437,637.000,16.148464682867143
438,638.000,23.084174856392337
439,639.000,14.313953640930094
440,640.000,19.552640855694904
441,641.000,13.025191326238769
442,642.000,22.924700884423487
443,643.000,19.036692368393233
444,644.000,28.01934362254474
445,645.000,26.85113549750099
446,646.000,18.966956850081715
447,647.000,16.94889154327643
448,648.000,25.43620644621535
449,649.000,18.00026143414209
450,650.000,16.771824388385312
451,651.000,12.08475719632986
452,652.000,17.147607751390183
453,653.000,8.186775952980724
454,654.000,20.71135070648893
455,655.000,16.168138923246488
456,656.000,19.930731520501354
457,657.000,11.475732421389921
458,658.000,15.658774554909087
459,659.000,17.94365785588684
460,660.000,14.708974264955827
461,661.000,13.770159728524504
462,662.000,25.97649419874915
463,663.000,13.881443633505228
464,664.000,6.83302599636022
465,665.000,10.015404256545025
466,666.000,10.42828438892559
467,667.000,16.017306373975316
468,668.000,11.696019197746864
469,669.000,18.63026985184365
470,670.000,22.32756733339272
471,671.000,18.826006645014786
472,672.000,19.717832794798596
473,673.000,9.590076796270523
474,674.000,14.683695668368387
475,675.000,10.981007435411698
476,676.000,21.07747912707464
477,677.000,15.270047778358048
478,678.000,13.484927429559889
479,679.000,24.537447126249276
480,680.000,11.470710919236694
481,681.000,7.047933864546621
482,682.000,9.740019023388982
483,683.000,12.434691462132037
484,684.000,5.42900925227309
485,685.000,14.93016147041078
486,686.000,13.000245198217499
487,687.000,8.299946522410778
488,688.000,12.084932534725226
489,689.000,22.353970331884398
490,690.000,12.61691101557301
491,691.000,29.698943692408307
492,692.000,9.602981473913019
493,693.000,20.1689184764856
494,694.000,10.627241821373673
495,695.000,7.495789634645007
496,696.000,26.495838047160078
497,697.000,12.586441194542886
498,698.000,23.381162217154724
499,699.000,20.92125626006373
500,700.000,11.841587473018876
501,701.000,2.0879830104206576
502,702.000,17.575484031292945
503,703.000,13.062831699256208
504,704.000,22.6877151824973
505,705.000,15.784549653743625
506,706.000,14.072327290233261
507,707.000,3.4571602736875775
508,708.000,10.320065790283365
509,709.000,18.51608003062438
510,710.000,13.775555189712918
511,711.000,9.922228466923002
512,712.000,15.14524806597035
513,713.000,27.54341419488628
514,714.000,6.903045065988067
515,715.000,1.0729808958516287
516,716.000,15.851022905283116
517,717.000,18.607883319291318
518,718.000,16.040609367058437
519,719.000,9.354622281913635
520,720.000,15.042850301303247
521,721.000,24.765614666763895
522,722.000,14.985759623893728
523,723.000,16.026970422324666
524,724.000,13.11894431569442
525,725.000,18.61714056161736
526,726.000,8.449160421658235
527,727.000,19.578473161301986
528,728.000,9.112079049927729
529,729.000,13.403454360778937
530,730.000,25.094263370936346
531,731.000,24.7136493612893
532,732.000,20.486932616508057
533,733.000,12.660844425015512
534,734.000,23.359603078959026
535,735.000,11.14048687418267
536,736.000,18.85704011019834
537,737.000,22.565767090158715
538,738.000,9.526056120828343
539,739.000,14.417793512555818
540,740.000,14.709031579245902
541,741.000,8.732535638330887
542,742.000,17.375645010742915
543,743.000,7.817038020886002
544,744.000,18.384108996607438
545,745.000,20.887455269170005
546,746.000,23.20912417322404
547,747.000,16.036123046778812
548,748.000,9.505260231175043
549,749.000,15.165072071056215
550,750.000,15.631760914340703
551,751.000,13.467143112194435
552,752.000,19.92003201900104
553,753.000,22.343657992335693
554,754.000,13.858781392935498
555,755.000,9.389539584672207
556,756.000,19.790515934524365
557,757.000,20.817698812547633
558,758.000,10.342651591849176
559,759.000,15.39549064855737
560,760.000,3.5390853617947187
561,761.000,7.124908113649326
562,762.000,13.445641289147488
563,763.000,13.476277276225005
564,764.000,32.90031346569913
565,765.000,8.557525251240577
566,766.000,12.679674029345506
567,767.000,20.542284199307005
568,768.000,21.609808163187722
569,769.000,13.42541532579105
570,770.000,18.514785094633567
571,771.000,17.960905879916368
572,772.000,33.33389409449774
573,773.000,22.13858915386413
574,774.000,18.851946476102967
575,775.000,16.272641481873507
576,776.000,17.170999594380305
577,777.000,18.012423239343207
578,778.000,15.618498844970873
579,779.000,23.675069841931418
580,780.000,17.64063666332561
581,781.000,28.762727744657127
582,782.000,37.11016952380646
583,783.000,37.7706824410011
584,784.000,26.987149938787866
585,785.000,46.530179462005435
586,786.000,49.384549457756066
587,787.000,59.104529375376615
588,788.000,56.103086666411514
589,789.000,61.059463784583954
590,790.000,67.31594418576833
591,791.000,89.61009532796197
592,792.000,86.64733567125631
593,793.000,94.24981767781026
594,794.000,113.23141181182064
595,795.000,102.3718425394951
596,796.000,96.19140232902316
597,797.000,102.65254565054931
598,798.000,86.30725997614354
599,799.000,85.93051977977393
600,800.000,71.60985453727915
601,801.000,60.60052072633869
602,802.000,48.42147582644668
603,803.000,34.66844631888239
604,804.000,45.71101268668292
605,805.000,44.08112341461435
606,806.000,33.51024898914454
607,807.000,38.08292089841473
608,808.000,29.518979632210858
609,809.000,28.573033681935726
610,810.000,23.420342540581714
611,811.000,31.65372970270198
612,812.000,17.692201664381628
613,813.000,8.3770219232116
614,814.000,27.80307097825812
615,815.000,24.65734833003694
616,816.000,9.016764480483403
617,817.000,15.629650932925415
618,818.000,15.771658192054929
619,819.000,20.265035763900073
620,820.000,14.56281515579667
621,821.000,26.468932876360668
622,822.000,12.648692435459566
623,823.000,18.49670634418453
624,824.000,9.891124114822219
625,825.000,20.017117260826808
626,826.000,14.14412229679192
627,827.000,20.20094473842221
628,828.000,5.935994102505219
629,829.000,8.146928906884114
630,830.000,13.103738670428925
631,831.000,17.52963391300807
632,832.000,15.757546155461
633,833.000,18.879340919569586
634,834.000,19.302149728030827
635,835.000,13.573639104427457
636,836.000,18.355960573200605
637,837.000,13.300073659622512
638,838.000,8.47420888976626
639,839.000,24.753413790479726
640,840.000,9.886526889356901
641,841.000,19.492013714708946
642,842.000,14.351158795537344
643,843.000,10.298653661505114
644,844.000,16.564907842908383
645,845.000,4.512273870649096
646,846.000,19.87387327620661
647,847.000,3.063544591609343
648,848.000,13.064178349406575
649,849.000,6.721347082641273
650,850.000,3.0577143248206085
651,851.000,24.401081609889275
652,852.000,25.457600472200397
653,853.000,8.678157446487376
654,854.000,11.31077406783686
655,855.000,16.36723887165931
656,856.000,12.631030393661717
657,857.000,11.13066316981974
658,858.000,19.26289273634825
659,859.000,14.601259629675155
660,860.000,4.417655386411411
661,861.000,9.143231543324646
662,862.000,15.742554637309468
663,863.000,4.359310205360657
664,864.000,24.59224378454428
665,865.000,4.136605911969809
666,866.000,13.346132124761994
667,867.000,-1.9952480399668957
668,868.000,10.143952954854399
669,869.000,24.025343646228066
670,870.000,17.31443357105934
671,871.000,18.439851266128244
672,872.000,7.85952326806148
673,873.000,13.02623711330466
674,874.000,22.921920338093173
675,875.000,12.195293478426038
676,876.000,14.718958070035569
677,877.000,12.41628264836072
678,878.000,17.45189574851861
679,879.000,22.078166905276134
680,880.000,24.334228653022592
681,881.000,13.120652525740525
682,882.000,12.102178056978687
683,883.000,16.688804779823386
684,884.000,3.7265692268699695
685,885.000,1.7647899301960024
686,886.000,8.759934421331877
687,887.000,7.229467231233116
688,888.000,15.446268890252782
689,889.000,9.242106928112548
690,890.000,18.524208873875523
691,891.000,19.991329255917094
692,892.000,1.0936276018976514
693,893.000,-0.2680985612655604
694,894.000,9.645457292572587
695,895.000,3.2589256887583815
696,896.000,15.078958151809957
697,897.000,7.145535205389933
698,898.000,9.081639372276868
699,899.000,6.325839174337261
700,900.000,10.748835132497902
701,901.000,8.30543976671754
702,902.000,20.842685595957846
703,903.000,15.08438513815679
704,904.000,5.931598910199455
705,905.000,17.05455442789105
706,906.000,7.449155205927127
707,907.000,11.246405757867478
708,908.000,16.946935596106186
709,909.000,10.793054231844735
710,910.000,21.813965175063913
711,911.000,15.807382934494171
712,912.000,3.422915017590185
713,913.000,-0.04977906950011857
714,914.000,11.402872178038933
715,915.000,14.743232263660161
716,916.000,14.564454689428203
717,917.000,8.271973955988528
718,918.000,11.923812562541684
719,919.000,-2.1654609931863433
720,920.000,5.35719478502881
721,921.000,22.698375391880745
722,922.000,5.422116320505438
723,923.000,4.160287062452312
724,924.000,16.461409107656095
725,925.000,11.325007944409094
726,926.000,7.84282805933276
727,927.000,24.86895893734993
728,928.000,8.764301061656852
729,929.000,8.483180913694014
730,930.000,20.801456973119798
731,931.000,15.553137717780714
732,932.000,11.268140623684303
733,933.000,17.243037164970474
734,934.000,11.959194813883983
735,935.000,11.330535040745644
736,936.000,17.695046313925104
737,937.000,18.448493099811685
738,938.000,13.04608286278733
739,939.000,16.8731860651975
740,940.000,26.61071716732397
741,941.000,15.979517627356358
742,942.000,14.526621901363455
743,943.000,12.045660443266456
744,944.000,17.25297970480949
745,945.000,9.459368135532713
746,946.000,8.392114182742489
747,947.000,8.273857291485797
748,948.000,18.140697904519584
749,949.000,5.212033462284694
750,950.000,14.640230402876341
751,951.000,13.702595162016564
752,952.000,10.193167173026723
753,953.000,19.764429866797855
754,954.000,26.81836767176435
755,955.000,6.376037013874679
756,956.000,12.144803316563639
757,957.000,17.610207000724017
758,958.000,13.521605484679299
759,959.000,27.079681184154538
760,960.000,17.44406151224871
761,961.000,20.360844879407068
762,962.000,20.85540869339195
763,963.000,25.24282735925567
764,964.000,16.008131279312124
765,965.000,22.7640168531085
766,966.000,18.865142477397058
767,967.000,25.585179546107838
768,968.000,28.075504450319954
769,969.000,26.63378457823262
770,970.000,23.439245315139146
771,971.000,26.942319043396992
772,972.000,33.7784681424007
773,973.000,15.972887988552998
774,974.000,26.31829495523732
775,975.000,25.761414412789918
776,976.000,16.405875728470733
777,977.000,25.064937266436345
778,978.000,25.142571387711314
779,979.000,31.48830945016016
780,980.000,35.46945180845944
781,981.000,26.647736814069503
782,982.000,34.37442681520622
783,983.000,34.48242915681362
784,984.000,43.78606418053471
785,985.000,42.78456922468422
786,986.000,50.68886962421959
787,987.000,53.18696771071427
788,988.000,68.72123081232871
789,989.000,80.25619425378204
790,990.000,80.26310135632423
791,991.000,98.97461243770897
792,992.000,107.2405368121631
793,993.000,135.4220827903614
794,994.000,164.05797767939703
795,995.000,206.09860478275266
796,996.000,282.59095440027454
797,997.000,374.49433682814185
798,998.000,513.1959773588411
799,999.000,706.1591422811358
800,1000.000,908.5797208800403
801,1001.000,1011.2749694367898
802,1002.000,906.262077228814
803,1003.000,717.3993165297077
804,1004.000,517.8245096092037
805,1005.000,375.029962733144
806,1006.000,289.17141416345146
807,1007.000,221.72836615810297
808,1008.000,168.63106397109993
809,1009.000,150.19294785244097
810,1010.000,119.54366404809389
811,1011.000,107.53674279996642
812,1012.000,99.6749243458803
813,1013.000,89.24992391954083
814,1014.000,65.10684475051062
815,1015.000,68.50437706417972
816,1016.000,80.84640608173959
817,1017.000,64.63951302015289
818,1018.000,68.36882309212729
819,1019.000,77.07783550608588
820,1020.000,72.12713746613986
821,1021.000,78.5729231720602
822,1022.000,85.62892181924963
823,1023.000,101.30155859871502
824,1024.000,117.67464369703703
825,1025.000,129.4770792963459
826,1026.000,161.9673775742899
827,1027.000,198.96849970400876
828,1028.000,251.79104285410608
829,1029.000,337.2734131886182
830,1030.000,400.12961686699146
831,1031.000,439.9848580440489
832,1032.000,404.49037886996484
833,1033.000,336.6644354902369
834,1034.000,257.1952940456556
835,1035.000,206.15351867227923
836,1036.000,151.73014550140442
837,1037.000,121.812601659537
838,1038.000,94.0770822683653
839,1039.000,83.86579544473284
840,1040.000,81.50820430060753
841,1041.000,59.308038943055635
842,1042.000,58.3032804742129
843,1043.000,50.457708991257505
844,1044.000,42.093200586380135
845,1045.000,36.85804234675743
846,1046.000,40.09322935452337
847,1047.000,27.768617686740754
848,1048.000,20.24887941537395
849,1049.000,39.10597660726012
850,1050.000,30.531340324081157
851,1051.000,37.50798262233616
852,1052.000,25.24113255331281
853,1053.000,23.915382163058666
854,1054.000,27.806446492355235
855,1055.000,26.670634576687235
856,1056.000,27.7687284462163
857,1057.000,19.584968125752084
858,1058.000,19.053654634724353
859,1059.000,15.002095987155144
860,1060.000,20.453386191629306
861,1061.000,24.39126625126937
862,1062.000,16.66460616370364
863,1063.000,11.027294921042085
864,1064.000,32.69171450984345
865,1065.000,14.142554911092702
866,1066.000,27.08589910016849
867,1067.000,21.28333504681723
868,1068.000,9.26417071512401
869,1069.000,14.48999606348525
870,1070.000,24.913509044580906
871,1071.000,28.19361360534458
872,1072.000,14.261034686936227
873,1073.000,9.012726224716744
874,1074.000,17.28473814821541
875,1075.000,19.579330381104228
876,1076.000,16.43544884117
877,1077.000,9.687754440285971
878,1078.000,11.26258408438298
879,1079.000,24.141327673421756
880,1080.000,12.968019101365144
881,1081.000,14.876157256149781
882,1082.000,13.32860901965887
883,1083.000,2.572542267691233
884,1084.000,22.970930869937092
885,1085.000,13.484451689947264
886,1086.000,20.094485585105758
887,1087.000,11.165124406602217
888,1088.000,16.029678999402904
889,1089.000,14.80870420222368
890,1090.000,24.447913847500786
891,1091.000,12.420989761363444
892,1092.000,23.885071763605993
893,1093.000,11.670468667658497
894,1094.000,18.67667228056007
895,1095.000,11.528369402930593
896,1096.000,17.94562682894184
897,1097.000,15.43941434628914
898,1098.000,14.262443736165324
899,1099.000,24.004519773230413
900,1100.000,22.52672522558396
901,1101.000,17.437551854738103
902,1102.000,9.313726415588462
903,1103.000,14.539782656385796
904,1104.000,6.039145318709188
905,1105.000,16.72082713743589
906,1106.000,5.790970840716227
907,1107.000,18.72485314994219
908,1108.000,21.76213377972158
909,1109.000,15.706958437848925
910,1110.000,9.124245825277967
911,1111.000,18.575131636093374
912,1112.000,21.385307557481156
913,1113.000,23.50259526970399
914,1114.000,16.158106446069723
915,1115.000,20.95326275290472
916,1116.000,7.619478849526786
917,1117.000,19.79552338821327
918,1118.000,8.87897801417921
919,1119.000,21.384419365542726
920,1120.000,22.638936073301238
921,1121.000,8.414632761301391
922,1122.000,20.07743504621226
923,1123.000,22.18985453749565
924,1124.000,29.593215837379603
925,1125.000,32.457723540828965
926,1126.000,15.257610235518314
927,1127.000,27.988971501803007
928,1128.000,10.630111912691973
929,1129.000,9.621865033819404
930,1130.000,14.258646423415257
931,1131.000,20.582227632279
932,1132.000,26.418231203750793
933,1133.000,20.16987267368404
934,1134.000,23.403903570415196
935,1135.000,21.096828414737956
936,1136.000,29.769138719874263
937,1137.000,17.79511499144678
938,1138.000,31.414789727449715
939,1139.000,29.780422418220724
940,1140.000,32.67106854641429
941,1141.000,28.494121586972597
942,1142.000,41.86515500709652
943,1143.000,35.34173026622011
944,1144.000,27.944536815979518
945,1145.000,36.68071210018775
946,1146.000,51.87620455480351
947,1147.000,54.975172607905506
948,1148.000,63.398021679663316
949,1149.000,75.59481018231054
950,1150.000,89.97113052011423
951,1151.000,101.40841408934898
952,1152.000,119.31123827826718
953,1153.000,133.48027346707408
954,1154.000,140.60464402789466
955,1155.000,148.46684132475025
956,1156.000,147.33168671352723
957,1157.000,133.03492554195168
958,1158.000,126.13796814955799
959,1159.000,90.85511886766335
960,1160.000,84.9915910193397
961,1161.000,80.00169091938324
962,1162.000,62.90231287428924
963,1163.000,59.41742718222122
964,1164.000,53.38809713298565
965,1165.000,43.254257008001105
966,1166.000,46.33049608027227
967,1167.000,45.4976696143608
968,1168.000,27.194496866357213
969,1169.000,40.86975808385387
970,1170.000,58.987958505914776
971,1171.000,46.753346363049104
972,1172.000,37.11962887718346
973,1173.000,36.01518126163296
974,1174.000,61.57932672107222
975,1175.000,47.974357451508695
976,1176.000,57.05255764025492
977,1177.000,57.00365946589841
978,1178.000,74.07274609827573
979,1179.000,96.1830646984431
980,1180.000,102.8404264186488
981,1181.000,114.33187440230427
982,1182.000,130.41136378395709
983,1183.000,146.30643068926292
984,1184.000,134.17376123495592
985,1185.000,112.25211852882262
986,1186.000,94.52250666967257
987,1187.000,76.66595074730913
988,1188.000,78.41546484250512
989,1189.000,59.774669026971196
990,1190.000,43.471304363328954
991,1191.000,42.01480790508185
992,1192.000,36.41139269658947
993,1193.000,32.993137773037915
994,1194.000,38.08124216041074
995,1195.000,18.040615875462663
996,1196.000,26.443116925690447
997,1197.000,22.743144309305308
998,1198.000,25.47517601520417
999,1199.000,23.232885022942128
1000,1200.000,27.008659302704245
1001,1201.000,24.11877381527779
1002,1202.000,22.1554155120225
1003,1203.000,21.293552334845117
1004,1204.000,28.247854216168435
1005,1205.000,20.9030060789064
1006,1206.000,26.748705836432464
1007,1207.000,13.312237392554835
1008,1208.000,10.876335641485412
1009,1209.000,14.376499467813801
1010,1210.000,20.729759746478976
1011,1211.000,24.13722534273984
1012,1212.000,7.347173112148312
1013,1213.000,4.859219900521111
1014,1214.000,20.86066354391096
1015,1215.000,16.50256986857903
1016,1216.000,1.3672286909682043
1017,1217.000,11.925200817671112
1018,1218.000,20.06232604540628
1019,1219.000,13.324274160987443
1020,1220.000,10.614377941297107
1021,1221.000,6.667419153256333
1022,1222.000,9.318516553798418
1023,1223.000,3.39526588984063
1024,1224.000,17.777604898255504
1025,1225.000,9.322027305842994
1026,1226.000,18.705383829301127
1027,1227.000,8.662891175201366
1028,1228.000,13.75309403995675
1029,1229.000,7.69570010979578
1030,1230.000,21.859643060733333
1031,1231.000,15.509728558544111
1032,1232.000,25.147263258732437
1033,1233.000,16.06741880650611
1034,1234.000,14.201674836745951
1035,1235.000,10.486221973981856
1036,1236.000,11.1661878323589
1037,1237.000,8.814896015614295
1038,1238.000,20.36222111704751
1039,1239.000,21.60498571949006
1040,1240.000,14.733202395281523
1041,1241.000,7.173871706238515
1042,1242.000,19.383586203626464
1043,1243.000,27.04099942813309
1044,1244.000,23.142328909841126
1045,1245.000,12.656941168195317
1046,1246.000,10.753234711981122
1047,1247.000,7.19685303929009
1048,1248.000,11.893434637498103
1049,1249.000,17.199632983231595
1050,1250.000,19.25515554234221
1051,1251.000,14.916783769879203
1052,1252.000,14.802199110060883
1053,1253.000,21.856703996244278
1054,1254.000,13.833418850900216
1055,1255.000,7.625939085583923
1056,1256.000,2.6620691009068196
1057,1257.000,15.354698286508437
1058,1258.000,12.993686021028225
1059,1259.000,8.167028672078004
1060,1260.000,9.757678596212827
1061,1261.000,9.224262138904123
1062,1262.000,5.937754634510611
1063,1263.000,17.756604406251427
1064,1264.000,22.146988766176037
1065,1265.000,6.674936015138428
1066,1266.000,19.233011442766383
1067,1267.000,21.845699327436705
1068,1268.000,1.2305879362434098
1069,1269.000,6.622787524973091
1070,1270.000,22.308588338074742
1071,1271.000,0.2874246086312269
1072,1272.000,10.872802558334115
1073,1273.000,-4.126921602549146
1074,1274.000,5.484528324801204
1075,1275.000,18.86020852772799
1076,1276.000,10.444955182065996
1077,1277.000,4.068143452118193
1078,1278.000,17.654924490624126
1079,1279.000,15.507626438735315
1080,1280.000,6.5095194259831715
1081,1281.000,12.208034570253176
1082,1282.000,12.394395977757995
1083,1283.000,5.622124743006452
1084,1284.000,7.649758948777162
1085,1285.000,8.779623666090401
1086,1286.000,24.562850954178884
1087,1287.000,10.453438860462938
1088,1288.000,11.028955420516922
1089,1289.000,9.520876658045381
1090,1290.000,9.194736584854354
1091,1291.000,8.572815200822106
1092,1292.000,27.64358749387111
1093,1293.000,11.515473439941388
1094,1294.000,6.06223300296142
1095,1295.000,8.907584134819217
1096,1296.000,14.283625775335622
1097,1297.000,4.043517852235027
1098,1298.000,21.284483281119037
1099,1299.000,15.837043965436578
1100,1300.000,22.19622179645671
1101,1301.000,10.728965653239584
1102,1302.000,6.72041940260965
1103,1303.000,18.75221089912702
1104,1304.000,5.236150985059112
1105,1305.000,20.418266490353062
1106,1306.000,5.458099232606173
1107,1307.000,10.453004017040257
1108,1308.000,4.86443463647106
1109,1309.000,8.82265587128245
1110,1310.000,8.880139489396015
1111,1311.000,13.615061246246114
1112,1312.000,5.9930108847470365
1113,1313.000,7.687868135269582
1114,1314.000,7.563613715610245
1115,1315.000,15.08432133096403
1116,1316.000,19.065897673897098
1117,1317.000,19.648204424315963
1118,1318.000,5.028526249442621
1119,1319.000,12.68766680378485
1120,1320.000,9.164335729109098
1121,1321.000,11.843805654408698
1122,1322.000,19.336475195881803
1123,1323.000,12.027283956899055
1124,1324.000,10.498551527976133
1125,1325.000,16.455231486746698
1126,1326.000,15.938837397932502
1127,1327.000,18.298224813319393
1128,1328.000,8.106074271722719
1129,1329.000,13.889745298964499
1130,1330.000,23.651904407844086
1131,1331.000,15.559672098108877
1132,1332.000,24.21064385642785
1133,1333.000,3.1197201563600174
1134,1334.000,5.090753458332301
1135,1335.000,20.341993209606244
1136,1336.000,4.07780884425074
1137,1337.000,12.163436783116822
1138,1338.000,4.13668743380731
1139,1339.000,19.98626919064759
1140,1340.000,7.583215434659678
1141,1341.000,14.830165533533545
1142,1342.000,5.320192841599464
1143,1343.000,9.129129699797659
1144,1344.000,16.43813343565307
1145,1345.000,27.994094363246177
1146,1346.000,20.24047778318345
1147,1347.000,12.587246982572196
1148,1348.000,16.637440234988617
1149,1349.000,19.274509800454553
1150,1350.000,14.660313925404807
1151,1351.000,1.7903508426613826
1152,1352.000,25.635457771405527
1153,1353.000,27.353589917148156
1154,1354.000,7.583040471703725
1155,1355.000,19.293831613160364
1156,1356.000,19.291480505852405
1157,1357.000,19.30982230033237
1158,1358.000,18.94445613334392
1159,1359.000,9.136096127790552
1160,1360.000,18.474199392711853
1161,1361.000,17.412917023251794
1162,1362.000,5.472714100633084
1163,1363.000,7.557298692126778
1164,1364.000,22.896161851026136
1165,1365.000,7.573575616617518
1166,1366.000,6.721591014153546
1167,1367.000,10.301668054822358
1168,1368.000,13.155235735721817
1169,1369.000,10.071900039831917
1170,1370.000,10.744685935984307
1171,1371.000,6.251858378835323
1172,1372.000,16.84720330883829
1173,1373.000,27.76744365221475
1174,1374.000,19.215869320928505
1175,1375.000,17.81127421265296
1176,1376.000,18.24559321074753
1177,1377.000,13.315910184227732
1178,1378.000,19.826147987736704
1179,1379.000,4.456421461518175
1180,1380.000,17.972834431386218
1181,1381.000,14.14005170869973
1182,1382.000,23.049757090335106
1183,1383.000,9.590530358653496
1184,1384.000,15.333872281475351
1185,1385.000,23.786491612054533
1186,1386.000,12.29966408904852
1187,1387.000,11.344685436487907
1188,1388.000,12.92514036374996
1189,1389.000,19.15437256553446
1190,1390.000,26.614587721827775
1191,1391.000,11.12814349788232
1192,1392.000,1.6932895441834717
1193,1393.000,16.57672349642371
1194,1394.000,10.949250975473888
1195,1395.000,22.341728587355874
1196,1396.000,12.359392923211317
1197,1397.000,9.046433559279876
1198,1398.000,12.256172056864443
1199,1399.000,13.913009962307115
1200,1400.000,14.496418806959127
1201,1401.000,13.980099107153592
1202,1402.000,13.714682364178088
1203,1403.000,18.32888306424502
1204,1404.000,8.949498678464806
1205,1405.000,11.76844766281647
1206,1406.000,21.133989458121732
1207,1407.000,20.073461490012505
1208,1408.000,23.671986168909143
1209,1409.000,16.2651328899874
1210,1410.000,18.858671033152405
1211,1411.000,23.647915963008927
1212,1412.000,18.326461028835865
1213,1413.000,25.541684564556135
1214,1414.000,24.015615888708908
1215,1415.000,7.030718304421498
1216,1416.000,31.175531099381487
1217,1417.000,16.000019545810346
1218,1418.000,25.275809900431113
1219,1419.000,28.86008440444357
1220,1420.000,24.464002283496484
1221,1421.000,15.300659747658301
1222,1422.000,23.50855799138776
1223,1423.000,28.44046619350752
1224,1424.000,27.25089151717566
1225,1425.000,26.578678109859766
1226,1426.000,36.31229610330411
1227,1427.000,29.128232613504224
1228,1428.000,38.3763677406796
1229,1429.000,40.02284656924644
1230,1430.000,42.971202167783986
1231,1431.000,39.44810058901248
1232,1432.000,37.89577986976224
1233,1433.000,40.59739203094841
1234,1434.000,39.22068007753683
1235,1435.000,44.16616599852159
1236,1436.000,45.467361766895465
1237,1437.000,49.02990433962145
1238,1438.000,64.6219686576037
1239,1439.000,81.44873064565991
1240,1440.000,83.10358121249487
1241,1441.000,94.40836825067186
1242,1442.000,110.69483463658139
1243,1443.000,125.0185132304166
1244,1444.000,136.98265187614538
1245,1445.000,150.4095194014801
1246,1446.000,181.62255261784912
1247,1447.000,186.08824332037148
1248,1448.000,216.24757728782743
1249,1449.000,225.18797428262883
1250,1450.000,234.02655205079395
1251,1451.000,217.17147532191666
1252,1452.000,205.6632708091397
1253,1453.000,196.36122320912796
1254,1454.000,179.43664720203583
1255,1455.000,158.0098354514837
1256,1456.000,146.19799560452907
1257,1457.000,127.00893829163692
1258,1458.000,105.17340812665157
1259,1459.000,92.14852570676999
1260,1460.000,82.15703761251234
1261,1461.000,79.06844040769556
1262,1462.000,62.1270896394044
1263,1463.000,59.30417383796089
1264,1464.000,42.16190951690169
1265,1465.000,56.45208317294441
1266,1466.000,53.97718628596476
1267,1467.000,39.92309431896092
1268,1468.000,30.021862718033844
1269,1469.000,39.775648912355564
1270,1470.000,48.950652314138324
1271,1471.000,33.23741331861174
1272,1472.000,29.51924830399139
1273,1473.000,38.58723463145043
1274,1474.000,20.94816064509314
1275,1475.000,34.76528667192633
1276,1476.000,36.2287860218305
1277,1477.000,34.35880598753465
1278,1478.000,17.673446844580667
1279,1479.000,20.90214985130592
1280,1480.000,28.63905424880727
1281,1481.000,26.213731260914983
1282,1482.000,31.413361094164657
1283,1483.000,20.821885937771867
1284,1484.000,24.055035963599494
1285,1485.000,27.668598326131587
1286,1486.000,17.99576516244656
1287,1487.000,26.002285592187718
1288,1488.000,15.175861717535781
1289,1489.000,24.72711162317978
1290,1490.000,28.09104437628912
1291,1491.000,22.29926002648608
1292,1492.000,20.854585605820148
1293,1493.000,4.890532128734321
1294,1494.000,17.90389359204096
1295,1495.000,15.956204974893126
1296,1496.000,22.98049423875659
1297,1497.000,11.216464327380436
1298,1498.000,13.225542166768946
1299,1499.000,15.113335665155773
1300,1500.000,12.231183712975053
1301,1501.000,19.721963182831814
1302,1502.000,12.595247929473771
1303,1503.000,6.785511789764769
1304,1504.000,16.192003582657208
1305,1505.000,23.049999109162854
1306,1506.000,22.141085152322148
1307,1507.000,14.148080477181338
1308,1508.000,17.93012583076211
1309,1509.000,17.814806942029918
1310,1510.000,25.56102452187247
1311,1511.000,12.714169263065287
1312,1512.000,20.416755840249834
1313,1513.000,15.429087909899863
1314,1514.000,12.69921711029474
1315,1515.000,24.83096406149525
1316,1516.000,20.40535336531002
1317,1517.000,7.94123860527111
1318,1518.000,23.812159346603266
1319,1519.000,20.108374136197654
1320,1520.000,19.187945502584853
1321,1521.000,16.031263955903796
1322,1522.000,17.0767759878745
1323,1523.000,23.270815071771494
1324,1524.000,22.618996662396057
1325,1525.000,22.148171196043222
1326,1526.000,25.088384090480304
1327,1527.000,30.96689474491518
1328,1528.000,7.587526539968167
1329,1529.000,15.592430837645225
1330,1530.000,35.73830198130804
1331,1531.000,12.447009295648513
1332,1532.000,19.63524708665841
1333,1533.000,9.99687864160228
1334,1534.000,12.749380228987548
1335,1535.000,13.66147309854091
1336,1536.000,3.873360481176178
1337,1537.000,6.121525588966506
1338,1538.000,23.147704615116936
1339,1539.000,21.709237733937925
1340,1540.000,16.29481010081463
1341,1541.000,20.15217685218022
1342,1542.000,10.793246105487697
1343,1543.000,15.457441959181779
1344,1544.000,13.320541492670827
1345,1545.000,25.658710766296963
1346,1546.000,20.4181688213107
1347,1547.000,30.923528679843685
1348,1548.000,21.417131344875088
1349,1549.000,22.11722880020784
1350,1550.000,12.991278010441874
1351,1551.000,16.624609920943158
1352,1552.000,23.994062457814607
1353,1553.000,11.687961527869902
1354,1554.000,33.81057901860686
1355,1555.000,24.49861679817741
1356,1556.000,19.726585715358397
1357,1557.000,19.323347599526187
1358,1558.000,29.498604260625598
1359,1559.000,34.78178648914536
1360,1560.000,29.689922056086516
1361,1561.000,32.21915371293653
1362,1562.000,32.06912319164053
1363,1563.000,29.285745204573686
1364,1564.000,32.738755444510616
1365,1565.000,32.117255584601025
1366,1566.000,33.763680278339734
1367,1567.000,45.123686159539375
1368,1568.000,33.53480884230089
1369,1569.000,49.77970792098381
1370,1570.000,37.15164797018474
1371,1571.000,50.68475354470297
1372,1572.000,66.84311017951359
1373,1573.000,58.85861038974167
1374,1574.000,69.1203256706317
1375,1575.000,75.41893349752286
1376,1576.000,104.94397032581492
1377,1577.000,114.92047659094646
1378,1578.000,117.40159470836284
1379,1579.000,152.95891507349052
1380,1580.000,170.97630506170708
1381,1581.000,206.97166902831304
1382,1582.000,231.3448123085068
1383,1583.000,238.06357221735243
1384,1584.000,231.91408304975334
1385,1585.000,227.18208208042483
1386,1586.000,182.81898956386658
1387,1587.000,178.84190373433194
1388,1588.000,150.51263880580245
1389,1589.000,140.17674397195628
1390,1590.000,153.29837440614483
1391,1591.000,135.46923526136197
1392,1592.000,141.62388867021605
1393,1593.000,154.60608274490096
1394,1594.000,175.43280457716878
1395,1595.000,185.19637023830546
1396,1596.000,230.79567877909494
1397,1597.000,274.36322622979696
1398,1598.000,321.3043756001168
1399,1599.000,428.5213498791802
1400,1600.000,518.0967490354999
1401,1601.000,605.80568601695
1402,1602.000,645.0957077507419
1403,1603.000,610.1713251433889
1404,1604.000,511.70078008068344
1405,1605.000,418.7642184276651
1406,1606.000,326.04447702859943
1407,1607.000,269.8995757069406
1408,1608.000,216.36629326530942
1409,1609.000,175.18083948546337
1410,1610.000,138.9152601282708
1411,1611.000,114.00152793367693
1412,1612.000,99.69768362068316
1413,1613.000,100.15238788731267
1414,1614.000,79.34538241058954
1415,1615.000,60.14659484649928
1416,1616.000,60.32428582997454
1417,1617.000,57.964614974854385
1418,1618.000,58.10840487386713
1419,1619.000,50.43405309859418
1420,1620.000,43.28526219944274
1421,1621.000,52.55721270562458
1422,1622.000,41.66052712511987
1423,1623.000,37.61063094465453
1424,1624.000,32.87618262966589
1425,1625.000,33.67903562428182
1426,1626.000,26.37260635129155
1427,1627.000,20.805021212110887
1428,1628.000,37.4018815867596
1429,1629.000,34.426206833835295
1430,1630.000,28.89093129047933
1431,1631.000,26.925908272354263
1432,1632.000,28.994132073609535
1433,1633.000,36.796314966862155
1434,1634.000,10.573211203161463
1435,1635.000,18.721846011960906
1436,1636.000,21.18515160109405
1437,1637.000,31.36420815674478
1438,1638.000,21.274109843420547
1439,1639.000,16.459273803918904
1440,1640.000,14.310608159306412
1441,1641.000,21.415763008884596
1442,1642.000,12.867714430169372
1443,1643.000,12.960923478854511
1444,1644.000,13.229087188784888
1445,1645.000,28.384533571936572
1446,1646.000,27.21401761837933
1447,1647.000,19.22250629625387
1448,1648.000,25.49169555173785
1449,1649.000,21.086235309027415
1450,1650.000,15.819849470301733
1451,1651.000,18.567631915693482
1452,1652.000,20.022713503266914
1453,1653.000,27.256438068988018
1454,1654.000,7.750596426692709
1455,1655.000,14.53705036806332
1456,1656.000,16.095918662594613
1457,1657.000,21.886437057572948
1458,1658.000,22.482394278046513
1459,1659.000,16.56755902679106
1460,1660.000,13.265983984285867
1461,1661.000,5.472920808691015
1462,1662.000,-3.0158698641896535
1463,1663.000,10.087100579067965
1464,1664.000,12.104496729479706
1465,1665.000,17.510794155624126
1466,1666.000,18.706125403616852
1467,1667.000,22.473037997079246
1468,1668.000,31.118441437110278
1469,1669.000,17.95006220226196
1470,1670.000,15.709804748510123
1471,1671.000,19.94407350922188
1472,1672.000,14.09108289513324
1473,1673.000,11.274628294318973
1474,1674.000,13.482172072164303
1475,1675.000,18.958796571335142
1476,1676.000,10.453888111752349
1477,1677.000,7.518940990564943
1478,1678.000,6.322529482117034
1479,1679.000,12.186138837923863
1480,1680.000,18.2735622866428
1481,1681.000,6.174112034046175
1482,1682.000,13.818270262989017
1483,1683.000,20.85082313338512
1484,1684.000,9.525631782179516
1485,1685.000,13.54116532331659
1486,1686.000,19.244366847714673
1487,1687.000,12.634574423235108
1488,1688.000,11.402344094660293
1489,1689.000,12.875230883659015
1490,1690.000,9.630630788761891
1491,1691.000,13.995748785330761
1492,1692.000,10.754870825532635
1493,1693.000,18.557058838313424
1494,1694.000,14.261352729363807
1495,1695.000,20.100230381097163
1496,1696.000,14.18781865261758
1497,1697.000,7.754099379696527
1498,1698.000,15.519013374737824
1499,1699.000,6.386045426753299
1500,1700.000,18.972369301338176
1501,1701.000,10.537159740636525
1502,1702.000,14.19285246331674
1503,1703.000,14.793220164541026
1504,1704.000,20.545618515941896
1505,1705.000,5.508060165590905
1506,1706.000,15.491066737969504
1507,1707.000,20.259519833940885
1508,1708.000,17.110621030727998
1509,1709.000,11.79816088187522
1510,1710.000,12.637191917231121
1511,1711.000,20.52249864290934
1512,1712.000,24.271832541269987
1513,1713.000,15.100500070888756
1514,1714.000,14.490332666525319
1515,1715.000,12.958023739095097
1516,1716.000,11.882312675648791
1517,1717.000,18.08361083933869
1518,1718.000,15.415359569389238
1519,1719.000,5.259345181068966
1520,1720.000,14.921077965668474
1521,1721.000,10.185632190466094
1522,1722.000,13.459530098702544
1523,1723.000,13.167249909549582
1524,1724.000,22.52264281808675
1525,1725.000,12.395591995271161
1526,1726.000,18.359559587908734
1527,1727.000,7.763514718625402
1528,1728.000,14.941239485841152
1529,1729.000,11.198724963740233
1530,1730.000,9.164243202246325
1531,1731.000,15.084667226986312
1532,1732.000,14.192799039271904
1533,1733.000,7.949524616069084
1534,1734.000,3.3865439099647574
1535,1735.000,25.702026849140566
1536,1736.000,-1.1036576626486294
1537,1737.000,19.830134253889355
1538,1738.000,19.06480745355998
1539,1739.000,8.724091766649963
1540,1740.000,6.036100998903976
1541,1741.000,13.570515931496175
1542,1742.000,8.597718320994773
1543,1743.000,11.830598899346114
1544,1744.000,16.971669373835766
1545,1745.000,9.52598442706676
1546,1746.000,7.642787716925568
1547,1747.000,8.45034687656289
1548,1748.000,1.8614345143594164
1549,1749.000,17.109136213895226
1550,1750.000,12.45389953392646
1551,1751.000,13.364336008360397
1552,1752.000,19.062897146216983
1553,1753.000,13.965812431612221
1554,1754.000,10.803065323717647
1555,1755.000,15.015793256744473
1556,1756.000,15.894120639911534
1557,1757.000,20.731617857409447
1558,1758.000,18.4968512683854
1559,1759.000,6.411812206901914
1560,1760.000,23.429730981923967
1561,1761.000,21.320791877272995
1562,1762.000,21.168049151614696
1563,1763.000,3.800811038420079
1564,1764.000,9.541038745945116
1565,1765.000,14.715348457197706
1566,1766.000,15.738623329909842
1567,1767.000,15.058225496510431
1568,1768.000,13.166759064101598
1569,1769.000,1.4722461144210683
1570,1770.000,15.340215703821514
1571,1771.000,9.103360863240141
1572,1772.000,10.509573598174029
1573,1773.000,-0.11006811135598582
1574,1774.000,13.192909689171756
1575,1775.000,2.4369889287531805
1576,1776.000,6.700447510831964
1577,1777.000,20.51724331325886
1578,1778.000,17.86468918828041
1579,1779.000,19.221742962498865
1580,1780.000,12.476287436850953
1581,1781.000,4.036049386576451
1582,1782.000,17.556939561188756
1583,1783.000,24.550423684450834
1584,1784.000,12.393177454344823
1585,1785.000,19.737947543046175
1586,1786.000,15.768384596886335
1587,1787.000,8.35035523634133
1588,1788.000,24.641445055988925
1589,1789.000,8.666787624485096
1590,1790.000,9.425684484538579
1591,1791.000,19.370069152881342
1592,1792.000,-2.498727879760054
1593,1793.000,18.132599851305486
1594,1794.000,10.934035784707248
1595,1795.000,19.451617332988008
1596,1796.000,6.466925882571104
1597,1797.000,10.937324793733978
1598,1798.000,14.921125400579058
1599,1799.000,5.571903011007635
1600,1800.000,20.283291906693194
1601,1801.000,12.807784343045796
1602,1802.000,9.474247549192341
1603,1803.000,2.7626537279447803
1604,1804.000,13.846557055774838
1605,1805.000,15.300521682780072
1606,1806.000,23.277415732658483
1607,1807.000,23.626766302684246
1608,1808.000,24.693171463677572
1609,1809.000,22.250246259972528
1610,1810.000,15.438293709391019
1611,1811.000,14.87859380322061
1612,1812.000,22.213337506177822
1613,1813.000,21.132308756381917
1614,1814.000,0.41412146533207306
1615,1815.000,14.977541517877398
1616,1816.000,17.39085377218339
1617,1817.000,14.132874059706637
1618,1818.000,18.488453185172602
1619,1819.000,18.45789192653956
1620,1820.000,12.83208703497462
1621,1821.000,20.106413234821503
1622,1822.000,12.145251223582136
1623,1823.000,3.204196671875252
1624,1824.000,16.697489223419097
1625,1825.000,11.155018494997194
1626,1826.000,18.53455507643207
1627,1827.000,14.323085530561912
1628,1828.000,18.623462393200725
1629,1829.000,9.89555517312192
1630,1830.000,19.337371352025684
1631,1831.000,25.22214238451079
1632,1832.000,16.1746076980437
1633,1833.000,15.821560692937965
1634,1834.000,6.048544742315698
1635,1835.000,26.329824192094748
1636,1836.000,11.472503360941118
1637,1837.000,18.924710540253955
1638,1838.000,17.520578994138532
1639,1839.000,19.426656959371712
1640,1840.000,19.58791364537342
1641,1841.000,14.189850234182359
1642,1842.000,8.04950388043153
1643,1843.000,15.965388711309515
1644,1844.000,15.09408582654305
1645,1845.000,12.913630298358385
1646,1846.000,11.50401617146349
1647,1847.000,2.929413463016772
1648,1848.000,21.44559916259459
1649,1849.000,0.25912323216357436
1650,1850.000,14.93927360606176
1651,1851.000,18.832467190960415
1652,1852.000,17.881328865839805
1653,1853.000,6.968213481957719
1654,1854.000,16.93242486283043
1655,1855.000,9.786408804195844
1656,1856.000,19.0661090739859
1657,1857.000,12.567102412300528
1658,1858.000,12.19047753138534
1659,1859.000,8.142775115591576
1660,1860.000,9.174845821359213
1661,1861.000,8.356395277177853
1662,1862.000,23.043148083569577
1663,1863.000,15.524003813057107
1664,1864.000,9.639842010131133
1665,1865.000,18.578456191223722
1666,1866.000,9.676658844688745
1667,1867.000,16.25702143076296
1668,1868.000,18.84645838154279
1669,1869.000,12.944113100953473
1670,1870.000,16.617377964726984
1671,1871.000,16.6679953203693
1672,1872.000,8.440521487132855
1673,1873.000,18.036902755981828
1674,1874.000,6.546465389581272
1675,1875.000,9.318099622255431
1676,1876.000,15.475795659958294
1677,1877.000,15.759673680253172
1678,1878.000,16.004870832283586
1679,1879.000,14.143929236738359
1680,1880.000,4.935821985828397
1681,1881.000,19.633618143263902
1682,1882.000,6.406879744217804
1683,1883.000,5.085341795297154
1684,1884.000,24.23414627452121
1685,1885.000,10.32621313129016
1686,1886.000,7.5415032863604665
1687,1887.000,3.713502631810343
1688,1888.000,17.388571031011907
1689,1889.000,3.965486318612875
1690,1890.000,7.341175300499344
1691,1891.000,14.690258753766784
1692,1892.000,2.5721044267011166
1693,1893.000,27.404298038739626
1694,1894.000,10.190155280451108
1695,1895.000,14.18026081350422
1696,1896.000,17.737509270636565
1697,1897.000,12.918423255636299
1698,1898.000,14.425243343301418
1699,1899.000,8.899279079421603
1700,1900.000,22.499061980743363
1701,1901.000,11.899512534948826
1702,1902.000,24.259983200619445
1703,1903.000,19.610466407217245
1704,1904.000,19.440748555044365
1705,1905.000,8.590218015227947
1706,1906.000,11.35412412968958
1707,1907.000,3.14674521110328
1708,1908.000,20.833547542887118
1709,1909.000,2.8872573791602463
1710,1910.000,10.264612944729379
1711,1911.000,17.57186643504133
1712,1912.000,-0.12390898383068816
1713,1913.000,16.343278824784875
1714,1914.000,2.86495196812416
1715,1915.000,12.118528523958048
1716,1916.000,12.508034540569952
1717,1917.000,14.952484036725536
1718,1918.000,12.66035200164788
1719,1919.000,9.581470394978851
1720,1920.000,13.46718714676308
1721,1921.000,21.916584157414036
1722,1922.000,4.828328297687676
1723,1923.000,12.225921408651402
1724,1924.000,10.659325301656054
1725,1925.000,15.203582758316088
1726,1926.000,5.0542495304716795
1727,1927.000,1.0541493401635762
1728,1928.000,20.412637879605427
1729,1929.000,11.326917811155681
1730,1930.000,12.6004217672928
1731,1931.000,33.953440350581104
1732,1932.000,12.33543213364419
1733,1933.000,22.95183465914215
1734,1934.000,14.513760439735506
1735,1935.000,1.2107579580658694
1736,1936.000,6.713686666715603
1737,1937.000,14.338262988193264
1738,1938.000,12.730666314900873
1739,1939.000,18.678836009099086
1740,1940.000,12.878702402884755
1741,1941.000,7.736344798166556
1742,1942.000,5.42871946663081
1743,1943.000,9.171447649714764
1744,1944.000,15.89646655857814
1745,1945.000,18.88387937407674
1746,1946.000,26.4782912467374
1747,1947.000,11.490524296718377
1748,1948.000,9.169102613795985
1749,1949.000,-0.8794117426737103
1750,1950.000,1.4638002562210204
1751,1951.000,3.867338608916725
1752,1952.000,9.890154283349602
1753,1953.000,19.84411021692904
1754,1954.000,13.452185316504028
1755,1955.000,7.3110894583364825
1756,1956.000,17.57128248807726
1757,1957.000,7.195904220737248
1758,1958.000,7.443511440651719
1759,1959.000,6.183788901460275
1760,1960.000,6.712057326077002
1761,1961.000,13.255307406664542
1762,1962.000,3.757017804598945
1763,1963.000,11.476323150443022
1764,1964.000,3.1288210439288378
1765,1965.000,3.293111053917073
1766,1966.000,5.43929671837509
1767,1967.000,4.303692544342766
1768,1968.000,12.375690007916546
1769,1969.000,14.236211554210968
1770,1970.000,5.656574597330064
1771,1971.000,7.620913520343038
1772,1972.000,0.49577367526080707
1773,1973.000,4.862824383001225
1774,1974.000,5.572279933358004
1775,1975.000,15.734707584980015
1776,1976.000,9.619610565341873
1777,1977.000,5.79220507071318
1778,1978.000,8.864918266129052
1779,1979.000,14.893944285367525
1780,1980.000,8.925224230918502
1781,1981.000,13.398675173955326
1782,1982.000,7.2063251543056595
1783,1983.000,12.147222180422432
1784,1984.000,8.220220229364031
1785,1985.000,9.724673246758812
1786,1986.000,1.866949146773095
1787,1987.000,18.61238581209045
1788,1988.000,13.926725093885352
1789,1989.000,3.193121811790661
1790,1990.000,3.7313017538642725
1791,1991.000,1.0414006765709019
1792,1992.000,0.5217183047527669
1793,1993.000,4.859970331589693
1794,1994.000,6.240066418589322
1795,1995.000,-5.455902804456173
1796,1996.000,9.079265260512557
1797,1997.000,11.091128179781663
1798,1998.000,4.651014487851853
1799,1999.000,3.791509687392818
1800,2000.000,7.491209249233407
