# kind,background_subtracted
# version_label,t115_corrected
# poly_order,5
# iterations_run,4
pixel_index,raman_shift_cm-1,intensity,background_intensity
0,200.000,9.790048457713851,477.36511554228616
1,201.000,3.1910529010023083,478.5065380989977
2,202.000,3.479480997218957,479.649717002781
3,203.000,0.0,480.7946563539821
4,204.000,3.3935277831346866,481.9413602168653
5,205.000,0.0,483.0898326196666
6,206.000,5.038344445353175,484.2400775546468
7,207.000,0.0,485.3920989781446
8,208.000,0.0,486.5459008106297
9,209.000,0.0,487.70148693675617
10,210.000,0.0,488.8588612054154
11,211.000,0.0,490.01802742978936
12,212.000,0.0,491.1789893874036
13,213.000,0.0,492.3417508201807
14,214.000,5.970498565506773,493.5063154344932
15,215.000,0.0,494.6726869012167
16,216.000,0.0,495.84086885578324
17,217.000,0.0,497.01086489823433
18,218.000,1.3839434067260186,498.182678593274
19,219.000,0.0,499.3563134703222
20,220.000,0.0,500.53177302356784
21,221.000,0.0,501.7090607120217
22,222.000,0.0,502.88817995957015
23,223.000,0.0,504.06913415502765
24,224.000,0.0,505.25192665219043
25,225.000,2.69263323011063,506.43656076988935
26,226.000,0.0,507.6230397920432
27,227.000,0.0,508.81136696771176
28,228.000,1.0865494888510625,510.00154551114895
29,229.000,1.563790398143908,511.19357860185613
30,230.000,0.0,512.3874693846351
31,231.000,0.0,513.5832209696413
32,232.000,4.398485567562943,514.780836432437
33,233.000,4.535747185955643,515.9803188140444
34,234.000,0.0,517.1816711209989
35,235.000,0.0,518.384896325402
36,236.000,2.1434966350251443,519.5899973649748
37,237.000,0.0,520.7969771431109
38,238.000,0.0,522.0058385289296
39,239.000,0.0,523.2165843573292
40,240.000,5.698235570959923,524.42921742904
41,241.000,12.872937489322567,525.6437405106774
42,242.000,1.7846736652045365,526.8601563347954
43,243.000,19.899634400060904,528.0784675999391
44,244.000,2.783672029301215,529.2986769706988
45,245.000,14.612266922237836,530.5207870777622
46,246.000,0.0,531.7448005179681
47,247.000,6.764324145640444,532.9707198543596
48,248.000,7.59957738376329,534.1985476162367
49,249.000,0.0,535.4282862992103
50,250.000,13.227661634745346,536.6599383652547
51,251.000,14.373686757239284,537.8935062427607
52,252.000,2.064733673410501,539.1289923265895
53,253.000,15.297402021875087,540.366398978125
54,254.000,10.602716474672661,541.6057285253273
55,255.000,8.158896737213695,542.8469832627864
56,256.000,18.28171554822609,544.0901654517739
57,257.000,18.28716467970196,545.335277320298
58,258.000,22.28765093684467,546.5823210631553
59,259.000,10.143302158015672,547.8312988419843
60,260.000,27.94221321468092,549.082212785319
61,261.000,15.520180011358548,550.3350649886414
62,262.000,34.74823148556493,551.589857514435
63,263.000,31.959871607761784,552.8465923922382
64,264.000,34.782190381303394,554.1052716186966
65,265.000,33.68225184238247,555.3658971576175
66,266.000,44.84482505997835,556.6284709400217
67,267.000,48.58987513580291,557.8929948641971
68,268.000,48.509900204247174,559.1594707957528
69,269.000,64.53284443232951,560.4279005676705
70,270.000,53.504188019640765,561.6982859803593
71,271.000,84.09807719829223,562.9706288017078
72,272.000,93.93043623286235,564.2449307671377
73,273.000,106.92556342034311,565.5211935796569
74,274.000,128.29493309008728,566.7994189099127
75,275.000,163.25314060375547,568.0796083962446
76,276.000,177.10469435526204,569.361763644738
77,277.000,208.84202677072324,570.6458862292768
78,278.000,237.36709030840257,571.9319776915975
79,279.000,272.2981044586593,573.2200395413407
80,280.000,310.6896127438938,574.5100732561062
81,281.000,320.2376767184953,575.8020802815047
82,282.000,330.3944099687885,577.0960620312114
83,283.000,335.5842971129805,578.3920198870195
84,284.000,305.79937980110697,579.689955198893
85,285.000,276.42980071498016,580.9898692850198
86,286.000,248.71921256813482,582.2917634318652
87,287.000,197.13689010577536,583.5956388942246
88,288.000,178.6475381047229,584.9014968952771
89,289.000,153.48165237336184,586.2093386266382
90,290.000,130.15004775158638,587.5191652484136
91,291.000,113.33250111074858,588.8309778892515
92,292.000,104.00446635360333,590.1447776463966
93,293.000,76.97427341425737,591.4605655857426
94,294.000,69.36467025811419,592.7783427418858
95,295.000,66.81628088182197,594.098110118178
96,296.000,53.628435313220166,595.4198686867799
97,297.000,53.77591661128622,596.7436193887138
98,298.000,42.85333486608283,598.0693631339171
99,299.000,31.37673019870431,599.3971008012957
100,300.000,44.091972761223474,600.7268332387765
101,301.000,21.173531736638665,602.0585612633613
102,302.000,14.982895338820981,603.392285661179
103,303.000,40.637696812460035,604.72800718754
104,304.000,40.030347433012025,606.065726566988
105,305.000,12.848912506645547,607.4054444933545
106,306.000,14.186237370189247,608.7471616298108
107,307.000,26.1167043910782,610.0908786089218
108,308.000,10.294074967300958,611.4365960326991
109,309.000,14.257990527346351,612.7843144726537
110,310.000,16.586368530150025,614.13403446985
111,311.000,9.710394465041759,615.4857565349582
112,312.000,7.39946385169219,616.8394811483078
113,313.000,2.747455240059594,618.1952087599404
114,314.000,9.125037210336359,619.5529397896637
115,315.000,13.3179913728967,620.9126746271033
116,316.000,7.15039036824237,622.2744136317576
117,317.000,12.250628866950933,623.638157133049
118,318.000,18.950595569621214,625.0039054303788
119,319.000,1.961104206820778,626.3716587931792
120,320.000,11.911949539032776,627.7414174609672
121,321.000,1.6250173566030526,629.113181643397
122,322.000,6.538217479686182,630.4869515203138
123,323.000,8.53464375819317,631.8627272418069
124,324.000,2.857317071737839,633.2405089282622
125,325.000,7.690985329583668,634.6202966704163
126,326.000,1.9686664705909607,636.0020905294091
127,327.000,4.8619154631632,637.3858905368368
128,328.000,14.739379305194575,638.7716966948054
129,329.000,15.012684024015812,640.1595089759842
130,330.000,6.381114676342236,641.5493273236577
131,331.000,4.360667348219636,642.9411516517804
132,332.000,10.14374215497162,644.3349818450284
133,333.000,13.4023142411462,645.7308177588538
134,334.000,2.293384780462816,647.1286592195372
135,335.000,0.0,648.5285060242406
136,336.000,1.8961900589382594,649.9303579410617
137,337.000,2.7468642909143455,651.3342147090857
138,338.000,13.034672961560887,652.7400760384392
139,339.000,5.219466389656759,654.1479416103432
140,340.000,0.0,655.5578110771664
141,341.000,2.4168559375218592,656.9696840624781
142,342.000,6.7814968388985335,658.3835601611015
143,343.000,5.05082506083329,659.7994389391667
144,344.000,1.776059065835625,661.2173199341644
145,345.000,0.4730483450017573,662.6372026549982
146,346.000,0.0,664.0590865820382
147,347.000,0.0,665.4829711671746
148,348.000,14.784077166130146,666.9088558338699
149,349.000,9.605680022787169,668.3367399772128
150,350.000,0.0,669.7666229639711
151,351.000,0.0,671.198504132645
152,352.000,0.0,672.6323827935198
153,353.000,4.179953771280225,674.0682582287197
154,354.000,2.449723307739646,675.5061296922604
155,355.000,5.308745589897285,676.9459964101027
156,356.000,13.091846419794592,678.3878575802054
157,357.000,0.5554896274218208,679.8317123725782
158,358.000,0.0,681.2775599293356
159,359.000,0.0,682.7253993647493
160,360.000,0.0,684.1752297653019
161,361.000,0.0,685.6270501897397
162,362.000,0.0,687.0808596691261
163,363.000,2.220163793105712,688.5366572068942
164,364.000,4.967738221098898,689.9944417789011
165,365.000,13.459911666520384,691.4542123334796
166,366.000,0.0,692.9159677914928
167,367.000,0.0,694.379707046386
168,368.000,0.0,695.8454289642407
169,369.000,9.352976616172782,697.3131323838272
170,370.000,0.0,698.7828161166586
171,371.000,0.0,700.2544789470427
172,372.000,0.0,701.7281196321362
173,373.000,6.013792098002682,703.2037369019973
174,374.000,10.086951540360701,704.6813294596393
175,375.000,3.2957740189167453,706.1608959810833
176,376.000,4.266992884588603,707.6424351154114
177,377.000,0.0,709.1259454848206
178,378.000,5.958813315325415,710.6114256846746
179,379.000,8.558267716441833,712.0988742835582
180,380.000,5.35360017667017,713.5882898233298
181,381.000,4.714884180825152,715.0796708191748
182,382.000,0.23673824034119662,716.5730157596588
183,383.000,2.428553893219714,718.0683231067803
184,384.000,0.0,719.5655912960244
185,385.000,0.0,721.0648187364159
186,386.000,0.0,722.566003810572
187,387.000,1.5573831252440868,724.0691448747559
188,388.000,0.0,725.57424025893
189,389.000,9.035260733191649,727.0812882668083
190,390.000,2.298633824089052,728.5902871759109
191,391.000,6.326848762384202,730.1012352376158
192,392.000,6.902596322787076,731.6141306772129
193,393.000,0.0,733.1289716939567
194,394.000,15.396304538880145,734.6457564611198
195,395.000,7.127392873954136,736.1644831260459
196,396.000,0.0,737.6851498102028
197,397.000,0.9369823907640011,739.207754609236
198,398.000,0.0,740.732295593021
199,399.000,0.0,742.258770805718
200,400.000,0.0424627341770929,743.787178265823
201,401.000,0.0,745.3175159662226
202,402.000,0.0,746.8497818742467
203,403.000,0.0,748.3839739317211
204,404.000,6.685469944978422,749.9200900550215
205,405.000,14.423641864873844,751.4581281351261
206,406.000,0.0,752.9980860376687
207,407.000,0.0,754.5399616029924
208,408.000,1.2449583537976423,756.0837526462024
209,409.000,2.6575030427812862,757.6294569572187
210,410.000,1.9820426991697104,759.1770723008303
211,411.000,0.0,760.7265964167477
212,412.000,10.003744980344436,762.2780270196556
213,413.000,4.475844200732581,763.8313617992674
214,414.000,0.12292857962313519,765.3865984203769
215,415.000,7.225617477087667,766.9437345229123
216,416.000,0.0,768.5027677219895
217,417.000,11.602257392035654,770.0636956079643
218,418.000,2.783826253513439,771.6265157464866
219,419.000,2.6635433214471504,773.1912256785529
220,420.000,12.764826079440127,774.7578229205599
221,421.000,12.018208035642601,776.3263049643574
222,422.000,15.20293772269872,777.8966692773013
223,423.000,5.536406697692996,779.468913302307
224,424.000,10.158536542097295,781.0430344579026
225,425.000,6.373386861718018,782.619030138282
226,426.000,7.778897286642064,784.1968977133579
227,427.000,0.0,785.7766345288151
228,428.000,4.864143093836674,787.3582379061634
229,429.000,6.3890338572086876,788.9417051427913
230,430.000,3.412614487981159,790.5270335120189
231,431.000,10.599996736849334,792.1142202631506
232,432.000,3.1928473784711286,793.7032626215289
233,433.000,5.5644412114127135,795.2941577885873
234,434.000,0.0,796.8869029419034
235,435.000,0.0,798.4814952352519
236,436.000,5.169218201341664,800.0779317986584
237,437.000,0.0,801.6762097384517
238,438.000,0.0,803.2763261373177
239,439.000,3.7514589456479825,804.878278054352
240,440.000,9.967862474886601,806.4820625251134
241,441.000,0.0,808.087676561677
242,442.000,0.7461658473131365,809.6951171526869
243,443.000,12.190573736589613,811.3043812634104
244,444.000,0.0,812.91546583579
245,445.000,8.511081211502983,814.528367788497
246,446.000,2.995169983014648,816.1430840169853
247,447.000,2.4272346064566364,817.7596113935433
248,448.000,0.0,819.3779467673482
249,449.000,4.112251035481449,820.9980869645185
250,450.000,4.999619211832851,822.6200287881671
251,451.000,5.046104981544886,824.2437690184552
252,452.000,0.0,825.8693044126445
253,453.000,4.182540294848991,827.496631705151
254,454.000,3.1661923924019675,829.125747607598
255,455.000,6.168299191130927,830.756648808869
256,456.000,4.417385024838609,832.3893319751614
257,457.000,0.0,834.023793750039
258,458.000,0.0,835.6600307544854
259,459.000,0.0,837.2980395869579
260,460.000,8.627400176560855,838.9378168234391
261,461.000,7.00196298250853,840.5793590174915
262,462.000,0.0,842.2226627003101
263,463.000,0.0,843.8677243807751
264,464.000,3.826843454493769,845.5145405455062
265,465.000,0.8736973410855171,847.1631076589144
266,466.000,9.109511836743764,848.8134221632563
267,467.000,2.387495521313781,850.4654804786862
268,468.000,0.0,852.1192790033106
269,469.000,2.583635886760021,853.7748141132399
270,470.000,3.4135318373572545,855.4320821626427
271,471.000,7.58164451620155,857.0910794837985
272,472.000,0.0,858.7518023871503
273,473.000,1.007058838641342,860.4142471613586
274,474.000,7.057834926645228,862.0784100733548
275,475.000,0.0,863.744287368393
276,476.000,6.744821729895762,865.4118752701042
277,477.000,13.027778019450352,867.0811699805497
278,478.000,0.0,868.7521676802734
279,479.000,2.3277484716448953,870.4248645283551
280,480.000,0.0,872.0992566624641
281,481.000,0.0,873.7753401989124
282,482.000,10.478020767292605,875.4531112327074
283,483.000,15.392283162394847,877.1325658376052
284,484.000,8.460813933836334,878.8137000661636
285,485.000,4.83540005020393,880.4965099497961
286,486.000,3.8472365011760985,882.1809914988239
287,487.000,0.0,883.8671407025298
288,488.000,9.326920470789105,885.5549535292109
289,489.000,0.0,887.2444259262323
290,490.000,1.9817311799203026,888.9355538200797
291,491.000,11.219137883587223,890.6283331164128
292,492.000,11.20937729988134,892.3227597001187
293,493.000,10.685370564635491,894.0188294353645
294,494.000,0.0,895.7165381656512
295,495.000,0.0,897.4158817138657
296,496.000,0.0,899.1168558823354
297,497.000,10.123129547119902,900.8194564528801
298,498.000,7.94154381313399,902.523679186866
299,499.000,0.0,904.2295198252588
300,500.000,11.751575911324267,905.9369740886757
301,501.000,0.0,907.6460376774402
302,502.000,0.0,909.3567062716345
303,503.000,1.5951304688478558,911.0689755311521
304,504.000,6.981016904247781,912.7828410957522
305,505.000,0.0,914.4982985851116
306,506.000,7.491652401121087,916.2153435988789
307,507.000,0.0,917.9339717167265
308,508.000,0.0,919.6541784984056
309,509.000,1.4538255162030964,921.3759594837969
310,510.000,0.709230807034146,923.0993101929658
311,511.000,3.0370888737853647,924.8242261262146
312,512.000,2.69857023586394,926.5507027641361
313,513.000,10.220651432333966,928.278735567666
314,514.000,0.0,930.0083199781368
315,515.000,0.0,931.7394514173309
316,516.000,2.634058712466185,933.4721252875338
317,517.000,2.3500300284139257,935.2063369715861
318,518.000,6.5469061670613655,936.9420818329386
319,519.000,12.114216784296218,938.6793552157038
320,520.000,3.6462835552898696,940.4181524447101
321,521.000,1.5954151744458613,942.1584688255541
322,522.000,1.0412343553452956,943.9002996446548
323,523.000,11.319709830694364,945.6436401693056
324,524.000,3.8214663522716137,947.3884856477284
325,525.000,13.025707690873787,949.1348313091262
326,526.000,0.0,950.8826723637364
327,527.000,8.71197499711593,952.6320040028841
328,528.000,7.24851660096499,954.382821399035
329,529.000,0.0,956.1351197058491
330,530.000,2.618162941767423,957.8888940582326
331,531.000,0.0,959.644139572393
332,532.000,17.6382046541097,961.4008513458903
333,533.000,0.0,963.1590244576912
334,534.000,7.898045031777656,964.9186539682223
335,535.000,7.319127080577005,966.679734919423
336,536.000,1.7678076652013033,968.4422623347987
337,537.000,5.0018187805264915,970.2062312194735
338,538.000,8.457722439755798,971.9716365602442
339,539.000,0.0,973.7384733256331
340,540.000,8.314898534059012,975.506736465941
341,541.000,0.0,977.2764209133002
342,542.000,0.8445774182717969,979.0475215817282
343,543.000,13.462152632819311,980.8200333671807
344,544.000,0.0,982.5939511476042
345,545.000,1.7013192170101092,984.3692697829899
346,546.000,8.13864488457375,986.1459841154262
347,547.000,0.0,987.924088969153
348,548.000,5.999746849387066,989.7035791506129
349,549.000,0.0,991.4844494485062
350,550.000,2.158921366156619,993.2666946338434
351,551.000,0.21939054000210945,995.0503094599978
352,552.000,2.9451223372400364,996.8352886627599
353,553.000,7.700858039610921,998.6216269603891
354,554.000,14.064259946331958,1000.409319053668
355,555.000,0.7874713740450261,1002.1983596259549
356,556.000,0.0,1003.9887433432375
357,557.000,0.0,1005.7804648541854
358,558.000,5.290760209796304,1007.5735187902037
359,559.000,4.517426234513778,1009.3678997654862
360,560.000,6.87875262293187,1011.1636023770682
361,561.000,0.0,1012.9606212048798
362,562.000,0.0,1014.7589508117995
363,563.000,9.669033256293233,1016.5585857437068
364,564.000,10.727771470464859,1018.3595205295351
365,565.000,10.577844318673897,1020.161749681326
366,566.000,0.0,1021.9652676942811
367,567.000,5.4704659531835205,1023.7700690468164
368,568.000,6.430491799385891,1025.5761482006142
369,569.000,6.155215399322742,1027.3834996006772
370,570.000,2.9531663246184507,1029.1921176753815
371,571.000,11.234097163470551,1031.0019968365295
372,572.000,0.0,1032.8131314794032
373,573.000,1.3644010171826721,1034.6255159828174
374,574.000,0.0,1036.439144709172
375,575.000,1.9973279954926966,1038.2540120045073
376,576.000,8.621167801444926,1040.070112198555
377,577.000,4.526025395208308,1041.8874396047918
378,578.000,0.0,1043.7059885204937
379,579.000,7.831809773212171,1045.5257532267879
380,580.000,3.8429290112935632,1047.3467279887063
381,581.000,0.0,1049.1689070552388
382,582.000,24.124198340612793,1050.9922846593872
383,583.000,7.982683981783566,1052.8168550182165
384,584.000,2.637106667090393,1054.6426123329095
385,585.000,0.0,1056.4695507888198
386,586.000,2.1410194444754325,1058.2976645555245
387,587.000,4.246569213122029,1060.126947786878
388,588.000,0.5002793789360567,1061.957394621064
389,589.000,0.0,1063.78899918065
390,590.000,7.236747427359887,1065.62175557264
391,591.000,0.0,1067.4556578885267
392,592.000,10.834615795653917,1069.2907002043462
393,593.000,2.130762419269331,1071.1268765807306
394,594.000,2.1593209370398654,1072.96418106296
395,595.000,0.5692133189825199,1074.8026076810174
396,596.000,1.67903255035867,1076.6421504496413
397,597.000,3.9565586316221015,1078.482803368378
398,598.000,5.434135578364476,1080.3245604216356
399,599.000,7.603002421262772,1082.1674155787373
400,600.000,11.395145206026655,1084.0113627939734
401,601.000,1.620176993343648,1085.8563960066563
402,602.000,0.0,1087.7025091411722
403,603.000,2.2021928929655132,1089.5496961070344
404,604.000,6.953604201063172,1091.3979507989368
405,605.000,2.970388903192543,1093.2472670968075
406,606.000,0.0,1095.097638865861
407,607.000,0.0,1096.9490599566516
408,608.000,0.0,1098.801524205127
409,609.000,4.525870567318179,1100.655025432682
410,610.000,0.0,1102.5095574462093
411,611.000,3.5397859618447,1104.3651140381553
412,612.000,0.0,1106.2216889865717
413,613.000,0.7609919448300388,1108.0792760551699
414,614.000,8.4029240066277,1109.9378689933724
415,615.000,10.686746463632744,1111.7974615363673
416,616.000,2.902351594838592,1113.6580474051614
417,617.000,0.0,1115.5196203066325
418,618.000,0.0,1117.3821739335838
419,619.000,4.680465035204634,1119.2457019647954
420,620.000,2.5106089349201284,1121.1101980650799
421,621.000,0.0,1122.9756558853323
422,622.000,0.0,1124.8420690625862
423,623.000,6.243899779934964,1126.709431220065
424,624.000,5.376851032763625,1128.5777359672363
425,625.000,4.03813910013605,1130.446976899864
426,626.000,2.0766963999376458,1132.3171476000623
427,627.000,8.287973363651645,1134.1882416363483
428,628.000,16.049233436304576,1136.0602525636955
429,629.000,0.0,1137.9331739235863
430,630.000,2.3655907559334537,1139.8069992440664
431,631.000,2.511549960202956,1141.681722039797
432,632.000,7.518996187892299,1143.5573358121078
433,633.000,7.532572950948634,1145.4338340490513
434,634.000,0.0,1147.3112102254543
435,635.000,3.649052197027686,1149.1894578029724
436,636.000,9.02575676985748,1151.0685702301425
437,637.000,1.7539950575630883,1152.948540942437
438,638.000,1.1193216376852888,1154.8293633623148
439,639.000,1.0230341007236348,1156.7110308992765
440,640.000,5.012891050083454,1158.5935369499166
441,641.000,3.8970671020226746,1160.4768748979773
442,642.000,8.89050488559974,1162.3610381144003
443,643.000,7.34538204261753,1164.2460199573825
444,644.000,11.335878227574312,1166.1318137724256
445,645.000,0.0,1168.018412892393
446,646.000,0.0,1169.9058106375592
447,647.000,0.0,1171.7940003156666
448,648.000,0.0,1173.6829752219764
449,649.000,6.630491360677752,1175.5727286393223
450,650.000,0.6636241618366512,1177.4632538381634
451,651.000,1.1117689233619785,1179.354544076638
452,652.000,6.9582603993833345,1181.2465926006166
453,653.000,2.337062356246406,1183.1393926437536
454,654.000,0.0,1185.0329374275434
455,655.000,12.839647838629617,1186.9272201613703
456,656.000,1.6505759574351941,1188.8222340425648
457,657.000,0.0,1190.7179722564538
458,658.000,3.559885023584684,1192.6144279764153
459,659.000,7.2626836360680045,1194.511594363932
460,660.000,1.277881431356036,1196.409464568644
461,661.000,7.629753271599611,1198.3080317284005
462,662.000,0.0,1200.207288969315
463,663.000,3.579962594181552,1202.1072294058185
464,664.000,8.051354859289859,1204.0078461407102
465,665.000,4.061376734786563,1205.9091322652134
466,666.000,12.96517514097286,1207.8110808590272
467,667.000,0.0,1209.7136849903804
468,668.000,6.277471283915929,1211.616937716084
469,669.000,0.0,1213.520832081584
470,670.000,0.0,1215.4253611210165
471,671.000,0.36228214274160564,1217.3305178572584
472,672.000,10.984234698017872,1219.2362953019822
473,673.000,0.0,1221.1426864557084
474,674.000,2.2826486921414926,1223.0496843078586
475,675.000,0.5912531631893216,1224.9572818368106
476,676.000,7.828359990052377,1226.8654720099476
477,677.000,0.0,1228.774247783715
478,678.000,2.830696896327936,1230.683602103672
479,679.000,15.87829609545497,1232.593527904545
480,680.000,6.243659889719311,1234.5040181102806
481,681.000,4.598334365901337,1236.4150656340987
482,682.000,0.0,1238.3266633785468
483,683.000,8.077956764449482,1240.2388042355506
484,684.000,16.42409891352986,1242.15148108647
485,685.000,2.6144731978490654,1244.0646868021508
486,686.000,2.982357757022328,1245.9784142429776
487,687.000,8.99666174107233,1247.8926562589277
488,688.000,1.4748013103755966,1249.8074056896244
489,689.000,7.223543635611804,1251.7226553643882
490,690.000,9.375043897706291,1253.6383981022936
491,691.000,15.455924287780817,1255.5546267122193
492,692.000,16.59798200709929,1257.4713339929008
493,693.000,12.326280267012862,1259.3885127329872
494,694.000,3.9970712889096376,1261.3061557110905
495,695.000,27.47966530415897,1263.224255695841
496,696.000,15.721403554060316,1265.1428054459398
497,697.000,16.924261289788546,1267.0617977102115
498,698.000,15.208699772341106,1268.9812252276588
499,699.000,30.60787327248636,1270.9010807275135
500,700.000,35.75092007070816,1272.8213569292918
501,701.000,34.131770457154516,1274.7420465428454
502,702.000,38.20842873158222,1276.6631422684177
503,703.000,46.146164203307535,1278.5846367966924
504,704.000,37.8710551911488,1280.5065228088513
505,705.000,62.7419930233757,1282.4287929766242
506,706.000,68.32444103765579,1284.351439962344
507,707.000,95.54384958100081,1286.274456418999
508,708.000,116.39916200971447,1288.1978349902856
509,709.000,135.3027866893367,1290.1215683106634
510,710.000,180.8859979945953,1292.0456490054048
511,711.000,210.15675530934777,1293.9700696906523
512,712.000,219.0809270265313,1295.8948229734688
513,713.000,209.20263754810867,1297.8199014518914
514,714.000,175.59012328501353,1299.7452977149865
515,715.000,141.8783836571015,1301.6710043428984
516,716.000,111.53061009309226,1303.5970139069077
517,717.000,85.50545203051865,1305.5233189694814
518,718.000,68.0748829156737,1307.4499120843263
519,719.000,55.381502203557375,1309.3767857964426
520,720.000,45.45913335782211,1311.3039326421779
521,721.000,27.611685850721415,1313.2313451492787
522,722.000,31.21205816305587,1315.159015836944
523,723.000,33.85738578411974,1317.0869372158802
524,724.000,30.096130211648642,1319.0151017883513
525,725.000,15.637293951765287,1320.9435020482347
526,726.000,12.952632518927203,1322.8721304810729
527,727.000,17.346358435873526,1324.8009795641265
528,728.000,17.68088923357118,1326.7300417664287
529,729.000,16.34706645116262,1328.6593095488374
530,730.000,0.0,1330.5887753640882
531,731.000,14.770697343151596,1332.5184316568484
532,732.000,17.72684613623005,1334.44827086377
533,733.000,20.14439058645894,1336.378285413541
534,734.000,8.994102273057933,1338.3084677269421
535,735.000,12.937701783103876,1340.2388102168961
536,736.000,5.4083057114755775,1342.1693052885244
537,737.000,13.876014660802184,1344.0999453391978
538,738.000,0.0,1346.03072275859
539,739.000,4.009764071267682,1347.9616299287322
540,740.000,0.061296775935943515,1349.8926592240641
541,741.000,8.261187988510756,1351.8238030114892
542,742.000,3.2223073495740664,1353.755053650426
543,743.000,1.597751507136536,1355.6864034928635
544,744.000,13.313059116588875,1357.6178448834112
545,745.000,0.6049038406445106,1359.5493701593555
546,746.000,10.661115349289503,1361.4809716507104
547,747.000,0.341850319727655,1363.4126416802724
548,748.000,0.0,1365.344372563672
549,749.000,0.0,1367.2761566094287
550,750.000,3.653376880997712,1369.2079861190023
551,751.000,6.578942613152776,1371.1398533868473
552,752.000,1.5709992995339235,1373.071750700466
553,753.000,10.321585659538869,1375.0036703404612
554,754.000,6.581441419410794,1376.9356045805891
555,755.000,4.599627312186385,1378.8675456878136
556,756.000,6.667947077642111,1380.799485922358
557,757.000,7.260143462240876,1382.7314175377592
558,758.000,17.158545219079542,1384.6633327809204
559,759.000,0.0,1386.5952238921643
560,760.000,0.0,1388.5270831052874
561,761.000,7.61315535238964,1390.4589026476103
562,762.000,3.6669302599657385,1392.3906747400342
563,763.000,0.0,1394.3223915970916
564,764.000,4.570930572999032,1396.254045427001
565,765.000,1.0165845682813597,1398.1856284317187
566,766.000,0.0,1400.1171328069931
567,767.000,7.27954925758263,1402.0485507424173
568,768.000,0.0,1403.9798744214827
569,769.000,6.340051978368365,1405.9110960216317
570,770.000,0.5230952856895783,1407.8422077143105
571,771.000,11.910750334976683,1409.7732016650234
572,772.000,5.6286539666150475,1411.704070033385
573,773.000,5.175872026826255,1413.6348049731737
574,774.000,4.486541367615246,1415.5653986323848
575,775.000,8.875875846716326,1417.4958431532837
576,776.000,0.0,1419.4261306724593
577,777.000,0.0,1421.356253320876
578,778.000,9.010114776071305,1423.2862032239286
579,779.000,5.501227498505614,1425.2159725014944
580,780.000,0.0,1427.145553267987
581,781.000,0.0,1429.0749376324072
582,782.000,0.29216230159977385,1431.0041176984003
583,783.000,14.251877435694269,1432.9330855643057
584,784.000,0.0,1434.8618333232107
585,785.000,10.201501936994418,1436.7903530630056
586,786.000,0.0,1438.7186368664347
587,787.000,0.13687218884979302,1440.6466768111502
588,788.000,5.749259030234725,1442.5744649697654
589,789.000,0.0,1444.5019934099087
590,790.000,4.2364698057258465,1446.429254194274
591,791.000,3.6387796193223494,1448.3562393806776
592,792.000,7.46892497789122,1450.2829410221088
593,793.000,1.037498833216432,1452.2093511667836
594,794.000,1.0050961418014595,1454.1354618581986
595,795.000,0.0,1456.061265135183
596,796.000,0.0,1457.986753031952
597,797.000,0.0,1459.9119175781616
598,798.000,0.3417672010411934,1461.8367507989587
599,799.000,15.078566284962335,1463.7612447150377
600,800.000,0.0,1465.6853913426908
601,801.000,0.0,1467.6091826938632
602,802.000,10.271193223795763,1469.5326107762041
603,803.000,0.0,1471.4556675931226
604,804.000,14.328678856162469,1473.3783451438376
605,805.000,4.95899357656549,1475.3006354234344
606,806.000,0.0,1477.2225304229157
607,807.000,1.4411948707454485,1479.1440221292546
608,808.000,4.942253474550398,1481.0651025254497
609,809.000,5.325352409425022,1482.985763590575
610,810.000,4.953676700163214,1484.9059972998368
611,811.000,1.0128563753760318,1486.8257956246239
612,812.000,11.581923467437036,1488.745150532563
613,813.000,6.971154012430588,1490.6640539875693
614,814.000,0.0,1492.5824979499027
615,815.000,1.1930926237816948,1494.5004743762183
616,816.000,0.0,1496.4179752196212
617,817.000,4.451250570281445,1498.3349924297186
618,818.000,7.6361940473263985,1500.2515179526736
619,819.000,3.5225222687411133,1502.1675437312588
620,820.000,0.5547912950921727,1504.0830617049078
621,821.000,0.0,1505.99806380977
622,822.000,3.274478021236746,1507.9125419787633
623,823.000,0.0,1509.8264881416271
624,824.000,3.8458097750244633,1511.7398942249756
625,825.000,8.256285847650588,1513.6527521523494
626,826.000,9.432958155727647,1515.5650538442724
627,827.000,18.439581781699417,1517.4767912183006
628,828.000,7.522803810921005,1519.387956189079
629,829.000,0.0,1521.2985406683915
630,830.000,7.803311434783609,1523.2085365652165
631,831.000,0.0,1525.117935785779
632,832.000,0.0,1527.0267302336042
633,833.000,0.0,1528.9349118095697
634,834.000,0.0,1530.84247241196
635,835.000,2.63854706348161,1532.7494039365183
636,836.000,0.0,1534.655698276501
637,837.000,5.862323677270524,1536.5613473227295
638,838.000,8.957503036355092,1538.4663429636448
639,839.000,6.056185914640309,1540.3706770853596
640,840.000,0.3064594282886901,1542.2743415717114
641,841.000,5.042174695683798,1544.1773283043162
642,842.000,1.4944438373775029,1546.0796291626225
643,843.000,0.0,1547.9812360239612
644,844.000,0.0,1549.8821407636033
645,845.000,0.0,1551.7823352548094
646,846.000,0.0,1553.6818113688842
647,847.000,0.0,1555.5805609752301
648,848.000,8.992845058599642,1557.4785759414003
649,849.000,7.385851866849862,1559.3758481331502
650,850.000,13.132859585507504,1561.2723694144925
651,851.000,6.618263352248505,1563.1681316477516
652,852.000,0.0,1565.0631266936111
653,853.000,0.0,1566.9573464111745
654,854.000,10.993753341987485,1568.8507826580126
655,855.000,5.160864709780753,1570.7434272902192
656,856.000,0.0,1572.635272162464
657,857.000,10.942388871955472,1574.5263091280444
658,858.000,9.927155961058588,1576.4165300389413
659,859.000,0.0,1578.3059267458698
660,860.000,0.0,1580.194491098333
661,861.000,3.16870005532337,1582.0822149446767
662,862.000,0.0,1583.9690901321396
663,863.000,0.0,1585.8551085069093
664,864.000,0.0,1587.740261914174
665,865.000,0.0,1589.6245421981753
666,866.000,1.967152797736162,1591.5079412022637
667,867.000,9.230709231052288,1593.3904507689476
668,868.000,0.7677232600487969,1595.2720627399513
669,869.000,10.500621043736373,1597.1527689562636
670,870.000,0.0,1599.0325612581946
671,871.000,6.02491551457274,1600.9114314854273
672,872.000,5.333750522929677,1602.7893714770703
673,873.000,0.5727029282891181,1604.666373071711
674,874.000,7.912708892529281,1606.5424281074706
675,875.000,0.0,1608.417528422055
676,876.000,0.0,1610.2916658528088
677,877.000,6.363965763230908,1612.1648322367691
678,878.000,11.87642058928327,1614.0370194107168
679,879.000,4.505212788767267,1615.9082192112328
680,880.000,3.7350765252517704,1617.7784234747483
681,881.000,0.0,1619.6476240375987
682,882.000,2.61910926392261,1621.5158127360774
683,883.000,0.0,1623.3829814064889
684,884.000,0.0,1625.249121885202
685,885.000,2.5850609912977234,1627.1142260087022
686,886.000,0.0,1628.978285613644
687,887.000,5.63150846309145,1630.8412925369084
688,888.000,0.0,1632.7032386156498
689,889.000,0.0,1634.5641156873544
690,890.000,5.383570410109087,1636.4239155898908
691,891.000,0.0,1638.2826301615637
692,892.000,13.365114758834125,1640.140251241166
693,893.000,1.898731331965564,1641.9967706680345
694,894.000,0.0,1643.852180282101
695,895.000,8.377654076053886,1645.706471923946
696,896.000,0.0,1647.5596374348515
697,897.000,8.517402343145022,1649.411668656855
698,898.000,8.791084567198823,1651.2625574328013
699,899.000,5.8999983936023455,1653.1122956063978
700,900.000,0.0,1654.960875022265
701,901.000,7.677546474007158,1656.808287525993
702,902.000,8.303168035810131,1658.65452496419
703,903.000,1.6189278154599833,1660.49957918454
704,904.000,3.8134039641461186,1662.343442035854
705,905.000,0.0,1664.1861053681223
706,906.000,4.683216967430553,1666.0275610325693
707,907.000,0.0,1667.8678008817064
708,908.000,4.5358462306166984,1669.7068167693833
709,909.000,0.0,1671.5446005508443
710,910.000,6.812316917222915,1673.3811440827772
711,911.000,1.0090937766274237,1675.2164392233726
712,912.000,6.238518167629763,1677.0504778323702
713,913.000,0.0,1678.8832517711166
714,914.000,0.0,1680.7147529026165
715,915.000,0.0,1682.5449730915875
716,916.000,0.0,1684.3739042045108
717,917.000,4.014784890313422,1686.2015381096867
718,918.000,0.0,1688.027866677286
719,919.000,6.799518220595473,1689.8528817794045
720,920.000,0.0,1691.6765752901156
721,921.000,2.8596069144778085,1693.4989390855221
722,922.000,11.095153956187232,1695.3199650438128
723,923.000,9.624425954687922,1697.1396450453121
724,924.000,4.005010027465005,1698.957970972535
725,925.000,0.0,1700.77493471024
726,926.000,0.0,1702.5905281454816
727,927.000,0.0,1704.4047431676645
728,928.000,0.0,1706.217571668596
729,929.000,0.0,1708.0290055425394
730,930.000,6.198288313732746,1709.8390366862673
731,931.000,1.8414820008867991,1711.6476569991132
732,932.000,0.0,1713.4548583830287
733,933.000,0.4778352573680422,1715.260632742632
734,934.000,8.345801014736935,1717.0649719852631
735,935.000,0.0,1718.8678680210373
736,936.000,9.057350237100763,1720.6693127628992
737,937.000,0.0,1722.4692981266721
738,938.000,0.0,1724.2678160311152
739,939.000,2.8428506020250097,1726.064858397975
740,940.000,11.622283847960716,1727.8604171520392
741,941.000,0.1890417788117702,1729.6544842211883
742,942.000,0.0,1731.4470515364505
743,943.000,0.0,1733.238111032054
744,944.000,3.8345803545203125,1735.0276546454797
745,945.000,3.8973906824840014,1736.815674317516
746,946.000,0.0,1738.60216199231
747,947.000,1.283451382577823,1740.387109617422
748,948.000,0.1390068561215685,1742.1705091438785
749,949.000,0.0,1743.9523525262239
750,950.000,0.0,1745.7326317225766
751,951.000,2.6322593053214405,1747.5113386946787
752,952.000,4.036494592047347,1749.2884654079526
753,953.000,10.523746168449861,1751.06400383155
754,954.000,2.0143440615904638,1752.8379459384096
755,955.000,0.0,1754.6102837053068
756,956.000,0.0,1756.3810091129094
757,957.000,0.0,1758.1501141458284
758,958.000,0.26743520732770776,1759.9175907926724
759,959.000,0.0,1761.6834310461013
760,960.000,8.962555097121822,1763.4476269028783
761,961.000,0.0,1765.2101703639228
762,962.000,0.0,1766.9710534343662
763,963.000,0.0,1768.7302681236015
764,964.000,1.1502205546612458,1770.4878064453387
765,965.000,5.840326582342641,1772.2436604176573
766,966.000,0.0,1773.9978220630592
767,967.000,0.0,1775.7502834085226
768,968.000,0.0,1777.5010364855548
769,969.000,8.112244669755,1779.250073330245
770,970.000,0.0,1780.9973859833171
771,971.000,0.0,1782.7429664901852
772,972.000,9.760711098996353,1784.4868069010035
773,973.000,4.595457729278678,1786.2288992707213
774,974.000,0.0,1787.9692356591358
775,975.000,7.840882869053075,1789.707808130947
776,976.000,8.178178244194214,1791.4446087558058
777,977.000,0.47893539162600973,1793.179629608374
778,978.000,6.789089231628623,1794.9128627683713
779,979.000,12.751472679367225,1796.6443003206327
780,980.000,4.624363644839832,1798.3739343551601
781,981.000,12.856536032825943,1800.101756967174
782,982.000,0.6429067428302915,1801.8277602571698
783,983.000,7.995045669032379,1803.5519363309677
784,984.000,1.86209270023096,1805.274277299769
785,985.000,0.0,1806.9947752802068
786,986.000,0.0,1808.7134223943995
787,987.000,1.101982229994519,1810.4302107700055
788,988.000,5.96150245972558,1812.1451325402745
789,989.000,6.3135451558976,1813.8581798441023
790,990.000,0.0,1815.5693448260822
791,991.000,2.6921173634400475,1817.27861963656
792,992.000,1.6385575683143543,1818.9859964316856
793,993.000,5.83436662653321,1820.6914673734668
794,994.000,5.822806370176295,1822.3950246298236
795,995.000,0.0,1824.0966603746378
796,996.000,1.275957212188814,1825.7963667878112
797,997.000,0.0,1827.4941360553148
798,998.000,6.134423630757283,1829.1899603692427
799,999.000,0.0,1830.8838319278675
800,1000.000,0.0,1832.57574293569
801,1001.000,0.0,1834.2656856034955
802,1002.000,4.294133851594779,1835.9536521484051
803,1003.000,0.0,1837.6396347939294
804,1004.000,0.0,1839.3236257700214
805,1005.000,6.733775686869876,1841.0056173131302
806,1006.000,0.0,1842.6856016662532
807,1007.000,7.961107921009216,1844.3635710789908
808,1008.000,5.227061192402289,1846.0395178075978
809,1009.000,0.0,1847.7134341150377
810,1010.000,0.0,1849.3853122710357
811,1011.000,2.6628864478686864,1851.0551445521314
812,1012.000,6.955018758266988,1852.722923241733
813,1013.000,0.0,1854.388640630168
814,1014.000,1.4901649852595256,1856.0522890147404
815,1015.000,5.1581403002207935,1857.7138606997792
816,1016.000,11.149457003304633,1859.3733479966954
817,1017.000,14.74575977596669,1861.0307432240334
818,1018.000,7.059269292476529,1862.6860387075235
819,1019.000,8.945982219862572,1864.3392267801373
820,1020.000,17.435565217861722,1865.9902997821382
821,1021.000,0.0,1867.6392500611373
822,1022.000,3.156136027857201,1869.2860699721427
823,1023.000,0.31125212238225686,1870.9307518776177
824,1024.000,12.77578185246989,1872.57328814753
825,1025.000,1.530978840593889,1874.2136711594062
826,1026.000,0.8814377016146864,1875.8518932983852
827,1027.000,0.0,1877.487946957271
828,1028.000,0.0,1879.1218245365853
829,1029.000,6.373736555377263,1880.7535184446228
830,1030.000,8.408524902498812,1882.3830210975011
831,1031.000,2.2544050807830445,1884.010324919217
832,1032.000,13.847084658302947,1885.635422341697
833,1033.000,0.0,1887.2583058048526
834,1034.000,3.9844042433671802,1888.8789677566328
835,1035.000,9.59517434692384,1890.497400653076
836,1036.000,3.2835340416347663,1892.1135969583652
837,1037.000,8.86632685512086,1893.727549144879
838,1038.000,7.571269306753038,1895.339249693247
839,1039.000,13.65829090759894,1896.948691092401
840,1040.000,3.999109160370608,1898.5558658396294
841,1041.000,4.78011955936995,1900.1607664406301
842,1042.000,10.689658590435783,1901.7633854095643
843,1043.000,11.038807730894177,1903.3637152691058
844,1044.000,11.59684244949949,1904.9617485505005
845,1045.000,0.6477102063849998,1906.557477793615
846,1046.000,9.635462453009268,1908.1508955469908
847,1047.000,11.433266632101777,1909.7419943678983
848,1048.000,5.583188177611191,1911.3307668223888
849,1049.000,11.981725514651998,1912.917205485348
850,1050.000,24.341023059449526,1914.5013029405504
851,1051.000,8.951336219289715,1916.0830517807103
852,1052.000,14.94953639246296,1917.662444607537
853,1053.000,0.299534968214175,1919.239474031786
854,1054.000,17.52746732668652,1920.8141326733135
855,1055.000,7.132646838870642,1922.3864131611294
856,1056.000,24.127621866549134,1923.9563081334509
857,1057.000,9.605958762246019,1925.5238102377539
858,1058.000,11.100170869172189,1927.0889121308278
859,1059.000,10.543731521171594,1928.6516064788284
860,1060.000,18.48564404266972,1930.2118859573302
861,1061.000,24.12278674862,1931.76974325138
862,1062.000,25.91682294444763,1933.3251710555523
863,1063.000,21.980948926003066,1934.878162073997
864,1064.000,33.879918979501554,1936.4287090204984
865,1065.000,29.60461038147514,1937.976804618525
866,1066.000,34.12891839871622,1939.5224416012838
867,1067.000,38.62463728822695,1941.0656127117732
868,1068.000,31.639932297164705,1942.6063107028353
869,1069.000,36.323933662788704,1944.1445283372113
870,1070.000,46.67301361240766,1945.6802583875924
871,1071.000,48.37540936332675,1947.2134936366733
872,1072.000,55.16980112279248,1948.7442268772074
873,1073.000,70.39470608794295,1950.2724509120571
874,1074.000,77.04363244575165,1951.7981585542484
875,1075.000,84.27717037297543,1953.3213426270245
876,1076.000,104.15130303610249,1954.8419959638977
877,1077.000,129.33859159129588,1956.3601114087041
878,1078.000,162.33267018434526,1957.8756818156548
879,1079.000,187.3641509506083,1959.388700049392
880,1080.000,242.45394201496265,1960.8991589850375
881,1081.000,319.98288449174834,1962.4070515082517
882,1082.000,431.6702664847194,1963.9123705152806
883,1083.000,567.2800020869854,1965.4151089130146
884,1084.000,759.6194793809614,1966.9152596190388
885,1085.000,915.2427464383154,1968.4128155616845
886,1086.000,993.5071873199131,1969.9077696800869
887,1087.000,926.0030650757662,1971.4001149242335
888,1088.000,741.6696237449787,1972.8898442550212
889,1089.000,565.375848355693,1974.3769506443068
890,1090.000,438.0650829250385,1975.8614270749613
891,1091.000,326.2933964590784,1977.3432665409218
892,1092.000,257.16036495275193,1978.8224620472479
893,1093.000,200.05067438982996,1980.2990066101702
894,1094.000,154.30523874285245,1981.7728932571476
895,1095.000,129.50956797308208,1983.2441150269178
896,1096.000,114.95223803044792,1984.712664969552
897,1097.000,94.70416485349324,1986.1785361465068
898,1098.000,77.66659936932228,1987.6417216306777
899,1099.000,67.63845849354539,1989.1022145064544
900,1100.000,60.98526813022954,1990.5600078697703
901,1101.000,55.39841817184197,1992.015094828158
902,1102.000,40.36030249919827,1993.4674685008017
903,1103.000,36.91595498140873,1994.9171220185913
904,1104.000,29.90794547582641,1996.3640485241735
905,1105.000,34.18444382799203,1997.808241172008
906,1106.000,36.309682871582254,1999.2496931284177
907,1107.000,29.02430242835635,2000.6883975716437
908,1108.000,23.370516308103333,2002.1243476918967
909,1109.000,16.821817308586787,2003.5575366914131
910,1110.000,18.62633721549514,2004.987957784505
911,1111.000,18.864018802384635,2006.4156041976153
912,1112.000,24.10110183062966,2007.8404691693704
913,1113.000,15.892036049367334,2009.2625459506326
914,1114.000,23.667448195446468,2010.6818278045534
915,1115.000,11.971002993370575,2012.0983080066294
916,1116.000,20.99357415524878,2013.5119798447513
917,1117.000,12.315799380741282,2014.9228366192588
918,1118.000,2.162256357004935,2016.3308716429951
919,1119.000,6.695943758641988,2017.736078241358
920,1120.000,11.292675247646002,2019.138449752354
921,1121.000,8.875189473347746,2020.5379795266522
922,1122.000,10.986794072365456,2021.9346609276345
923,1123.000,13.497077668546353,2023.3284873314537
924,1124.000,6.966470872918308,2024.7194521270817
925,1125.000,14.465987283634377,2026.1075487163657
926,1126.000,0.0,2027.4927705140803
927,1127.000,7.137057052019145,2028.8751109479808
928,1128.000,12.289694541143945,2030.254563458856
929,1129.000,2.3231334994179633,2031.6311215005821
930,1130.000,4.243039459824331,2033.0047785401757
931,1131.000,3.617237942154361,2034.3755280578457
932,1132.000,8.671274452951138,2035.7433635470488
933,1133.000,6.683532485460091,2037.10827851454
934,1134.000,1.7871725195718682,2038.470266480428
935,1135.000,8.576352021771982,2039.8293209782282
936,1136.000,18.00624644508798,2041.1854355549121
937,1137.000,8.347838229032277,2042.5386037709677
938,1138.000,14.450696799555772,2043.8888192004442
939,1139.000,0.0,2045.2360754310116
940,1140.000,6.738026935987364,2046.5803660640127
941,1141.000,0.0,2047.9216847145126
942,1142.000,0.0,2049.260025011355
943,1143.000,5.315882402783245,2050.5953805972167
944,1144.000,7.047824871342982,2051.927745128657
945,1145.000,14.726782723827,2053.257112276173
946,1146.000,0.0,2054.5834757242524
947,1147.000,18.749786828572724,2055.9068291714275
948,1148.000,3.6819856696738498,2057.2271663303263
949,1149.000,0.0,2058.5444809277283
950,1150.000,4.389056295385217,2059.858766704615
951,1151.000,9.819869583774562,2061.1700174162256
952,1152.000,3.837419167893131,2062.478226832107
953,1153.000,0.0,2063.783388736171
954,1154.000,2.4096900732561153,2065.085496926744
955,1155.000,0.0,2066.384545216621
956,1156.000,3.716131566879085,2067.680527433121
957,1157.000,5.2999785818637974,2068.973437418136
958,1158.000,12.011106971810477,2070.2632690281894
959,1159.000,13.559131865517429,2071.5500161344826
960,1160.000,7.638118377044975,2072.833672622955
961,1161.000,0.0,2074.114232394333
962,1162.000,15.642574635816345,2075.3916893641835
963,1163.000,11.660891537031603,2076.6660374629682
964,1164.000,0.0,2077.937270636096
965,1165.000,9.195269156023187,2079.2053828439766
966,1166.000,1.160738937926908,2080.4703680620732
967,1167.000,0.0,2081.7322202809564
968,1168.000,3.5845434936436504,2082.990933506356
969,1169.000,3.2540292407834386,2084.2465017592167
970,1170.000,6.335956924252969,2085.498919075747
971,1171.000,0.08144549252256184,2086.7481795074773
972,1172.000,0.0,2087.9942771213096
973,1173.000,6.177358000429194,2089.237205999571
974,1174.000,2.0918897599308366,2090.4769602400693
975,1175.000,6.427092043856646,2091.7135339561432
976,1176.000,2.119532723282191,2092.9469212767176
977,1177.000,0.0,2094.177116346355
978,1178.000,17.504448674690593,2095.4041133253095
979,1179.000,10.661310610419605,2096.6279063895804
980,1180.000,0.0,2097.8484897309654
981,1181.000,0.0,2099.065857557112
982,1182.000,7.458242908426655,2100.280004091573
983,1183.000,7.641640426141748,2101.4909235738583
984,1184.000,0.0,2102.6986102594874
985,1185.000,2.4850715799534555,2103.9030584200464
986,1186.000,2.7044696567663777,2105.1042623432336
987,1187.000,8.8177106670787,2106.3022163329215
988,1188.000,5.473604290796175,2107.496914709204
989,1189.000,4.641973191548914,2108.688351808451
990,1190.000,2.2436600166370226,2109.876521983363
991,1191.000,0.0,2111.0614196030215
992,1192.000,0.0,2112.2430390529457
993,1193.000,1.776243264857385,2113.4213747351428
994,1194.000,0.0,2114.596421068161
995,1195.000,10.879465512853585,2115.7681724871463
996,1196.000,1.4490305561098467,2116.9366234438903
997,1197.000,7.370131593111637,2118.1017684068884
998,1198.000,0.7043031386106122,2119.2636018613894
999,1199.000,0.8660596905492639,2120.4221183094505
1000,1200.000,0.9661247300100513,2121.5773122699898
1001,1201.000,2.065135721160459,2122.7291782788398
1002,1202.000,3.0201201112008675,2123.8777108887994
1003,1203.000,1.0124473303103514,2125.0229046696895
1004,1204.000,0.0,2126.1647542084033
1005,1205.000,8.079913891038359,2127.3032541089615
1006,1206.000,1.0734140074350762,2128.438398992565
1007,1207.000,0.0,2129.570183497646
1008,1208.000,0.8312917200732954,2130.6986022799265
1009,1209.000,4.619858987535736,2131.8236500124644
1010,1210.000,7.974618614288829,2132.9453213857114
1011,1211.000,0.0,2134.063611107566
1012,1212.000,15.681228096575978,2135.178513903424
1013,1213.000,0.0,2136.2900245162346
1014,1214.000,3.4162672934494367,2137.3981377065506
1015,1215.000,7.789130747415584,2138.5028482525845
1016,1216.000,5.604698049740364,2139.6041509502597
1017,1217.000,3.816626386734697,2140.702040613265
1018,1218.000,0.0,2141.796512073106
1019,1219.000,0.0,2142.8875601791597
1020,1220.000,0.0,2143.9751797987274
1021,1221.000,0.0,2145.0593658170874
1022,1222.000,10.296620862451164,2146.1401131375487
1023,1223.000,1.403774318496744,2147.2174166815034
1024,1224.000,3.5082796115184465,2148.2912713884816
1025,1225.000,0.0,2149.361672216201
1026,1226.000,0.0,2150.428614140625
1027,1227.000,9.027267843988284,2151.4920921560115
1028,1228.000,4.135463725032423,2152.5521012749678
1029,1229.000,7.003926471495106,2153.608636528505
1030,1230.000,6.284077033911217,2154.6616929660886
1031,1231.000,0.0,2155.7112656556938
1032,1232.000,11.301839316143287,2156.757349683857
1033,1233.000,5.757890844270605,2157.7999401557295
1034,1234.000,2.3805728048669152,2158.839032195133
1035,1235.000,1.6003140553925732,2159.8746209446076
1036,1236.000,8.815291434529627,2160.9067015654705
1037,1237.000,7.257449762134456,2161.9352692378657
1038,1238.000,0.0,2162.960319160818
1039,1239.000,0.43441644771382926,2163.9818465522862
1040,1240.000,10.151227350782847,2164.999846649217
1041,1241.000,0.0,2166.0143147075974
1042,1242.000,1.2647669974935525,2167.0252460025063
1043,1243.000,0.0,2168.032635828172
1044,1244.000,9.10809450197985,2169.03647949802
1045,1245.000,2.7185276552686446,2170.036772344731
1046,1246.000,2.3961842797093595,2171.0335097202906
1047,1247.000,0.0,2172.0266869960437
1048,1248.000,0.7794434372517571,2173.0162995627484
1049,1249.000,0.0,2174.0023428306276
1050,1250.000,0.0,2174.984812229424
1051,1251.000,8.483096791549087,2175.963703208451
1052,1252.000,6.405674763350817,2176.939011236649
1053,1253.000,5.470552197366487,2177.9107318026336
1054,1254.000,17.564225585245367,2178.878860414755
1055,1255.000,5.156266398854314,2179.8433926011458
1056,1256.000,0.0,2180.804323909777
1057,1257.000,1.3244360914886784,2181.761649908511
1058,1258.000,0.0,2182.7153661851535
1059,1259.000,5.997007652491902,2183.665468347508
1060,1260.000,0.0,2184.6119520234274
1061,1261.000,0.0,2185.5548128608684
1062,1262.000,2.4356934720540266,2186.494046527946
1063,1263.000,0.0,2187.4296487129823
1064,1264.000,0.0,2188.361615124564
1065,1265.000,0.0,2189.2899414915937
1066,1266.000,5.256385436657183,2190.2146235633427
1067,1267.000,0.0,2191.1356571095052
1068,1268.000,1.767196079747464,2192.0530379202523
1069,1269.000,0.0,2192.966761806281
1070,1270.000,0.0,2193.8768245988713
1071,1271.000,1.7804958500605608,2194.7832221499393
1072,1272.000,0.0,2195.685950332089
1073,1273.000,7.269787961335169,2196.585005038665
1074,1274.000,0.8675678161935139,2197.4803821838063
1075,1275.000,6.104303297499882,2198.3720777025
1076,1276.000,0.0,2199.260087550635
1077,1277.000,5.345402294947689,2200.1444077050523
1078,1278.000,6.5948618363991045,2201.025034163601
1079,1279.000,2.130356054809454,2201.9019629451905
1080,1280.000,0.0,2202.775190089844
1081,1281.000,0.0,2203.6447116587497
1082,1282.000,0.21371126568283216,2204.5105237343173
1083,1283.000,5.078476579770268,2205.3726224202296
1084,1284.000,2.159782158506914,2206.231003841493
1085,1285.000,0.0,2207.0856641444957
1086,1286.000,0.0,2207.936599497058
1087,1287.000,6.468648911516084,2208.7838060884837
1088,1288.000,3.405818870382973,2209.6272801296172
1089,1289.000,9.201978147105365,2210.4670178528945
1090,1290.000,2.230025487604962,2211.303015512395
1091,1291.000,1.6703466161006872,2212.1352693838994
1092,1292.000,0.0,2212.9637757649366
1093,1293.000,0.0,2213.7885309748413
1094,1294.000,0.0,2214.6095313548053
1095,1295.000,0.0,2215.426773267932
1096,1296.000,0.0,2216.240253099288
1097,1297.000,3.117991744041774,2217.049967255958
1098,1298.000,4.935761832904973,2217.855912167095
1099,1299.000,2.350935716022832,2218.658084283977
1100,1300.000,0.0,2219.4564800800586
1101,1301.000,0.0,2220.2510960510226
1102,1302.000,0.0,2221.0419287148366
1103,1303.000,0.0,2221.828974611802
1104,1304.000,5.07073669538795,2222.6122303046122
1105,1305.000,14.478740621600082,2223.3916923784
1106,1306.000,6.504196559204956,2224.167357440795
1107,1307.000,0.0,2224.939222121977
1108,1308.000,0.0,2225.707283074724
1109,1309.000,4.8202110255283515,2226.4715369744717
1110,1310.000,3.848589480636292,2227.231980519364
1111,1311.000,5.744363569696816,2227.988610430303
1112,1312.000,0.0,2228.7414234510097
1113,1313.000,6.84487465193024,2229.4904163480696
1114,1314.000,2.152727089011023,2230.235585910989
1115,1315.000,0.0,2230.9769289522496
1116,1316.000,1.1226096926420723,2231.714442307358
1117,1317.000,2.388015165096931,2232.448122834903
1118,1318.000,2.1897735833927072,2233.1779674166073
1119,1319.000,7.081107042623444,2233.9039729573765
1120,1320.000,6.865484614640536,2234.6261363853596
1121,1321.000,2.558449348004615,2235.3444546519954
1122,1322.000,0.7771002679282901,2236.058924732072
1123,1323.000,1.7966623762267773,2236.769543623773
1124,1324.000,0.0,2237.4763083487373
1125,1325.000,12.082206047892214,2238.179215952108
1126,1326.000,6.947340497414643,2238.8782635025855
1127,1327.000,9.289115907516134,2239.573448092484
1128,1328.000,0.6789331622180725,2240.2647668377817
1129,1329.000,8.094439121825417,2240.9522168781746
1130,1330.000,6.419970622869641,2241.6357953771303
1131,1331.000,0.4854824780591116,2242.315499521941
1132,1332.000,0.0,2242.991326523776
1133,1333.000,3.84877738226578,2243.6632736177344
1134,1334.000,0.0,2244.3313380629015
1135,1335.000,3.8574278576033976,2244.9955171423967
1136,1336.000,0.0,2245.6558081634316
1137,1337.000,4.278133542639807,2246.31220845736
1138,1338.000,0.0,2246.9647153797337
1139,1339.000,3.6846716896484395,2247.6133263103516
1140,1340.000,0.0,2248.258038653317
1141,1341.000,4.741736162911366,2248.8988498370886
1142,1342.000,0.0,2249.535757314535
1143,1343.000,4.063067437013615,2250.1687585629866
1144,1344.000,0.0,2250.7978510842877
1145,1345.000,0.0,2251.423032404853
1146,1346.000,8.213997924281557,2252.0443000757186
1147,1347.000,6.305670327405096,2252.661651672595
1148,1348.000,0.0,2253.27508479592
1149,1349.000,0.0,2253.884597070914
1150,1350.000,0.0,2254.4901861476305
1151,1351.000,1.3673702989885896,2255.0918497010116
1152,1352.000,0.0,2255.689585430939
1153,1353.000,0.0,2256.283391062288
1154,1354.000,2.0649236550170826,2256.873264344983
1155,1355.000,10.606723945954855,2257.4592030540452
1156,1356.000,0.0,2258.0412049896513
1157,1357.000,0.0,2258.619267977184
1158,1358.000,15.136489132715724,2259.193389867284
1159,1359.000,0.0,2259.763568535908
1160,1360.000,3.818442115624748,2260.3298018843752
1161,1361.000,0.0,2260.8920878394256
1162,1362.000,5.262339646729288,2261.4504243532706
1163,1363.000,0.9362745963521775,2262.004809403648
1164,1364.000,0.0,2262.555240993872
1165,1365.000,0.0,2263.101717152891
1166,1366.000,6.905760064663809,2263.6442359353364
1167,1367.000,16.78422757842236,2264.182795421578
1168,1368.000,0.0,2264.7173937177763
1169,1369.000,0.0,2265.248028955938
1170,1370.000,9.919619706036428,2265.7746992939637
1171,1371.000,0.0,2266.2974029157085
1172,1372.000,2.6199039689722667,2266.8161380310275
1173,1373.000,1.0590231241635593,2267.3309028758363
1174,1374.000,5.468432287842461,2267.8416957121576
1175,1375.000,1.4782491718219717,2268.348514828178
1176,1376.000,12.257219461698696,2268.851358538301
1177,1377.000,4.230821816799562,2269.3502251832006
1178,1378.000,0.08683487012922342,2269.8451131298707
1179,1379.000,2.603098228316867,2270.3360207716833
1180,1380.000,0.0,2270.822946528438
1181,1381.000,0.0,2271.305888846418
1182,1382.000,11.711694801559588,2271.7848461984404
1183,1383.000,3.266976916089334,2272.2598170839105
1184,1384.000,7.800226971122811,2272.730800028877
1185,1385.000,0.0,2273.197793586082
1186,1386.000,0.0,2273.6607963350143
1187,1387.000,0.0,2274.119806881967
1188,1388.000,0.0,2274.5748238600845
1189,1389.000,7.271912070580129,2275.02584592942
1190,1390.000,1.412405223013593,2275.4728717769863
1191,1391.000,0.0,2275.915900116811
1192,1392.000,1.7112243100132218,2276.354929689987
1193,1393.000,0.3023607352720319,2276.789959264728
1194,1394.000,4.728562363577112,2277.2209876364227
1195,1395.000,0.0,2277.6480136276823
1196,1396.000,13.872174911599814,2278.0710360884
1197,1397.000,6.407997104199239,2278.490053895801
1198,1398.000,5.6934190455035605,2278.9050659544964
1199,1399.000,0.0,2279.316071196535
1200,1400.000,0.6366044185392639,2279.7230685814607
1201,1401.000,13.38352990364092,2280.126057096359
1202,1402.000,13.061084244084213,2280.5250357559157
1203,1403.000,3.850540397531404,2280.9200036024686
1204,1404.000,0.0,2281.310959706058
1205,1405.000,0.0,2281.6979031644846
1206,1406.000,10.719928896641704,2282.080833103358
1207,1407.000,13.996866323846461,2282.4597486761536
1208,1408.000,4.225537935736156,2282.834649064264
1209,1409.000,9.754085522950845,2283.2055334770494
1210,1410.000,12.890929848102587,2283.5724011518973
1211,1411.000,16.768809645729107,2283.935251354271
1212,1412.000,20.84447162223796,2284.294083377762
1213,1413.000,7.3426314558532795,2284.6488965441467
1214,1414.000,16.005022796562116,2284.9996902034377
1215,1415.000,9.66210326606415,2285.3464637339357
1216,1416.000,15.164157457715191,2285.6892165422846
1217,1417.000,27.503039936476398,2286.0279480635236
1218,1418.000,20.61333523885787,2286.362657761142
1219,1419.000,11.519487872869377,2286.6933451271307
1220,1420.000,23.36629031796565,2287.0200096820345
1221,1421.000,31.74059202499211,2287.342650975008
1222,1422.000,34.34499341613355,2287.6612685838663
1223,1423.000,30.460522884860893,2287.975862115139
1224,1424.000,30.913145795874243,2288.2864312041256
1225,1425.000,40.134279485056595,2288.592975514943
1226,1426.000,39.0329812594141,2288.895494740586
1227,1427.000,42.82931839702678,2289.193988602973
1228,1428.000,47.0473291469948,2289.488456853005
1229,1429.000,49.544234729382424,2289.778899270618
1230,1430.000,63.843861335170004,2290.06531566483
1231,1431.000,70.0541351261968,2290.347705873803
1232,1432.000,65.19746923510775,2290.6260697648922
1233,1433.000,74.5777307653052,2290.9004072346947
1234,1434.000,71.9522857908878,2291.1707182091122
1235,1435.000,82.95301535660474,2291.4370026433953
1236,1436.000,90.12835847779934,2291.699260522201
1237,1437.000,75.78118914035349,2291.9574918596463
1238,1438.000,71.93845830063992,2292.21169669936
1239,1439.000,81.05491288546636,2292.4618751145335
1240,1440.000,81.47535579202031,2292.7080272079797
1241,1441.000,67.05133488781894,2292.950153112181
1242,1442.000,62.4971750106547,2293.188252989345
1243,1443.000,53.720384968541566,2293.4223270314583
1244,1444.000,45.32850853966556,2293.6523754603345
1245,1445.000,36.8833874723241,2293.878398527676
1246,1446.000,41.04535148488003,2294.10039651512
1247,1447.000,33.22841726570823,2294.318369734292
1248,1448.000,28.057097473134036,2294.5323185268658
1249,1449.000,21.028104735391935,2294.742243264608
1250,1450.000,25.20274165056253,2294.9481443494374
1251,1451.000,12.145639786525862,2295.150022213474
1252,1452.000,29.488211680905806,2295.347877319094
1253,1453.000,15.077084841014312,2295.5417101589856
1254,1454.000,17.354471743805334,2295.731521256195
1255,1455.000,19.974150835812907,2295.917311164187
1256,1456.000,16.21491553310352,2296.0990804668963
1257,1457.000,10.846145221225015,2296.276829778775
1258,1458.000,19.73656725514502,2296.450559744855
1259,1459.000,16.731624959205874,2296.6202710407943
1260,1460.000,17.24114362706905,2296.785964372931
1261,1461.000,16.92270752165905,2296.947640478341
1262,1462.000,10.863230875116187,2297.105300124884
1263,1463.000,12.055484888737283,2297.2589441112627
1264,1464.000,9.072557732924452,2297.4085732670756
1265,1465.000,2.584990547135476,2297.5541884528643
1266,1466.000,11.230210439825896,2297.695790560174
1267,1467.000,11.364679488398906,2297.8333805116013
1268,1468.000,18.680032739149283,2297.9669592608507
1269,1469.000,6.311034207213652,2298.096527792786
1270,1470.000,3.3372188765169994,2298.222087123483
1271,1471.000,0.0,2298.3436383002863
1272,1472.000,3.4924665981434373,2298.4611824018566
1273,1473.000,7.442082461771861,2298.574720538228
1274,1474.000,9.31511814913847,2298.6842538508618
1275,1475.000,6.8870864873038045,2298.789783512696
1276,1476.000,11.370557271800408,2298.8913107281996
1277,1477.000,8.592872266568975,2298.988836733431
1278,1478.000,14.818427203917963,2299.082362796082
1279,1479.000,0.0,2299.171890215538
1280,1480.000,2.586049677070605,2299.257420322929
1281,1481.000,9.591459518819647,2299.3389544811803
1282,1482.000,0.0,2299.416494085072
1283,1483.000,0.0,2299.4900405612852
1284,1484.000,8.344153631541758,2299.5595953684583
1285,1485.000,0.19925300275917834,2299.6251599972406
1286,1486.000,4.8321800296548645,2299.686735970345
1287,1487.000,0.22224715739912426,2299.7443248426007
1288,1488.000,7.553233798993006,2299.797928201007
1289,1489.000,2.328632335216298,2299.8475476647836
1290,1490.000,0.0,2299.893184885431
1291,1491.000,5.162589453225792,2299.9348415467744
1292,1492.000,7.951249634977103,2299.972519365023
1293,1493.000,7.922791911177228,2300.006220088823
1294,1494.000,0.0,2300.035945499306
1295,1495.000,0.0,2300.0616974101486
1296,1496.000,3.957632332379035,2300.083477667621
1297,1497.000,0.0,2300.10128815064
1298,1498.000,5.1100662291737535,2300.1151307708265
1299,1499.000,0.0,2300.125007472554
1300,1500.000,0.0,2300.130920233004
1301,1501.000,0.0,2300.1328710622192
1302,1502.000,7.6994229968445325,2300.1308620031555
1303,1503.000,2.2583878682639806,2300.124895131736
1304,1504.000,5.286447443095767,2300.1149725569044
1305,1505.000,0.08501857932287749,2300.101096420677
1306,1506.000,0.0,2300.0832688981977
1307,1507.000,2.7078808022106386,2300.0614921977894
1308,1508.000,0.0,2300.0357685610065
1309,1509.000,1.0799657373063383,2300.0061002626935
1310,1510.000,3.6801173889712118,2299.972489611029
1311,1511.000,8.482386052413403,2299.9349389475865
1312,1512.000,0.0,2299.893450647385
1313,1513.000,3.7749578810585263,2299.8480271189414
1314,1514.000,0.0,2299.7986708043254
1315,1515.000,2.7592598207897936,2299.7453841792103
1316,1516.000,2.17970824707254,2299.6881697529275
1317,1517.000,0.0,2299.627030068521
1318,1518.000,1.5233642972029884,2299.561967702797
1319,1519.000,0.5838387336175401,2299.4929852663827
1320,1520.000,3.444954596228399,2299.4200854037717
1321,1521.000,5.079764206615437,2299.3432707933844
1322,1522.000,14.002036852382389,2299.2625441476175
1323,1523.000,3.3353447871018034,2299.1779082128983
1324,1524.000,0.13640023026482595,2299.089365769735
1325,1525.000,0.0,2298.9969196327756
1326,1526.000,7.468936349145224,2298.900572650855
1327,1527.000,0.0,2298.8003277070534
1328,1528.000,8.546778281255229,2298.6961877187446
1329,1529.000,0.0,2298.588155637652
1330,1530.000,5.017531550096464,2298.4762344499036
1331,1531.000,0.0,2298.3604271760787
1332,1532.000,9.460374128732838,2298.240736871267
1333,1533.000,0.0,2298.1171666251234
1334,1534.000,0.0,2297.989719561911
1335,1535.000,0.0,2297.8583988405658
1336,1536.000,0.0,2297.7232076547443
1337,1537.000,5.440541767125524,2297.5841492328746
1338,1538.000,2.5629601617843036,2297.4412268382157
1339,1539.000,0.0,2297.2944437689057
1340,1540.000,0.0,2297.143803358016
1341,1541.000,0.0,2296.989308973606
1342,1542.000,0.0,2296.8309640187736
1343,1543.000,0.0,2296.6687719317115
1344,1544.000,5.402420814240486,2296.5027361857597
1345,1545.000,6.657201710545451,2296.3328602894544
1346,1546.000,4.131257213412027,2296.159147786588
1347,1547.000,1.832601743743453,2295.9816022562563
1348,1548.000,8.570786687084365,2295.8002273129155
1349,1549.000,0.0,2295.6150266064337
1350,1550.000,0.0,2295.4260038221437
1351,1551.000,0.0,2295.2331626808987
1352,1552.000,0.0,2295.0365069391205
1353,1553.000,0.0,2294.836040388857
1354,1554.000,0.0,2294.6317668578367
1355,1555.000,6.317291790484433,2294.4236902095154
1356,1556.000,0.0,2294.2118143431344
1357,1557.000,0.0,2293.9961431937745
1358,1558.000,6.025596267596484,2293.7766807324033
1359,1559.000,0.0,2293.5534309659356
1360,1560.000,0.0,2293.3263979372805
1361,1561.000,14.733884274601678,2293.0955857253985
1362,1562.000,8.258131554645843,2292.860998445354
1363,1563.000,0.0,2292.6226402483658
1364,1564.000,0.0,2292.3805153218636
1365,1565.000,0.0,2292.13462788954
1366,1566.000,0.0,2291.8849822114016
1367,1567.000,2.2405634161741546,2291.631582583826
1368,1568.000,4.137408660387337,2291.3744333396126
1369,1569.000,10.874312151965569,2291.1135388480343
1370,1570.000,0.0,2290.848903514895
1371,1571.000,6.018260217421812,2290.580531782578
1372,1572.000,3.1630888698964554,2290.3084281301035
1373,1573.000,4.388342926823043,2290.032597073177
1374,1574.000,4.8574378357529895,2289.753043164247
1375,1575.000,0.0,2289.4697709925567
1376,1576.000,8.482132815805926,2289.182785184194
1377,1577.000,4.988495597850488,2288.8920904021497
1378,1578.000,22.720810653630906,2288.597691346369
1379,1579.000,3.3915852462000657,2288.2995927538
1380,1580.000,2.7495716015450853,2287.997799398455
1381,1581.000,0.0,2287.692316091457
1382,1582.000,4.892969318903397,2287.3831476810965
1383,1583.000,2.582261947117331,2287.0702990528825
1384,1584.000,5.2475948704018265,2286.753775129598
1385,1585.000,11.809409128650259,2286.43358087135
1386,1586.000,11.320774724373678,2286.1097212756263
1387,1587.000,7.792860622656008,2285.782201377344
1388,1588.000,1.3097587510915218,2285.4510262489084
1389,1589.000,0.0,2285.116201000264
1390,1590.000,4.249604221059144,2284.777730778941
1391,1591.000,6.465751229878606,2284.435620770121
1392,1592.000,0.0,2284.0898761966796
1393,1593.000,7.130131680755767,2283.740502319244
1394,1594.000,8.367053563752506,2283.3875044362476
1395,1595.000,2.9080161160227362,2283.0308878839774
1396,1596.000,0.0,2282.670658036635
1397,1597.000,0.0,2282.306820306382
1398,1598.000,4.900524856600441,2281.9393801433994
1399,1599.000,4.523954964062796,2281.5683430359372
1400,1600.000,0.0,2281.193714510367
1401,1601.000,0.49346686876015156,2280.81550013124
1402,1602.000,0.0,2280.4337055013343
1403,1603.000,0.0,2280.048336261711
1404,1604.000,3.8539749082324306,2279.6593980917673
1405,1605.000,9.625493290711347,2279.2668967092886
1406,1606.000,0.0,2278.8708378705032
1407,1607.000,7.302947629866139,2278.471227370134
1408,1608.000,7.386636958548024,2278.068071041452
1409,1609.000,0.956094243669213,2277.6613747563306
1410,1610.000,6.952688574700915,2277.251144425299
1411,1611.000,2.5107650024110626,2276.837385997589
1412,1612.000,0.0,2276.420105461199
1413,1613.000,0.0,2275.99930884294
1414,1614.000,0.0,2275.5750022084885
1415,1615.000,1.5613863375565415,2275.1471916624437
1416,1616.000,0.7224376516237498,2274.7158833483763
1417,1617.000,0.0,2274.2810834488846
1418,1618.000,3.062020814351854,2273.842798185648
1419,1619.000,4.124737180523425,2273.4010338194767
1420,1620.000,0.0,2272.9557966503694
1421,1621.000,12.335514982437417,2272.5070930175625
1422,1622.000,0.0,2272.0549292995847
1423,1623.000,9.893613085686866,2271.599311914313
1424,1624.000,5.303000680980404,2271.1402473190196
1425,1625.000,7.3738869895692005,2270.677742010431
1426,1626.000,2.962467475221729,2270.2118025247782
1427,1627.000,0.9704455621495072,2269.7424354378504
1428,1628.000,1.4272776349512242,2269.269647365049
1429,1629.000,0.0,2268.7934449614386
1430,1630.000,0.0,2268.3138349218025
1431,1631.000,7.014280019304806,2267.830823980695
1432,1632.000,7.814074087506015,2267.344418912494
1433,1633.000,0.0,2266.8546265314535
1434,1634.000,6.717824308237596,2266.3614536917626
1435,1635.000,14.579202712413462,2265.8649072875864
1436,1636.000,10.0579957468658,2265.3649942531342
1437,1637.000,0.0,2264.8617215627
1438,1638.000,0.7558777692784133,2264.3550962307218
1439,1639.000,1.8196906881639734,2263.845125311836
1440,1640.000,4.878148099073769,2263.3318159009264
1441,1641.000,5.130557866820254,2262.8151751331798
1442,1642.000,4.544062815862162,2262.295210184138
1443,1643.000,4.909666730248773,2261.7719282697512
1444,1644.000,7.9547213535661285,2261.2453366464338
1445,1645.000,5.814040388887406,2260.7154426111124
1446,1646.000,2.7114604987150415,2260.182253501285
1447,1647.000,0.4788203049315598,2259.6457766950684
1448,1648.000,7.791267388744927,2259.106019611255
1449,1649.000,1.8451822906367852,2258.562989709363
1450,1650.000,18.14160951030408,2258.016694489696
1451,1651.000,2.5398055066134475,2257.4671414933864
1452,1652.000,0.0,2256.914338302457
1453,1653.000,3.853972460129171,2256.358292539871
1454,1654.000,0.0,2255.799011869582
1455,1655.000,1.3704690034046507,2255.2365039965953
1456,1656.000,7.280575332990793,2254.6707766670092
1457,1657.000,0.6781743319193083,2254.101837668081
1458,1658.000,0.5242531717271959,2253.529694828273
1459,1659.000,0.0,2252.9543560173033
1460,1660.000,1.5880258537931695,2252.375829146207
1461,1661.000,1.5677928326199435,2251.79412216738
1462,1662.000,10.322347925358827,2251.209243074641
1463,1663.000,0.0,2250.62119990328
1464,1664.000,2.2713972698925318,2250.0300007301075
1465,1665.000,15.493496326480454,2249.4356536735195
1466,1666.000,0.0,2248.8381668935376
1467,1667.000,8.227196408130112,2248.23754859187
1468,1668.000,0.0,2247.6338070119623
1469,1669.000,5.280538560948116,2247.0269504390517
1470,1670.000,8.427494799781925,2246.416987200218
1471,1671.000,1.9491243355610095,2245.803925664439
1472,1672.000,2.3587257573576608,2245.1877742426423
1473,1673.000,3.879927612240408,2244.5685413877595
1474,1674.000,0.0,2243.9462355947785
1475,1675.000,0.0,2243.3208654007963
1476,1676.000,9.909174614925632,2242.6924393850745
1477,1677.000,0.0,2242.060966169088
1478,1678.000,16.938600583417156,2241.426454416583
1479,1679.000,4.780960166370278,2240.7889128336296
1480,1680.000,2.708308831332033,2240.148350168668
1481,1681.000,9.750050787427426,2239.5047752125724
1482,1682.000,0.0,2238.8581967986975
1483,1683.000,16.804184197069844,2238.20862380293
1484,1684.000,10.976764856250611,2237.5560651437495
1485,1685.000,1.0908022177259227,2236.900529782274
1486,1686.000,0.0,2236.242026722315
1487,1687.000,6.908643989565007,2235.580565010435
1488,1688.000,3.9082932640071704,2234.916153735993
1489,1689.000,0.0,2234.248802031204
1490,1690.000,5.929764928805525,2233.5785190711945
1491,1691.000,6.085891925959004,2232.905314074041
1492,1692.000,4.197248699155352,2232.2291963008447
1493,1693.000,0.0,2231.5501750557646
1494,1694.000,10.779916313917056,2230.868259686083
1495,1695.000,13.952608417742795,2230.183459582257
1496,1696.000,19.05194282203547,2229.4957841779647
1497,1697.000,6.67933404983296,2228.805242950167
1498,1698.000,4.070803580842039,2228.111845419158
1499,1699.000,0.5324068513878046,2227.415601148612
1500,1700.000,7.419396254350886,2226.7165197456493
1501,1701.000,0.0,2226.014610860875
1502,1702.000,11.675814811556847,2225.309884188443
1503,1703.000,14.678492533893404,2224.6023494661067
1504,1704.000,0.5196355247358042,2223.892016475264
1505,1705.000,0.9458679589733947,2223.1788950410264
1506,1706.000,0.0,2222.462995032255
1507,1707.000,7.641976638373762,2221.7443263616265
1508,1708.000,5.2160520143211215,2221.0228989856787
1509,1709.000,7.38455709513164,2220.2987229048686
1510,1710.000,4.849370836377602,2219.5718081636223
1511,1711.000,2.4465931496115445,2218.8421648503886
1512,1712.000,7.8692329023078855,2218.1098030976923
1513,1713.000,7.121749917810121,2217.37473308219
1514,1714.000,10.821627975278716,2216.636965024721
1515,1715.000,10.511064809641994,2215.896509190358
1516,1716.000,12.749099111534179,2215.1533758884657
1517,1717.000,10.536349527251332,2214.4075754727487
1518,1718.000,13.963534658692424,2213.6591183413075
1519,1719.000,7.624024063306933,2212.9080149366932
1520,1720.000,11.610864254044373,2212.1542757459556
1521,1721.000,4.750340699298249,2211.3979113007017
1522,1722.000,3.218362822853578,2210.638932177146
1523,1723.000,0.0,2209.877348996162
1524,1724.000,0.0,2209.113172423343
1525,1725.000,3.605309830958049,2208.346413169042
1526,1726.000,19.153468011561472,2207.5770819884387
1527,1727.000,12.29420331841402,2206.805189681586
1528,1728.000,7.054844906539074,2206.030747093461
1529,1729.000,0.34563288597701103,2205.253765114023
1530,1730.000,7.8627293217355145,2204.4742546782645
1531,1731.000,5.320725233738813,2203.6922267662612
1532,1732.000,5.379147596765051,2202.907692403235
1533,1733.000,11.229318340405825,2202.120662659594
1534,1734.000,11.985003349004728,2201.331148650995
1535,1735.000,11.53043346160348,2200.5391615383965
1536,1736.000,2.4822294718974263,2199.7447125281024
1537,1737.000,10.344704128172452,2198.9478128718274
1538,1738.000,13.14794113325479,2198.148473866745
1539,1739.000,0.0,2197.346706855536
1540,1740.000,3.394229773549341,2196.5425232264506
1541,1741.000,17.056798586645982,2195.7359344133542
1542,1742.000,2.232174104215119,2194.926951895785
1543,1743.000,2.345963800996742,2194.115587199003
1544,1744.000,13.419164105952404,2193.3018518940476
1545,1745.000,3.800357402210011,2192.48575759779
1546,1746.000,8.74259502701807,2191.667315972982
1547,1747.000,0.0,2190.846538728315
1548,1748.000,0.0,2190.023437618469
1549,1749.000,6.293557555832649,2189.1980244441675
1550,1750.000,19.860096947768852,2188.370311052231
1551,1751.000,3.03231466437137,2187.5403093356285
1552,1752.000,7.722700766467824,2186.708031233532
1553,1753.000,4.595214268629661,2185.8734887313703
1554,1754.000,6.8337831391190775,2185.036693860881
1555,1755.000,1.9169202998391484,2184.197658700161
1556,1756.000,0.0,2183.356395373727
1557,1757.000,4.903753947439327,2182.5129160525607
1558,1758.000,0.0,2181.6672329541666
1559,1759.000,3.5799546573739462,2180.819358342626
1560,1760.000,8.414868471356385,2179.9693045286435
1561,1761.000,15.343857130390461,2179.1170838696094
1562,1762.000,14.87477723035363,2178.2627087696465
1563,1763.000,8.52184832033754,2177.4061916796622
1564,1764.000,1.7746989025895346,2176.5475450974104
1565,1765.000,4.224329432467584,2175.6867815675323
1566,1766.000,14.668018318379382,2174.8239136816205
1567,1767.000,9.584474921732635,2173.958954078267
1568,1768.000,7.490379556886182,2173.091915443114
1569,1769.000,13.411951491085347,2172.222810508915
1570,1770.000,0.25895894442419376,2171.351652055576
1571,1771.000,19.552728089778157,2170.4784529102217
1572,1772.000,12.616152052757116,2169.6032259472427
1573,1773.000,1.1770319116571955,2168.725984088343
1574,1774.000,3.6614806973943814,2167.8467403026057
1575,1775.000,12.862465393467119,2166.965507606533
1576,1776.000,3.149676935892785,2166.0822990641072
1577,1777.000,7.265483213154312,2165.1971277868456
1578,1778.000,19.79991906615396,2164.310006933846
1579,1779.000,5.557059288153596,2163.4209497118463
1580,1780.000,7.683218624722485,2162.5299693752777
1581,1781.000,13.417493773692968,2161.637079226307
1582,1782.000,13.726331385092635,2160.7422926149075
1583,1783.000,19.61615206109991,2159.8456229389003
1584,1784.000,3.188418355992326,2158.9470836440078
1585,1785.000,9.221482776088124,2158.046688223912
1586,1786.000,10.978275779697015,2157.144450220303
1587,1787.000,4.00076277706512,2156.2403832229347
1588,1788.000,5.9197981303213965,2155.334500869679
1589,1789.000,13.169662153428362,2154.4268168465715
1590,1790.000,6.889946112120924,2153.517344887879
1591,1791.000,8.0898612238625,2152.6060987761375
1592,1792.000,4.284527657788658,2151.6930923422115
1593,1793.000,2.4494365346454288,2150.7783394653547
1594,1794.000,2.894088926751465,2149.8618540732487
1595,1795.000,14.23277885793641,2148.9436501420637
1596,1796.000,20.211639303481206,2148.0237416965188
1597,1797.000,7.109248190081871,2147.102142809918
1598,1798.000,20.62318339577996,2146.17886760422
1599,1799.000,4.06250874991747,2145.2539302500827
1600,1800.000,5.729516033085474,2144.3273449669146
1601,1801.000,3.441762977060989,2143.399126022939
1602,1802.000,7.506258264769258,2142.469287735231
1603,1803.000,12.534670530214498,2141.5378444697853
1604,1804.000,10.463957358434982,2140.604810641565
1605,1805.000,6.975280285458211,2139.670200714542
1606,1806.000,15.729609798224374,2138.7340292017757
1607,1807.000,4.035381334558224,2137.796310665442
1608,1808.000,8.307312283101055,2136.857059716899
1609,1809.000,0.5133979832603472,2135.9162910167397
1610,1810.000,19.904867725162603,2134.9740192748372
1611,1811.000,5.845350749590125,2134.03025925041
1612,1812.000,14.60153624793611,2133.0850257520638
1613,1813.000,0.0,2132.138333637849
1614,1814.000,9.148466184680728,2131.190197815319
1615,1815.000,15.713631758422707,2130.240633241577
1616,1816.000,16.67577007667296,2129.289654923327
1617,1817.000,10.1281270830641,2128.337277916936
1618,1818.000,6.8276016715221886,2127.383517328478
1619,1819.000,4.234638686208655,2126.4283883137914
1620,1820.000,10.961436921464156,2125.471906078536
1621,1821.000,13.062170121762847,2124.514085878237
1622,1822.000,14.196440981654177,2123.554943018346
1623,1823.000,4.927081145709508,2122.5944928542904
1624,1824.000,8.893671208474643,2121.6327507915253
1625,1825.000,4.0716047144037475,2120.669732285596
1626,1826.000,0.0,2119.7054528421745
1627,1827.000,10.99169798287221,2118.7399280171276
1628,1828.000,3.1694245834346475,2117.7731734165654
1629,1829.000,10.86836530310984,2116.80520469689
1630,1830.000,8.408658435144844,2115.8360375648554
1631,1831.000,14.024110222384934,2114.865687777615
1632,1832.000,6.075093857220963,2113.894171142779
1633,1833.000,8.921727481532344,2112.9215035184675
1634,1834.000,11.836640186644217,2111.947700813356
1635,1835.000,8.712026013258765,2110.972778986741
1636,1836.000,2.831510951414657,2109.9967540485854
1637,1837.000,12.698266940432404,2109.0196420595676
1638,1838.000,18.536102868851685,2108.0414591311483
1639,1839.000,7.899682574390226,2107.0622214256096
1640,1840.000,9.120961843884288,2106.0819451561156
1641,1841.000,8.953236413235118,2105.100646586765
1642,1842.000,0.0,2104.1183420326406
1643,1843.000,10.757893140131728,2103.1350478598683
1644,1844.000,15.168810514336656,2102.1507804856633
1645,1845.000,3.5079186216103153,2101.1655563783897
1646,1846.000,6.138387942389272,2100.1793920576106
1647,1847.000,15.119474905860898,2099.192304094139
1648,1848.000,17.981924889902075,2098.2043091100977
1649,1849.000,0.0,2097.215423778964
1650,1850.000,13.892808174369748,2096.2256648256302
1651,1851.000,0.0,2095.235049026452
1652,1852.000,12.949668790696705,2094.243593209303
1653,1853.000,9.116457746369178,2093.251314253631
1654,1854.000,16.046640909495636,2092.2582290905043
1655,1855.000,0.0,2091.2643547026705
1656,1856.000,2.5242018753901903,2090.2697081246097
1657,1857.000,1.3479125574158388,2089.274306442584
1658,1858.000,14.677149205305795,2088.2781667946942
1659,1859.000,17.894568629071273,2087.2813063709286
1660,1860.000,16.311681586778377,2086.2837424132217
1661,1861.000,2.7357407844961017,2085.285492215504
1662,1862.000,5.701042876245538,2084.2865731237544
1663,1863.000,2.1269514639425324,2083.2870025360576
1664,1864.000,4.654160097350541,2082.2867979026496
1665,1865.000,9.782482274018548,2081.2859767259815
1666,1866.000,19.03619543923878,2080.2845565607613
1667,1867.000,6.945295985982739,2079.2825550140174
1668,1868.000,0.03157325485790352,2078.2799897451423
1669,1869.000,13.721771534046638,2077.2768784659534
1670,1870.000,15.311519059256625,2076.2732389407433
1671,1871.000,18.887661013669458,2075.2690889863306
1672,1872.000,16.488257527884343,2074.2644464721157
1673,1873.000,10.38374867986522,2073.259329320135
1674,1874.000,0.0,2072.2537555051113
1675,1875.000,14.255647945491546,2071.2477430545086
1676,1876.000,3.510597951415093,2070.241310048585
1677,1877.000,10.862493379555417,2069.2344746204444
1678,1878.000,2.1841490439069275,2068.227254956093
1679,1879.000,19.628180705512023,2067.219669294488
1680,1880.000,9.87040707240476,2066.2117359275953
1681,1881.000,7.608776799560019,2065.20347320044
1682,1882.000,12.58212548884103,2064.194899511159
1683,1883.000,0.7683176889440801,2063.186033311056
1684,1884.000,0.0,2062.1768931046545
1685,1885.000,11.456117550252202,2061.1674974497478
1686,1886.000,16.448389042541294,2060.1578649574585
1687,1887.000,7.814247707715367,2059.1480142922846
1688,1888.000,9.013594827841644,2058.1379641721583
1689,1889.000,5.278687631506273,2057.127733368494
1690,1890.000,11.386075293753493,2056.1173407062465
1691,1891.000,4.239265936038464,2055.1068050639615
1692,1892.000,6.198019626171117,2054.0961453738287
1693,1893.000,0.0967753782665568,2053.0853806217333
1694,1894.000,9.153946152684057,2052.0745298473157
1695,1895.000,13.746518855981776,2051.0636121440184
1696,1896.000,9.486421340861398,2050.0526466591386
1697,1897.000,17.036391406114944,2049.041652593885
1698,1898.000,7.235717796568679,2048.0306492034315
1699,1899.000,2.6767032030343216,2047.0196557969657
1700,1900.000,5.4236322622518855,2046.008691737748
1701,1901.000,6.546534556841834,2044.9977764431583
1702,1902.000,8.91814161524735,2043.9869293847528
1703,1903.000,15.962041911678625,2042.9761700883214
1704,1904.000,8.99132086607051,2041.9655181339294
1705,1905.000,21.23523684401607,2040.954993155984
1706,1906.000,0.00014415672376344446,2039.9446148432762
1707,1907.000,18.7763660609603,2038.9344029390395
1708,1908.000,12.658968758993979,2037.924377241006
1709,1909.000,4.550293398548774,2036.9145576014512
1710,1910.000,12.972594072746233,2035.904963927254
1711,1911.000,14.235724820053292,2034.8956161799465
1712,1912.000,16.68145662422694,2033.886534375773
1713,1913.000,15.835563414270382,2032.8777385857297
1714,1914.000,12.009817064364597,2031.8692489356354
1715,1915.000,2.837559393829906,2030.86108560617
1716,1916.000,13.972076167063506,2029.8532688329365
1717,1917.000,13.984850093490877,2028.845818906509
1718,1918.000,11.997804827509299,2027.8387561724908
1719,1919.000,8.935668968435948,2026.832101031564
1720,1920.000,10.318667060458893,2025.825873939541
1721,1921.000,16.054769592577713,2024.8200954074223
1722,1922.000,6.527532998550896,2023.8147860014492
1723,1923.000,18.45018265685053,2022.8099663431494
1724,1924.000,3.7025498905975383,2021.8056571094025
1725,1925.000,0.0,2020.8018790324822
1726,1926.000,6.457617099882782,2019.7986529001173
1727,1927.000,12.247151444461224,2018.7959995555389
1728,1928.000,11.218995102464078,2017.793939897536
1729,1929.000,1.8426841194898316,2016.7924948805103
1730,1930.000,9.952975485473189,2015.7916855145268
1731,1931.000,4.443471134631864,2014.791532865368
1732,1932.000,15.234194945411673,2013.7920580545883
1733,1933.000,9.609556740436119,2012.793282259564
1734,1934.000,11.431898286450178,2011.7952267135497
1735,1935.000,26.59360929427112,2010.7979127057288
1736,1936.000,4.2787004187302955,2009.8013615812697
1737,1937.000,8.380763258624484,2008.8055947413754
1738,1938.000,9.228008356660212,2007.8106336433398
1739,1939.000,1.2669241994012737,2006.8164998005986
1740,1940.000,6.407062217215525,2005.8232147827844
1741,1941.000,18.59774078422356,2004.8308002157764
1742,1942.000,5.4508132182406825,2003.8392777817594
1743,1943.000,0.0,2002.8486692192714
1744,1944.000,8.531695676741037,2001.858996323259
1745,1945.000,7.94291705486944,2000.8702809451306
1746,1946.000,12.514971007190525,1999.8825449928095
1747,1947.000,20.052468569210987,1998.895810430789
1748,1948.000,0.309490719822179,1997.9100992801777
1749,1949.000,0.0,1996.9254336187655
1750,1950.000,0.0,1995.9418355810653
1751,1951.000,6.481085641629079,1994.959327358371
1752,1952.000,9.979015801188552,1993.9779311988113
1753,1953.000,10.742315592598288,1992.9976694074016
1754,1954.000,11.1347456539022,1992.0185643460977
1755,1955.000,7.370541566152951,1991.040638433847
1756,1956.000,13.680848853354973,1990.063914146645
1757,1957.000,0.0,1989.0884140175863
1758,1958.000,12.547604363084474,1988.1141606369156
1759,1959.000,3.5855513479109504,1987.1411766520891
1760,1960.000,0.001782232185405519,1986.1694847678145
1761,1961.000,2.1500872538797466,1985.1991077461203
1762,1962.000,3.9995675936088446,1984.2300684063912
1763,1963.000,0.5600243745636817,1983.2623896254363
1764,1964.000,0.0,1982.2960943375356
1765,1965.000,3.0431614655094563,1981.3312055344904
1766,1966.000,5.784724734312704,1980.3677462656874
1767,1967.000,4.701293361866874,1979.4057396381331
1768,1968.000,0.0,1978.4452088165299
1769,1969.000,1.173123976690249,1977.4861770233097
1770,1970.000,2.7720894613053133,1976.5286675386947
1771,1971.000,0.7346312992426647,1975.5727037007573
1772,1972.000,0.8457030945373845,1974.6183089054625
1773,1973.000,0.0,1973.665506606725
1774,1974.000,0.0,1972.714320316462
1775,1975.000,11.120839395350686,1971.7647736046492
1776,1976.000,1.1451009006289041,1970.816890099371
1777,1977.000,1.1310365131253093,1969.8706934868746
1778,1978.000,0.0,1968.9262075116212
1779,1979.000,0.0,1967.983455976344
1780,1980.000,0.0,1967.0424627420948
1781,1981.000,5.77750127169611,1966.1032517283038
1782,1982.000,0.0,1965.165846912826
1783,1983.000,14.076703667996526,1964.2302723320036
1784,1984.000,0.0,1963.296552080706
1785,1985.000,9.025630687602415,1962.3647103123976
1786,1986.000,7.813867760822632,1961.4347712391773
1787,1987.000,3.433400868154422,1960.5067591318457
1788,1988.000,3.0126996800563575,1959.5806983199436
1789,1989.000,6.352239808185686,1958.6566131918144
1790,1990.000,0.0,1957.7345281946587
1791,1991.000,8.827853165422994,1956.814467834577
1792,1992.000,0.0,1955.8964566766385
1793,1993.000,6.194052655084306,1954.9805193449156
1794,1994.000,0.0,1954.066680522557
1795,1995.000,0.0,1953.1549649518215
1796,1996.000,0.0,1952.2453974341493
1797,1997.000,0.0,1951.3380028301985
1798,1998.000,0.0,1950.4328060599096
1799,1999.000,0.5891958974457339,1949.5298321025543
1800,2000.000,0.0,1948.6291059967934
