pixel_index,raman_shift_cm-1,intensity
0,200.000,1.9463055886760685
1,201.000,9.858488019395622
2,202.000,12.202742958280794
3,203.000,0.0
4,204.000,2.699823428158652
5,205.000,0.0
6,206.000,1.7625044346450522
7,207.000,0.0
8,208.000,1.3716168948652694
9,209.000,8.39967133784387
10,210.000,7.543081205315275
11,211.000,3.5416174965102414
12,212.000,0.0
13,213.000,0.6719584958673295
14,214.000,2.472377351230591
15,215.000,3.0527059246312547
16,216.000,0.03820836377349224
17,217.000,10.41698584592325
18,218.000,11.282662577863732
19,219.000,0.0
20,220.000,0.0
21,221.000,2.609839782089864
22,222.000,9.4554891698196
23,223.000,7.141854282463953
24,224.000,4.0079775029789175
25,225.000,3.2911002435274668
26,226.000,5.3216479454351315
27,227.000,0.0
28,228.000,4.007944144177486
29,229.000,0.0
30,230.000,10.088969211378128
31,231.000,7.589118357553559
32,232.000,2.2394257229738628
33,233.000,6.666253951861449
34,234.000,22.431969717246773
35,235.000,19.043656720923877
36,236.000,0.0
37,237.000,10.546151393881246
38,238.000,11.023541610168536
39,239.000,0.0
40,240.000,0.0
41,241.000,3.2194396606172972
42,242.000,0.0
43,243.000,5.184060000994975
44,244.000,12.048530454074069
45,245.000,5.078185735628267
46,246.000,4.989769860925037
47,247.000,9.765398873463084
48,248.000,8.712600844928488
49,249.000,9.512891875150217
50,250.000,13.378318092055622
51,251.000,8.326246651626434
52,252.000,19.000029737854106
53,253.000,0.0
54,254.000,11.032403366029655
55,255.000,10.077830415610833
56,256.000,8.365730007026912
57,257.000,9.37888546365366
58,258.000,7.1672911366108565
59,259.000,1.8877814047175434
60,260.000,6.949394674448115
61,261.000,11.327296379887684
62,262.000,10.03700498268796
63,263.000,8.21026297202269
64,264.000,9.266557864543643
65,265.000,1.4069192043359067
66,266.000,6.239066562873745
67,267.000,9.724700538976322
68,268.000,0.0
69,269.000,0.5316828756101586
70,270.000,3.4139705701045955
71,271.000,3.600451550001708
72,272.000,7.8638765501796115
73,273.000,0.0
74,274.000,11.693896686239555
75,275.000,4.818904427094822
76,276.000,7.286409398087812
77,277.000,11.978973469047446
78,278.000,11.273637536659635
79,279.000,8.155184524422907
80,280.000,14.436195382604524
81,281.000,10.126926088195432
82,282.000,9.081365644866764
83,283.000,12.036840082924755
84,284.000,12.564545459267038
85,285.000,11.434190857337626
86,286.000,4.7230013870834
87,287.000,11.934571184909032
88,288.000,10.019918413632922
89,289.000,0.0
90,290.000,5.547021946851942
91,291.000,0.0
92,292.000,0.0
93,293.000,6.616523562748625
94,294.000,3.526411269633286
95,295.000,0.0
96,296.000,3.9108599753998305
97,297.000,7.316118745360768
98,298.000,3.613370017406737
99,299.000,8.033263241981103
100,300.000,6.887928895409004
101,301.000,6.119160479853122
102,302.000,0.6571775232687287
103,303.000,7.681999579360422
104,304.000,3.441484227536421
105,305.000,5.86715707286578
106,306.000,0.0
107,307.000,2.0618099032925556
108,308.000,3.4540432264283254
109,309.000,0.0
110,310.000,5.924491224827307
111,311.000,13.239129390891776
112,312.000,11.760498704346332
113,313.000,13.153817973943433
114,314.000,0.0
115,315.000,6.252752742837288
116,316.000,12.168942985766876
117,317.000,5.0192196720164475
118,318.000,10.406523736200256
119,319.000,0.0
120,320.000,10.126005861980389
121,321.000,5.472257917824209
122,322.000,3.378889340009323
123,323.000,0.0
124,324.000,12.465831545690548
125,325.000,1.2197925223299535
126,326.000,2.18014325150898
127,327.000,12.374245891599344
128,328.000,10.256990625613298
129,329.000,0.0
130,330.000,13.816776230396385
131,331.000,2.4158605899921213
132,332.000,14.126618021076524
133,333.000,7.852112829198063
134,334.000,9.473206344279674
135,335.000,9.356553920573788
136,336.000,13.903569936619078
137,337.000,15.18464179519492
138,338.000,6.5024139232779135
139,339.000,10.210960771997065
140,340.000,5.810382816589595
141,341.000,0.8251335563569455
142,342.000,0.0
143,343.000,0.0
144,344.000,8.295321299746774
145,345.000,9.374550292951199
146,346.000,0.0
147,347.000,7.318177575376126
148,348.000,3.065789173857297
149,349.000,10.089152322902919
150,350.000,7.540154736394129
151,351.000,0.06694115183256599
152,352.000,18.306485330296255
153,353.000,0.0
154,354.000,3.3229091382260094
155,355.000,5.941597407329823
156,356.000,15.674209718645784
157,357.000,2.184960950467598
158,358.000,7.473535004399423
159,359.000,0.0
160,360.000,14.108636301294155
161,361.000,0.9915944636168206
162,362.000,2.2339042866807404
163,363.000,9.147470787975635
164,364.000,5.005023008035664
165,365.000,2.7773810103944925
166,366.000,15.264600881541696
167,367.000,11.995590730877439
168,368.000,12.67561869066924
169,369.000,12.77316591600686
170,370.000,2.5428655847581467
171,371.000,9.114975897524914
172,372.000,3.5266580775980856
173,373.000,0.0
174,374.000,12.698478046010337
175,375.000,12.484618393979986
176,376.000,4.749492728428663
177,377.000,0.6397823854301805
178,378.000,7.426993723481019
179,379.000,4.824541123457379
180,380.000,0.0
181,381.000,16.299590744320312
182,382.000,4.216868838455298
183,383.000,11.832951740924159
184,384.000,8.663701943833303
185,385.000,11.566055961402526
186,386.000,13.674067329919808
187,387.000,11.420528607698202
188,388.000,0.0
189,389.000,7.464114234145086
190,390.000,19.645388809162
191,391.000,0.0
192,392.000,10.594122712573949
193,393.000,7.497740398266615
194,394.000,4.638240514369045
195,395.000,13.356488793792892
196,396.000,0.5703489910755479
197,397.000,5.771502882335312
198,398.000,7.141583265227382
199,399.000,12.068761958899131
200,400.000,0.0
201,401.000,5.940534662367668
202,402.000,0.12829641752205134
203,403.000,6.431172974083097
204,404.000,1.252970257994889
205,405.000,6.32045621642817
206,406.000,11.538640817735654
207,407.000,13.0743410514076
208,408.000,0.0
209,409.000,0.0
210,410.000,9.461465757647716
211,411.000,8.184541836882772
212,412.000,9.541849811447491
213,413.000,5.225089796726934
214,414.000,15.752398928933985
215,415.000,3.711731365064452
216,416.000,11.308833282852447
217,417.000,2.054754880726591
218,418.000,3.1534963777656912
219,419.000,12.543260013653821
220,420.000,11.14728304863661
221,421.000,6.738942763476416
222,422.000,6.919940459408508
223,423.000,9.729415458096582
224,424.000,9.415374101587531
225,425.000,23.162022752268626
226,426.000,15.446696792822422
227,427.000,2.099176626181702
228,428.000,6.742175675486692
229,429.000,7.706074384039425
230,430.000,1.4921962152598098
231,431.000,8.064039652641895
232,432.000,16.047131199708247
233,433.000,5.572969379966821
234,434.000,0.0
235,435.000,10.34724983375122
236,436.000,7.472664253818152
237,437.000,0.0
238,438.000,10.120044495278648
239,439.000,0.8199995819259129
240,440.000,5.171625522174054
241,441.000,13.560811997814653
242,442.000,10.35705771022458
243,443.000,7.5648623803223245
244,444.000,12.629454748523926
245,445.000,7.770956574698062
246,446.000,22.890250638121984
247,447.000,6.846851737437191
248,448.000,0.0
249,449.000,0.0
250,450.000,11.442263526678062
251,451.000,15.153810141706117
252,452.000,22.705824074744328
253,453.000,2.5366482396887022
254,454.000,3.6525845694885675
255,455.000,0.0
256,456.000,10.34351655045657
257,457.000,4.937683162394023
258,458.000,2.990224860637227
259,459.000,0.0
260,460.000,11.895514645043932
261,461.000,3.595056842634108
262,462.000,8.206504349294732
263,463.000,8.404329267465414
264,464.000,10.119999718195345
265,465.000,13.316422841100461
266,466.000,5.363792794318442
267,467.000,9.45530375446424
268,468.000,4.781993916585975
269,469.000,8.45938349412097
270,470.000,9.241258718850531
271,471.000,6.32408784085635
272,472.000,10.529771128475886
273,473.000,0.0
274,474.000,11.13892336491881
275,475.000,16.43169594129688
276,476.000,10.75752793830975
277,477.000,10.179539714908628
278,478.000,7.459657648034636
279,479.000,14.253600132574434
280,480.000,7.332817581315567
281,481.000,9.803698424902791
282,482.000,6.79724511179279
283,483.000,6.149548108210524
284,484.000,0.6091048981048743
285,485.000,0.27400498310385046
286,486.000,0.6624128824707896
287,487.000,7.88758813305958
288,488.000,0.8407212892706184
289,489.000,4.290835923006512
290,490.000,0.0
291,491.000,0.0
292,492.000,6.888620669987972
293,493.000,3.0372032813373835
294,494.000,0.0
295,495.000,7.494113974069705
296,496.000,8.762055424611845
297,497.000,8.269448552652761
298,498.000,4.208131085618675
299,499.000,10.220704767993993
300,500.000,2.7507913612779475
301,501.000,3.7360716439394537
302,502.000,1.4883344113734438
303,503.000,16.789276475856013
304,504.000,11.794876666500386
305,505.000,4.15443382921228
306,506.000,0.0
307,507.000,15.86172653816027
308,508.000,3.048251859772108
309,509.000,5.673235704115314
310,510.000,15.15356200039389
311,511.000,19.385450694338942
312,512.000,7.190377748163542
313,513.000,6.388636140518884
314,514.000,7.1530098664502475
315,515.000,5.773227937351521
316,516.000,0.0
317,517.000,6.889696241121214
318,518.000,7.199878578125663
319,519.000,10.090831468283568
320,520.000,10.815368004070478
321,521.000,5.1313622940454025
322,522.000,18.12628246280667
323,523.000,4.467454650946593
324,524.000,1.2450420150081527
325,525.000,9.724561727440573
326,526.000,6.469536976553854
327,527.000,11.954885966476127
328,528.000,7.874995917108208
329,529.000,6.529431064079176
330,530.000,0.0
331,531.000,0.09012696793251962
332,532.000,8.395052274317777
333,533.000,10.207961875958517
334,534.000,0.0
335,535.000,13.387177234899013
336,536.000,2.0048426657568825
337,537.000,0.09033873889791266
338,538.000,0.0
339,539.000,6.976258328081258
340,540.000,0.0
341,541.000,6.115198187139072
342,542.000,0.0
343,543.000,14.002304743906734
344,544.000,0.0
345,545.000,10.107567667945318
346,546.000,3.375726230177179
347,547.000,0.0
348,548.000,0.0
349,549.000,16.20177049620031
350,550.000,0.0
351,551.000,1.328384935401914
352,552.000,0.0
353,553.000,0.0
354,554.000,10.725175542370152
355,555.000,0.0
356,556.000,7.6977817472252354
357,557.000,11.649437520289894
358,558.000,6.052616965594666
359,559.000,5.552203770011033
360,560.000,6.930192634763671
361,561.000,12.89507127538809
362,562.000,10.654672421684268
363,563.000,8.119492817673972
364,564.000,10.916873221555875
365,565.000,0.0
366,566.000,13.750798156407768
367,567.000,0.0
368,568.000,16.04151757367913
369,569.000,9.963488883083642
370,570.000,0.0
371,571.000,7.40628291502685
372,572.000,1.9293563637774014
373,573.000,5.1724082748478395
374,574.000,8.670459545765993
375,575.000,7.567564087749361
376,576.000,6.727831825660019
377,577.000,0.0
378,578.000,3.5232286566691755
379,579.000,3.9925436673166814
380,580.000,8.793139708900867
381,581.000,15.05149577384259
382,582.000,0.0
383,583.000,20.541414010332005
384,584.000,14.587048233438168
385,585.000,7.156974582929706
386,586.000,6.767290117678385
387,587.000,11.388500909712207
388,588.000,7.27957904417292
389,589.000,6.357543619269791
390,590.000,8.671818746236568
391,591.000,6.195834549286701
392,592.000,11.351689165569042
393,593.000,6.057882745123379
394,594.000,6.522891450836255
395,595.000,5.044608458396738
396,596.000,13.778005956251832
397,597.000,5.247074145562237
398,598.000,10.010357240158328
399,599.000,3.547124466494779
400,600.000,12.824466063607929
401,601.000,8.89788028306964
402,602.000,0.8004383889442579
403,603.000,14.44927865774389
404,604.000,27.428592378383655
405,605.000,11.245166852137913
406,606.000,32.120558392595626
407,607.000,12.198552325616333
408,608.000,14.684224989285212
409,609.000,35.20718273386922
410,610.000,24.56856592177303
411,611.000,38.102210927493616
412,612.000,36.68193913757716
413,613.000,58.26372595057421
414,614.000,56.78060577699466
415,615.000,75.24163803926513
416,616.000,95.54540317168244
417,617.000,126.37093162037092
418,618.000,144.43187684323755
419,619.000,179.4429233099279
420,620.000,185.42949050178072
421,621.000,167.99611891178472
422,622.000,140.66903404453456
423,623.000,117.68220941618506
424,624.000,105.20463055440791
425,625.000,80.29315399834707
426,626.000,71.6753922985747
427,627.000,60.558266017046094
428,628.000,46.03296472705631
429,629.000,39.15744801319488
430,630.000,33.89693147130242
431,631.000,26.46685170842545
432,632.000,28.13624834277266
433,633.000,12.105036003669966
434,634.000,23.36072033151663
435,635.000,3.321999977741598
436,636.000,17.280808604757567
437,637.000,16.693894885917416
438,638.000,13.14697650547032
439,639.000,5.732575158517193
440,640.000,9.492984550965502
441,641.000,12.804298399486242
442,642.000,13.177609431469136
443,643.000,0.0
444,644.000,5.1505270087034205
445,645.000,10.149040061927963
446,646.000,4.759329314470506
447,647.000,14.726849546648054
448,648.000,8.869138549230456
449,649.000,13.052146123395232
450,650.000,12.150316080684433
451,651.000,10.742502242959063
452,652.000,0.60298544235593
453,653.000,19.288541521241996
454,654.000,6.536632332170711
455,655.000,0.0
456,656.000,5.2213926110400735
457,657.000,19.17402783462171
458,658.000,4.79005030144026
459,659.000,9.829945914316795
460,660.000,7.960517585993557
461,661.000,3.35305723908823
462,662.000,6.740326806051371
463,663.000,4.254015229119659
464,664.000,5.457560460273953
465,665.000,0.0
466,666.000,1.3510452032126068
467,667.000,5.137769667274142
468,668.000,1.36696984388891
469,669.000,2.2861197330876166
470,670.000,0.0
471,671.000,0.0
472,672.000,0.0
473,673.000,0.0
474,674.000,2.1899245298534424
475,675.000,0.0
476,676.000,9.290703891484327
477,677.000,0.0
478,678.000,0.0
479,679.000,0.0
480,680.000,0.0
481,681.000,4.376892799553616
482,682.000,5.833166206766009
483,683.000,0.0
484,684.000,0.0
485,685.000,13.64747711503287
486,686.000,0.0
487,687.000,8.014532444615725
488,688.000,0.0
489,689.000,0.0
490,690.000,0.0
491,691.000,10.47975817263432
492,692.000,5.890758696443527
493,693.000,9.079184674752696
494,694.000,0.0
495,695.000,8.31347889787503
496,696.000,0.0
497,697.000,5.319898731429021
498,698.000,5.404709503827917
499,699.000,8.152976197323142
500,700.000,0.0
501,701.000,2.863498448526798
502,702.000,6.656280576911058
503,703.000,6.32190276765391
504,704.000,3.8745863261051454
505,705.000,4.940563565542334
506,706.000,8.108485807121042
507,707.000,8.114662379835181
508,708.000,0.0
509,709.000,0.0
510,710.000,7.829917491348397
511,711.000,6.842981833724252
512,712.000,7.854479268202567
513,713.000,4.012726169866028
514,714.000,2.4774529213236747
515,715.000,5.137181912667074
516,716.000,5.300990541423516
517,717.000,11.659702212516322
518,718.000,7.956756338215882
519,719.000,0.9332463380978879
520,720.000,0.0
521,721.000,6.548189674967944
522,722.000,0.0
523,723.000,4.65333872413953
524,724.000,0.0
525,725.000,0.0
526,726.000,0.0
527,727.000,1.4034525322010722
528,728.000,5.154111463943536
529,729.000,0.0
530,730.000,0.0
531,731.000,0.0
532,732.000,15.34431081412481
533,733.000,3.285531093069949
534,734.000,9.954446386238715
535,735.000,0.0
536,736.000,13.303548143477883
537,737.000,0.0
538,738.000,0.0
539,739.000,0.0
540,740.000,0.0
541,741.000,0.0
542,742.000,1.700481258552827
543,743.000,0.0
544,744.000,0.0
545,745.000,0.0
546,746.000,5.2341525552753865
547,747.000,0.0
548,748.000,9.813836748262702
549,749.000,0.0
550,750.000,0.0
551,751.000,0.09430839906667643
552,752.000,0.0
553,753.000,0.0
554,754.000,3.2042458357038868
555,755.000,12.98086671866804
556,756.000,3.1212687300781
557,757.000,4.9416605342325965
558,758.000,5.538138801005289
559,759.000,4.91779720580098
560,760.000,8.545545429511321
561,761.000,4.188992158471365
562,762.000,12.297011084412816
563,763.000,0.8598579044228245
564,764.000,5.440483320896192
565,765.000,13.89550804149485
566,766.000,6.589295779100212
567,767.000,4.461307251770222
568,768.000,4.185166182695866
569,769.000,14.182778300154723
570,770.000,0.0
571,771.000,1.6218770329587642
572,772.000,13.0604181299002
573,773.000,8.87255537647934
574,774.000,8.68652152574873
575,775.000,0.0
576,776.000,0.0
577,777.000,0.16379999227660846
578,778.000,9.100545378596962
579,779.000,11.35551550430796
580,780.000,14.422792150727219
581,781.000,11.151910103728824
582,782.000,17.618540153697722
583,783.000,10.029924095485057
584,784.000,27.975376728366882
585,785.000,29.503209855995692
586,786.000,34.684245286359555
587,787.000,41.73946883173471
588,788.000,41.88520630864468
589,789.000,48.69257953781198
590,790.000,62.069232344117836
591,791.000,58.583800556554024
592,792.000,77.03642300818206
593,793.000,76.06797353608636
594,794.000,99.82711198133029
595,795.000,97.72089018891347
596,796.000,93.6687710077249
597,797.000,89.35891429050093
598,798.000,70.32467189377985
599,799.000,62.76308167785692
600,800.000,64.99950450674169
601,801.000,41.74332224811201
602,802.000,46.74158777327102
603,803.000,28.213735957101335
604,804.000,27.363705678023052
605,805.000,29.990036817946475
606,806.000,36.747954262229996
607,807.000,32.34954789963513
608,808.000,26.84823362228144
609,809.000,16.822187325603636
610,810.000,23.241947908305747
611,811.000,8.40459727231746
612,812.000,18.557046322750466
613,813.000,5.19944596785308
614,814.000,7.114957118965776
615,815.000,5.6287966904781115
616,816.000,9.873879599783095
617,817.000,10.090079767233874
618,818.000,13.67477011609867
619,819.000,16.686082572515943
620,820.000,2.220476065451976
621,821.000,0.0
622,822.000,7.249123890610917
623,823.000,0.0
624,824.000,0.0
625,825.000,7.53775278399371
626,826.000,10.012290157028247
627,827.000,0.0
628,828.000,0.0
629,829.000,0.585245766693788
630,830.000,8.92189430809276
631,831.000,0.0
632,832.000,0.0
633,833.000,0.2869323463669389
634,834.000,0.0
635,835.000,17.670746672413316
636,836.000,0.0
637,837.000,0.0
638,838.000,14.421768953816809
639,839.000,0.0
640,840.000,6.339652345740205
641,841.000,0.0
642,842.000,11.09870221644178
643,843.000,2.1175377822837618
644,844.000,8.838685412537416
645,845.000,0.14498409242514754
646,846.000,8.824498808843146
647,847.000,10.991057550316327
648,848.000,5.186141306956415
649,849.000,0.0
650,850.000,0.0
651,851.000,5.568594591830333
652,852.000,5.796495340396859
653,853.000,0.8204160769100781
654,854.000,0.0
655,855.000,1.229312509815827
656,856.000,3.8707152073704947
657,857.000,11.417290895107726
658,858.000,0.3711585765518066
659,859.000,0.0
660,860.000,2.998686940101834
661,861.000,0.0
662,862.000,0.0
663,863.000,6.607838087071514
664,864.000,2.7617368631251793
665,865.000,0.0
666,866.000,4.955558566169884
667,867.000,2.7245695160293053
668,868.000,0.0
669,869.000,5.198422674899803
670,870.000,5.645600910836947
671,871.000,0.0
672,872.000,8.618730767339457
673,873.000,0.0
674,874.000,11.408124238051414
675,875.000,4.609805243371966
676,876.000,1.9904574505483197
677,877.000,0.0
678,878.000,0.0
679,879.000,2.5206264523997106
680,880.000,0.0
681,881.000,3.859958110108437
682,882.000,0.0
683,883.000,1.2265749901234813
684,884.000,0.0
685,885.000,0.0
686,886.000,0.0
687,887.000,0.0
688,888.000,4.860146961554392
689,889.000,0.0
690,890.000,1.7693272219439677
691,891.000,0.0
692,892.000,0.0
693,893.000,0.0
694,894.000,5.271563392423104
695,895.000,0.0
696,896.000,0.0
697,897.000,1.7205109416745472
698,898.000,0.0
699,899.000,7.062123428700261
700,900.000,0.3368075449143362
701,901.000,0.0
702,902.000,4.303047576107701
703,903.000,3.809183509976947
704,904.000,6.23442006715527
705,905.000,0.0
706,906.000,0.0
707,907.000,0.0
708,908.000,6.679002657479941
709,909.000,0.0
710,910.000,0.0
711,911.000,4.682634893236354
712,912.000,0.6760586068962766
713,913.000,3.8889299692448276
714,914.000,0.9212719769882369
715,915.000,0.0
716,916.000,0.0
717,917.000,4.057211818601672
718,918.000,0.0
719,919.000,0.5058794818821752
720,920.000,1.1935812121382696
721,921.000,0.0
722,922.000,0.0
723,923.000,0.0
724,924.000,0.0
725,925.000,3.9934622406562994
726,926.000,0.0
727,927.000,0.0
728,928.000,12.570534435750005
729,929.000,0.0
730,930.000,2.0507923015488814
731,931.000,11.540281262775807
732,932.000,0.0
733,933.000,3.316410066772278
734,934.000,1.156838832919675
735,935.000,0.0
736,936.000,0.0
737,937.000,0.0
738,938.000,0.0
739,939.000,3.4622305666189277
740,940.000,0.0
741,941.000,0.0
742,942.000,0.0
743,943.000,16.857453396428355
744,944.000,1.3656627686423235
745,945.000,9.905088777094761
746,946.000,0.009038352169227437
747,947.000,0.0
748,948.000,0.0
749,949.000,11.042770738636591
750,950.000,5.0827638272905915
751,951.000,0.2647210915379219
752,952.000,4.808310444271456
753,953.000,3.907218795316112
754,954.000,5.386261051380643
755,955.000,10.973381116016071
756,956.000,9.324744889569274
757,957.000,2.6420962691406658
758,958.000,10.849629148538497
759,959.000,0.0
760,960.000,3.3675849653195655
761,961.000,1.0741406734609882
762,962.000,0.0
763,963.000,16.051320090188938
764,964.000,0.0
765,965.000,8.941224667569031
766,966.000,17.663871313017808
767,967.000,0.13145234711782905
768,968.000,8.187750628320828
769,969.000,12.42017501129817
770,970.000,14.36772834689782
771,971.000,15.258687482099731
772,972.000,22.617515259971015
773,973.000,7.269278519621594
774,974.000,17.452428096161384
775,975.000,14.251640820652938
776,976.000,18.070469520070446
777,977.000,18.08985701725328
778,978.000,14.042735130861956
779,979.000,18.170074675335172
780,980.000,13.468568460842562
781,981.000,16.94396929324421
782,982.000,32.22172797404278
783,983.000,34.705595300341884
784,984.000,39.66582506479949
785,985.000,34.44369405558518
786,986.000,41.340219056334945
787,987.000,50.35722884610777
788,988.000,63.29493819934032
789,989.000,56.71709288580291
790,990.000,73.86703667055554
791,991.000,93.24111031390316
792,992.000,104.00848057135113
793,993.000,117.86990219356198
794,994.000,164.52541692630894
795,995.000,204.43034051043492
796,996.000,266.921903681804
797,997.000,363.5331651712613
798,998.000,501.9035057045851
799,999.000,694.5002320024455
800,1000.000,891.1192147803565
801,1001.000,1000.3240057486362
802,1002.000,897.5249286123585
803,1003.000,690.786167071311
804,1004.000,503.65013581995004
805,1005.000,365.81736554735517
806,1006.000,281.77815793718787
807,1007.000,204.91237566764335
808,1008.000,156.63046241140978
809,1009.000,131.65490383562133
810,1010.000,105.8155986018146
811,1011.000,97.808165365886
812,1012.000,73.63874277804416
813,1013.000,64.27080848276887
814,1014.000,56.3186671187641
815,1015.000,76.65805931891532
816,1016.000,66.93378271024449
817,1017.000,60.90537791386578
818,1018.000,55.136818544942116
819,1019.000,59.57390321263915
820,1020.000,56.99423952008169
821,1021.000,61.44791406431068
822,1022.000,70.17500843623634
823,1023.000,87.60964622059669
824,1024.000,103.55963599590928
825,1025.000,113.46492333443189
826,1026.000,149.21532080211477
827,1027.000,187.6050159585559
828,1028.000,245.1559323569595
829,1029.000,326.70564354408884
830,1030.000,395.59241406022375
831,1031.000,427.17767243911635
832,1032.000,391.7744922079439
833,1033.000,323.8837008872688
834,1034.000,245.59797199099035
835,1035.000,190.41774602630358
836,1036.000,142.7943154936529
837,1037.000,115.46650388668718
838,1038.000,92.15860569221832
839,1039.000,67.29024539017382
840,1040.000,49.4390804535542
841,1041.000,50.6716093483883
842,1042.000,45.56513553368859
843,1043.000,30.68269146140733
844,1044.000,39.63512057639218
845,1045.000,23.93983131634127
846,1046.000,22.88254711175955
847,1047.000,15.996817385913573
848,1048.000,20.55576055478832
849,1049.000,24.207683027042776
850,1050.000,19.213072203963975
851,1051.000,13.130256479424816
852,1052.000,13.718064239838213
853,1053.000,10.198869864113476
854,1054.000,19.465969723611124
855,1055.000,11.156275182100444
856,1056.000,0.0
857,1057.000,24.542889312899433
858,1058.000,7.390970674383652
859,1059.000,8.592554013122935
860,1060.000,4.6130256542571715
861,1061.000,4.89946091506863
862,1062.000,9.45863210493826
863,1063.000,0.0
864,1064.000,7.611652469588307
865,1065.000,9.19712122321539
866,1066.000,6.838101063503473
867,1067.000,2.9025502596534807
868,1068.000,6.408243072696905
869,1069.000,13.917419755451874
870,1070.000,14.575928552480036
871,1071.000,14.72821470003987
872,1072.000,5.2805624260438435
873,1073.000,6.462200950015358
874,1074.000,18.728870483040737
875,1075.000,7.523177227728183
876,1076.000,2.9122953781629803
877,1077.000,2.9392971198610667
878,1078.000,0.5552136297274046
879,1079.000,0.0
880,1080.000,0.0
881,1081.000,2.7938034072660685
882,1082.000,11.372859585053448
883,1083.000,4.0532922847960435
884,1084.000,0.0
885,1085.000,0.0
886,1086.000,6.225331714099411
887,1087.000,0.0
888,1088.000,2.1365296501192006
889,1089.000,1.086219778052282
890,1090.000,0.5333161091150487
891,1091.000,0.0
892,1092.000,0.0
893,1093.000,7.590823883979056
894,1094.000,4.724184544116952
895,1095.000,1.6945426191657589
896,1096.000,2.6011071234281644
897,1097.000,8.220558061752854
898,1098.000,11.711844429488565
899,1099.000,1.8841972124412223
900,1100.000,8.105754386829403
901,1101.000,0.0
902,1102.000,9.30487776657992
903,1103.000,2.625448876041446
904,1104.000,0.47912718504881013
905,1105.000,0.0
906,1106.000,10.756224102305168
907,1107.000,3.507636536178552
908,1108.000,6.322399820758619
909,1109.000,4.141958843978955
910,1110.000,0.0
911,1111.000,0.0
912,1112.000,0.0
913,1113.000,6.709801729935407
914,1114.000,3.5050174127366063
915,1115.000,0.0
916,1116.000,2.256250157256318
917,1117.000,13.392861842206457
918,1118.000,12.186660800491154
919,1119.000,0.0
920,1120.000,3.176169669105093
921,1121.000,12.28652811922575
922,1122.000,10.786757922174047
923,1123.000,10.20203182141563
924,1124.000,1.3835645497645146
925,1125.000,1.2779628293383212
926,1126.000,5.4985713715147995
927,1127.000,15.077206876886976
928,1128.000,4.326444035218401
929,1129.000,9.57271452539976
930,1130.000,2.0145190154028114
931,1131.000,0.0
932,1132.000,10.465163611911976
933,1133.000,13.03885499937519
934,1134.000,11.294582948487005
935,1135.000,10.448203071966418
936,1136.000,0.0
937,1137.000,7.507708236940289
938,1138.000,30.44199744777643
939,1139.000,4.973502171574637
940,1140.000,16.360051964691365
941,1141.000,28.879250372078786
942,1142.000,33.42486492723742
943,1143.000,27.879754152175565
944,1144.000,27.8955855573613
945,1145.000,29.354610641681575
946,1146.000,29.411502892394992
947,1147.000,42.575429785089455
948,1148.000,35.75479878363626
949,1149.000,63.693013340147445
950,1150.000,60.40273189492996
951,1151.000,81.63229787644241
952,1152.000,102.7504007012501
953,1153.000,133.37838477398032
954,1154.000,144.01450448727974
955,1155.000,148.65012322176744
956,1156.000,133.4264493459932
957,1157.000,123.63146221639113
958,1158.000,122.70571417723681
959,1159.000,90.73637056060193
960,1160.000,81.42254068631019
961,1161.000,50.106700861894296
962,1162.000,50.33947838254858
963,1163.000,40.42338853108731
964,1164.000,52.97096257790099
965,1165.000,35.28481778090804
966,1166.000,38.08022538551563
967,1167.000,22.255292624570075
968,1168.000,22.864416718317216
969,1169.000,34.297759874355506
970,1170.000,20.207160287591705
971,1171.000,22.73849114019754
972,1172.000,30.120612601564517
973,1173.000,21.640543828260434
974,1174.000,28.18998796398364
975,1175.000,28.771569139520352
976,1176.000,45.65418747269996
977,1177.000,47.84158206834877
978,1178.000,60.156270018248506
979,1179.000,66.37323640109116
980,1180.000,90.75107828243154
981,1181.000,115.80631671464812
982,1182.000,106.4175537368958
983,1183.000,124.88599837506081
984,1184.000,120.3374756417179
985,1185.000,98.21327853608591
986,1186.000,93.47338104398318
987,1187.000,64.52284413778216
988,1188.000,49.64655277636757
989,1189.000,58.35966490508872
990,1190.000,41.02849745571848
991,1191.000,38.517766346406916
992,1192.000,24.200457481636704
993,1193.000,22.47441875218192
994,1194.000,9.805067035058073
995,1195.000,27.493873193483523
996,1196.000,2.5085830768321102
997,1197.000,3.2645955205887276
998,1198.000,11.500836346306187
999,1199.000,11.48533236156004
1000,1200.000,17.911518359904676
1001,1201.000,0.0
1002,1202.000,9.004670409713071
1003,1203.000,3.400319977779418
1004,1204.000,0.0
1005,1205.000,0.0
1006,1206.000,9.095527656076001
1007,1207.000,6.585628568481752
1008,1208.000,0.0
1009,1209.000,2.1335475229773238
1010,1210.000,7.863884881338208
1011,1211.000,0.0
1012,1212.000,6.887997542210087
1013,1213.000,1.6984600738044264
1014,1214.000,2.576112201186561
1015,1215.000,0.0
1016,1216.000,0.0
1017,1217.000,0.16162186350425145
1018,1218.000,4.88039500565219
1019,1219.000,7.10825148540971
1020,1220.000,11.440862806594168
1021,1221.000,2.462113458071599
1022,1222.000,8.104401913709353
1023,1223.000,3.2375776323360697
1024,1224.000,11.19725505769361
1025,1225.000,0.0
1026,1226.000,0.849629727875481
1027,1227.000,3.4674187843586424
1028,1228.000,0.0
1029,1229.000,0.0
1030,1230.000,0.7939423888090005
1031,1231.000,0.2579049095772916
1032,1232.000,0.0
1033,1233.000,0.0
1034,1234.000,0.0
1035,1235.000,1.166235057482936
1036,1236.000,0.0
1037,1237.000,0.0
1038,1238.000,0.0
1039,1239.000,11.849216313556099
1040,1240.000,5.988492914010749
1041,1241.000,2.6635984137863034
1042,1242.000,3.8268189775062638
1043,1243.000,5.074002753866353
1044,1244.000,8.073634875591097
1045,1245.000,3.26585145938634
1046,1246.000,0.8630866059004347
1047,1247.000,0.0
1048,1248.000,3.3417949090969614
1049,1249.000,6.85908418637041
1050,1250.000,2.888343267452683
1051,1251.000,1.3801231720215128
1052,1252.000,0.0
1053,1253.000,0.0
1054,1254.000,0.4432447782558029
1055,1255.000,0.0
1056,1256.000,4.50954559052002
1057,1257.000,1.4588909318317747
1058,1258.000,1.7906197747388433
1059,1259.000,0.0
1060,1260.000,0.0
1061,1261.000,0.7272031077980046
1062,1262.000,0.0
1063,1263.000,0.6037870021802973
1064,1264.000,2.1939909135096514
1065,1265.000,0.0
1066,1266.000,4.556558599738082
1067,1267.000,7.0387938978856255
1068,1268.000,0.0
1069,1269.000,0.0
1070,1270.000,8.668242394187246
1071,1271.000,3.568507433152263
1072,1272.000,6.954580869059328
1073,1273.000,0.0
1074,1274.000,2.0082975153809457
1075,1275.000,0.0
1076,1276.000,0.0
1077,1277.000,1.8178721548240446
1078,1278.000,0.0
1079,1279.000,0.0
1080,1280.000,0.0
1081,1281.000,11.806883214975642
1082,1282.000,11.77548051433132
1083,1283.000,0.0
1084,1284.000,8.895292342652738
1085,1285.000,0.3109117687952221
1086,1286.000,11.110076104681411
1087,1287.000,5.800181754292225
1088,1288.000,0.0
1089,1289.000,5.822466520947955
1090,1290.000,0.0
1091,1291.000,0.0
1092,1292.000,4.2981385904288345
1093,1293.000,0.9521145991814137
1094,1294.000,0.0
1095,1295.000,2.953196787824254
1096,1296.000,0.0
1097,1297.000,0.0
1098,1298.000,11.518731114530965
1099,1299.000,5.44412847096055
1100,1300.000,0.0
1101,1301.000,2.09175008786724
1102,1302.000,2.17461462785036
1103,1303.000,7.281186477573101
1104,1304.000,0.0
1105,1305.000,8.868981460603663
1106,1306.000,2.9113287243583272
1107,1307.000,3.447839558657506
1108,1308.000,6.3260429817892145
1109,1309.000,0.0
1110,1310.000,0.357367573387819
1111,1311.000,3.03452968398301
1112,1312.000,1.3747152675796315
1113,1313.000,0.0
1114,1314.000,0.0
1115,1315.000,0.0
1116,1316.000,0.564690517064264
1117,1317.000,0.0
1118,1318.000,0.0
1119,1319.000,0.0
1120,1320.000,0.0
1121,1321.000,10.81202087933093
1122,1322.000,0.0
1123,1323.000,0.0
1124,1324.000,6.107603162422947
1125,1325.000,2.5321989523854427
1126,1326.000,0.0
1127,1327.000,2.883276137846906
1128,1328.000,0.0
1129,1329.000,0.0
1130,1330.000,0.0
1131,1331.000,0.0
1132,1332.000,3.5767648683145126
1133,1333.000,4.136368029773621
1134,1334.000,0.0
1135,1335.000,1.2221797969987165
1136,1336.000,0.0
1137,1337.000,1.915713680782119
1138,1338.000,0.0
1139,1339.000,0.0
1140,1340.000,4.416178271944318
1141,1341.000,4.305394665169388
1142,1342.000,0.0
1143,1343.000,3.0258718905599835
1144,1344.000,10.27316536635476
1145,1345.000,1.5035684792483153
1146,1346.000,5.448282499907236
1147,1347.000,2.8653966784600016
1148,1348.000,0.0
1149,1349.000,3.236766406802417
1150,1350.000,3.131414353754735
1151,1351.000,9.304855252840298
1152,1352.000,0.7163642508273824
1153,1353.000,0.0
1154,1354.000,1.3817830265190878
1155,1355.000,0.0
1156,1356.000,2.2268284380891146
1157,1357.000,0.4505404024080235
1158,1358.000,0.0
1159,1359.000,11.708696954447305
1160,1360.000,6.50933952146147
1161,1361.000,6.585189566765166
1162,1362.000,0.0
1163,1363.000,1.8150958178962355
1164,1364.000,0.0
1165,1365.000,6.355599946405164
1166,1366.000,0.0
1167,1367.000,0.0
1168,1368.000,5.747664278123011
1169,1369.000,0.0
1170,1370.000,2.8482210249335367
1171,1371.000,0.0
1172,1372.000,3.1512132863419993
1173,1373.000,0.0
1174,1374.000,2.5353727534863992
1175,1375.000,0.0
1176,1376.000,2.9331377697294556
1177,1377.000,0.7700553081208454
1178,1378.000,3.4497813292427963
1179,1379.000,0.0
1180,1380.000,7.637415075585068
1181,1381.000,9.476821873709241
1182,1382.000,2.780370300284403
1183,1383.000,8.631940836513422
1184,1384.000,0.0
1185,1385.000,0.0
1186,1386.000,0.0
1187,1387.000,2.9287479248341697
1188,1388.000,0.0
1189,1389.000,9.960068503844468
1190,1390.000,2.581273412706196
1191,1391.000,9.161841478671931
1192,1392.000,1.7662779817376304
1193,1393.000,0.0
1194,1394.000,0.0
1195,1395.000,0.0
1196,1396.000,2.5664791736980987
1197,1397.000,1.0061802703780813
1198,1398.000,7.191478008425975
1199,1399.000,1.8463825088563226
1200,1400.000,0.0
1201,1401.000,11.812065166439652
1202,1402.000,0.0
1203,1403.000,0.8477137526776914
1204,1404.000,2.258836077595788
1205,1405.000,0.5815294087740313
1206,1406.000,1.1041827060762444
1207,1407.000,3.8563449061664414
1208,1408.000,0.0
1209,1409.000,9.13983164510978
1210,1410.000,0.0
1211,1411.000,17.785142653255434
1212,1412.000,6.771486602187679
1213,1413.000,0.0
1214,1414.000,0.0
1215,1415.000,0.0
1216,1416.000,8.659988341542885
1217,1417.000,0.0
1218,1418.000,4.836216221915947
1219,1419.000,2.421645810346945
1220,1420.000,12.676306346923639
1221,1421.000,4.61901343886916
1222,1422.000,19.90525466954341
1223,1423.000,6.516372598395492
1224,1424.000,19.33928176092445
1225,1425.000,16.195699668632642
1226,1426.000,9.184419808977509
1227,1427.000,2.4410506453343714
1228,1428.000,25.966364616946294
1229,1429.000,23.238885138883234
1230,1430.000,15.01190160199576
1231,1431.000,29.510710372871245
1232,1432.000,20.035791793790622
1233,1433.000,11.839527182681195
1234,1434.000,24.927737833076662
1235,1435.000,30.27497201406868
1236,1436.000,51.76921697026387
1237,1437.000,49.24398792174043
1238,1438.000,46.15414606400259
1239,1439.000,56.44299156793909
1240,1440.000,72.24203957977261
1241,1441.000,74.36139522102326
1242,1442.000,99.51062858845717
1243,1443.000,94.98639775404695
1244,1444.000,125.87907376492672
1245,1445.000,134.93805864334513
1246,1446.000,172.2160483866228
1247,1447.000,178.4012189671089
1248,1448.000,204.38248233213403
1249,1449.000,211.57341940397146
1250,1450.000,213.4479920797844
1251,1451.000,216.69134623158857
1252,1452.000,190.0501217062058
1253,1453.000,192.93997632521723
1254,1454.000,166.66535688492513
1255,1455.000,142.26371715630103
1256,1456.000,125.25820588494616
1257,1457.000,110.73973579104654
1258,1458.000,83.90699056932681
1259,1459.000,76.98253188900799
1260,1460.000,66.55837639376296
1261,1461.000,57.58964270166916
1262,1462.000,37.17648540516848
1263,1463.000,41.42307707102009
1264,1464.000,50.8282542402585
1265,1465.000,28.070524428144836
1266,1466.000,37.93541712412707
1267,1467.000,30.42680079179513
1268,1468.000,24.060724868832494
1269,1469.000,21.911485766977876
1270,1470.000,22.277102871975785
1271,1471.000,14.666639543534302
1272,1472.000,17.89995611528093
1273,1473.000,5.728772894719214
1274,1474.000,2.1654871631810693
1275,1475.000,17.66696017578647
1276,1476.000,6.315778161394746
1277,1477.000,9.822399322564479
1278,1478.000,13.919588835507511
1279,1479.000,8.575189850044353
1280,1480.000,1.633147489557814
1281,1481.000,0.8710238509534065
1282,1482.000,21.041548004611286
1283,1483.000,9.309277994343802
1284,1484.000,9.310393837349238
1285,1485.000,7.681805524168567
1286,1486.000,9.09051001864259
1287,1487.000,1.963174257864921
1288,1488.000,0.0
1289,1489.000,2.8555535849361604
1290,1490.000,6.337743412843793
1291,1491.000,0.32021846553016076
1292,1492.000,2.9015375456938273
1293,1493.000,0.0
1294,1494.000,1.3124258641491906
1295,1495.000,2.8301015726012793
1296,1496.000,4.781794248765436
1297,1497.000,5.052823559838316
1298,1498.000,5.875058145782305
1299,1499.000,5.371849619282784
1300,1500.000,5.954706565700462
1301,1501.000,2.279287543031842
1302,1502.000,0.0
1303,1503.000,0.0
1304,1504.000,3.1531378290333123
1305,1505.000,9.960927961090647
1306,1506.000,1.6077895019884636
1307,1507.000,0.0
1308,1508.000,9.689473354088022
1309,1509.000,4.89841836794335
1310,1510.000,8.288876195857938
1311,1511.000,12.30085311972448
1312,1512.000,0.0
1313,1513.000,1.7899112435547977
1314,1514.000,0.0
1315,1515.000,4.091378436675086
1316,1516.000,0.0
1317,1517.000,1.2399179485278182
1318,1518.000,0.6590790916366132
1319,1519.000,0.28878357934104315
1320,1520.000,0.0
1321,1521.000,0.0
1322,1522.000,0.0
1323,1523.000,0.0
1324,1524.000,0.0
1325,1525.000,0.0
1326,1526.000,0.0
1327,1527.000,0.0
1328,1528.000,11.801482016273212
1329,1529.000,4.409295901792802
1330,1530.000,0.0
1331,1531.000,7.8034847162252845
1332,1532.000,3.995836049156651
1333,1533.000,6.297150553963547
1334,1534.000,7.874882860669459
1335,1535.000,0.0
1336,1536.000,9.771774255459832
1337,1537.000,0.0
1338,1538.000,0.0
1339,1539.000,1.8748604498475743
1340,1540.000,5.234045178392762
1341,1541.000,0.0
1342,1542.000,1.3139832365914117
1343,1543.000,8.76089333259597
1344,1544.000,2.651248935344711
1345,1545.000,5.573043354808306
1346,1546.000,9.267000871593837
1347,1547.000,4.69819673690381
1348,1548.000,1.0024861724907623
1349,1549.000,9.147747370609977
1350,1550.000,14.732131493980432
1351,1551.000,0.0
1352,1552.000,7.386015019382739
1353,1553.000,2.7095095987549485
1354,1554.000,11.289572457970962
1355,1555.000,9.601004611386543
1356,1556.000,6.1741680435548005
1357,1557.000,0.7275707091771437
1358,1558.000,11.473965533062483
1359,1559.000,12.222301410080036
1360,1560.000,13.037629205118947
1361,1561.000,21.81989875303998
1362,1562.000,12.990006858631205
1363,1563.000,23.19496329656954
1364,1564.000,27.0705628113667
1365,1565.000,28.646308117334684
1366,1566.000,12.606204898534088
1367,1567.000,14.246908808734588
1368,1568.000,20.1471574713662
1369,1569.000,24.14373347948117
1370,1570.000,22.50249239570212
1371,1571.000,32.05743975218343
1372,1572.000,33.527317050564534
1373,1573.000,47.31063176192583
1374,1574.000,48.933009326743786
1375,1575.000,62.472356154850104
1376,1576.000,82.18802562538121
1377,1577.000,90.73050708673918
1378,1578.000,110.0399318565444
1379,1579.000,130.70632822159496
1380,1580.000,159.03358643781462
1381,1581.000,193.6280587302199
1382,1582.000,199.30692229286387
1383,1583.000,226.4752372888006
1384,1584.000,221.97304585003712
1385,1585.000,211.46918507748774
1386,1586.000,178.49269004093435
1387,1587.000,155.89087377897727
1388,1588.000,144.35297129899232
1389,1589.000,127.94126457708967
1390,1590.000,131.4691005580646
1391,1591.000,122.03464615535563
1392,1592.000,135.37228125100205
1393,1593.000,139.30696969559335
1394,1594.000,155.1964623082347
1395,1595.000,175.2579658764912
1396,1596.000,204.01868915635373
1397,1597.000,249.1495868721895
1398,1598.000,316.64051171669485
1399,1599.000,411.0049863508593
1400,1600.000,511.09358240391384
1401,1601.000,595.5918934732886
1402,1602.000,617.565767124571
1403,1603.000,589.489232891458
1404,1604.000,499.14486027571365
1405,1605.000,394.9652307471249
1406,1606.000,317.94266774345533
1407,1607.000,245.26582467040362
1408,1608.000,196.31510890155755
1409,1609.000,149.94091177834912
1410,1610.000,123.81402861001197
1411,1611.000,105.22246567353386
1412,1612.000,87.4628962136187
1413,1613.000,87.34991044263393
1414,1614.000,62.54180954057256
1415,1615.000,64.42297365500531
1416,1616.000,63.552816901038796
1417,1617.000,47.83814636126931
1418,1618.000,41.678335085738354
1419,1619.000,34.77903109189083
1420,1620.000,18.956084364527214
1421,1621.000,24.351782855762394
1422,1622.000,30.400129484977924
1423,1623.000,26.32836913878191
1424,1624.000,15.99100967096092
1425,1625.000,17.688761902437136
1426,1626.000,22.941036621225294
1427,1627.000,9.586928582385553
1428,1628.000,11.73502250798174
1429,1629.000,18.26615208703538
1430,1630.000,8.204905975481324
1431,1631.000,14.280134796126276
1432,1632.000,15.978069138598585
1433,1633.000,4.776270559311342
1434,1634.000,13.976001581412447
1435,1635.000,10.321458694740613
1436,1636.000,4.179649355785614
1437,1637.000,12.995944987637813
1438,1638.000,0.0
1439,1639.000,0.1373266888829221
1440,1640.000,5.33697243707843
1441,1641.000,0.6428625135972652
1442,1642.000,0.0
1443,1643.000,0.0
1444,1644.000,5.83717409917881
1445,1645.000,13.9086307065877
1446,1646.000,4.011211582474289
1447,1647.000,0.0
1448,1648.000,8.96759045254953
1449,1649.000,0.7155715184194378
1450,1650.000,9.119443996039763
1451,1651.000,0.0
1452,1652.000,9.656500956014725
1453,1653.000,0.6622202379132887
1454,1654.000,7.156828530560688
1455,1655.000,0.0
1456,1656.000,7.737182371361314
1457,1657.000,8.808245445502052
1458,1658.000,3.1271305822781414
1459,1659.000,0.0
1460,1660.000,5.948516717934808
1461,1661.000,3.018505967826968
1462,1662.000,15.399909782293207
1463,1663.000,0.0
1464,1664.000,0.0
1465,1665.000,3.1620128323411336
1466,1666.000,0.0
1467,1667.000,0.13866698429569624
1468,1668.000,0.0
1469,1669.000,3.9795442219030974
1470,1670.000,9.325410053513451
1471,1671.000,1.6617960536052578
1472,1672.000,2.2463844484648234
1473,1673.000,7.365275429381654
1474,1674.000,0.6009951526127679
1475,1675.000,12.761886739331203
1476,1676.000,0.0
1477,1677.000,1.4110428122519352
1478,1678.000,3.1765343649969964
1479,1679.000,0.0
1480,1680.000,0.0
1481,1681.000,14.076761747194723
1482,1682.000,0.0
1483,1683.000,0.0
1484,1684.000,6.38619244812071
1485,1685.000,10.027185584696554
1486,1686.000,1.877154589630436
1487,1687.000,0.0
1488,1688.000,13.280575955874838
1489,1689.000,0.0
1490,1690.000,0.0
1491,1691.000,7.328681776637268
1492,1692.000,0.0
1493,1693.000,0.0
1494,1694.000,0.0
1495,1695.000,0.0
1496,1696.000,0.0
1497,1697.000,0.0
1498,1698.000,1.84905221232043
1499,1699.000,2.1584768855605034
1500,1700.000,0.0
1501,1701.000,0.0
1502,1702.000,9.865598813489441
1503,1703.000,0.0
1504,1704.000,0.0
1505,1705.000,4.5178390235250845
1506,1706.000,6.703869021201172
1507,1707.000,5.375212971726796
1508,1708.000,4.14420781372155
1509,1709.000,6.405201449219021
1510,1710.000,1.0568637436156223
1511,1711.000,0.6955475256349928
1512,1712.000,0.0
1513,1713.000,1.11627168376981
1514,1714.000,10.493775533543612
1515,1715.000,1.7324918181641351
1516,1716.000,3.8793951823008683
1517,1717.000,0.829347233682256
1518,1718.000,0.0
1519,1719.000,2.03185664409375
1520,1720.000,5.105897033462043
1521,1721.000,0.0
1522,1722.000,0.0
1523,1723.000,4.8762083406998045
1524,1724.000,7.0432931065627145
1525,1725.000,0.0
1526,1726.000,3.980758552843099
1527,1727.000,0.0
1528,1728.000,13.205065853158203
1529,1729.000,0.0
1530,1730.000,12.844810444900986
1531,1731.000,3.4740121351335347
1532,1732.000,1.8686881651503882
1533,1733.000,5.858352545553089
1534,1734.000,20.142889249247673
1535,1735.000,4.1554892113995265
1536,1736.000,0.0
1537,1737.000,0.0
1538,1738.000,0.0
1539,1739.000,4.228268024413865
1540,1740.000,4.881332982254207
1541,1741.000,4.722554014482284
1542,1742.000,0.0
1543,1743.000,0.0
1544,1744.000,10.779440064295159
1545,1745.000,10.66990571021961
1546,1746.000,0.0
1547,1747.000,1.9974326058159022
1548,1748.000,15.133180774788343
1549,1749.000,1.204042306835845
1550,1750.000,3.4704535656812823
1551,1751.000,8.072992876595663
1552,1752.000,10.70675852635486
1553,1753.000,6.634352763197285
1554,1754.000,0.0
1555,1755.000,4.210221798111888
1556,1756.000,5.1576828995614505
1557,1757.000,12.06305919475949
1558,1758.000,0.5395187385797726
1559,1759.000,0.0
1560,1760.000,7.497531597513444
1561,1761.000,0.0
1562,1762.000,5.022398138448352
1563,1763.000,0.0
1564,1764.000,4.190007400456807
1565,1765.000,0.0
1566,1766.000,0.6420397981733004
1567,1767.000,0.0
1568,1768.000,0.0
1569,1769.000,11.604058890679426
1570,1770.000,0.0
1571,1771.000,0.0
1572,1772.000,0.0
1573,1773.000,3.4030949204227454
1574,1774.000,4.639103104153037
1575,1775.000,3.5525024959490565
1576,1776.000,7.180457445402453
1577,1777.000,0.0
1578,1778.000,6.293776217585446
1579,1779.000,3.9407705413045733
1580,1780.000,3.8304774245675617
1581,1781.000,9.769927018507133
1582,1782.000,0.0
1583,1783.000,10.958586743764727
1584,1784.000,0.0
1585,1785.000,0.0
1586,1786.000,2.7274011476595206
1587,1787.000,8.587101946078747
1588,1788.000,0.0
1589,1789.000,8.808023327201681
1590,1790.000,2.7393475323005987
1591,1791.000,8.29687776167657
1592,1792.000,4.585853725944389
1593,1793.000,2.8430830954039266
1594,1794.000,4.146812500000806
1595,1795.000,4.818582529276227
1596,1796.000,5.60030173232758
1597,1797.000,13.075453617760559
1598,1798.000,11.726210653646604
1599,1799.000,3.38490826747784
1600,1800.000,0.0
1601,1801.000,16.994908735787476
1602,1802.000,10.582562241956566
1603,1803.000,4.235660629364929
1604,1804.000,6.672504121945622
1605,1805.000,8.189095902785766
1606,1806.000,2.0976211140839496
1607,1807.000,0.0
1608,1808.000,0.0
1609,1809.000,6.834250138437255
1610,1810.000,6.291917674212073
1611,1811.000,0.864487736543424
1612,1812.000,3.516136221364377
1613,1813.000,6.147138983405512
1614,1814.000,19.186443836154695
1615,1815.000,10.149650551811874
1616,1816.000,9.266934861241225
1617,1817.000,0.0
1618,1818.000,9.441696977958827
1619,1819.000,5.1596300399169195
1620,1820.000,6.691150204900396
1621,1821.000,2.701950996447522
1622,1822.000,14.905033896498708
1623,1823.000,7.300648345348009
1624,1824.000,0.0
1625,1825.000,10.848202442148931
1626,1826.000,0.0
1627,1827.000,14.135601974672454
1628,1828.000,5.8172703113500575
1629,1829.000,0.0
1630,1830.000,7.897124073026134
1631,1831.000,5.590718751134318
1632,1832.000,10.47913605945314
1633,1833.000,1.4170640194126918
1634,1834.000,8.358638610306116
1635,1835.000,1.244359769256107
1636,1836.000,6.947728391164674
1637,1837.000,1.7364113286689644
1638,1838.000,4.730780392100542
1639,1839.000,9.369602349435127
1640,1840.000,17.2311889262553
1641,1841.000,5.330436805699037
1642,1842.000,1.3695876284214137
1643,1843.000,4.94119699254702
1644,1844.000,10.859710453625212
1645,1845.000,5.189968524588494
1646,1846.000,6.011916675705834
1647,1847.000,12.292566334539515
1648,1848.000,0.0
1649,1849.000,7.45934467179859
1650,1850.000,4.034040991413576
1651,1851.000,10.658303101035017
1652,1852.000,0.8390032140221138
1653,1853.000,5.497151500763039
1654,1854.000,8.196752088629864
1655,1855.000,11.672749061930062
1656,1856.000,5.168716461866552
1657,1857.000,7.522391286490802
1658,1858.000,10.592681490660652
1659,1859.000,0.4886559859933186
1660,1860.000,2.60813564082423
1661,1861.000,0.0
1662,1862.000,11.549919685634222
1663,1863.000,11.49684559546563
1664,1864.000,7.6619467044117755
1665,1865.000,0.0
1666,1866.000,2.12479908110231
1667,1867.000,11.414988520659563
1668,1868.000,1.9973395028625873
1669,1869.000,7.333579504500449
1670,1870.000,0.0
1671,1871.000,7.358006254554539
1672,1872.000,24.757649737734255
1673,1873.000,21.18928570978619
1674,1874.000,8.693398428422597
1675,1875.000,8.635730107404697
1676,1876.000,10.343330916499553
1677,1877.000,10.702484981439738
1678,1878.000,13.360208383874351
1679,1879.000,9.223117161327764
1680,1880.000,24.152912307153883
1681,1881.000,4.1933597704903605
1682,1882.000,4.064846456217765
1683,1883.000,7.14145322491413
1684,1884.000,16.00054289280706
1685,1885.000,14.785039231735936
1686,1886.000,0.0
1687,1887.000,7.121976787818539
1688,1888.000,8.016922326290114
1689,1889.000,4.4769611783383425
1690,1890.000,13.059385893178842
1691,1891.000,1.0664549753628307
1692,1892.000,12.739179884744772
1693,1893.000,8.829497036430439
1694,1894.000,11.471233800733899
1695,1895.000,4.571610503134707
1696,1896.000,10.203305424233577
1697,1897.000,2.9468247997056096
1698,1898.000,4.105113820259476
1699,1899.000,0.0
1700,1900.000,0.0
1701,1901.000,12.90669498402508
1702,1902.000,18.807167591060306
1703,1903.000,3.0204071206389926
1704,1904.000,17.811701492726797
1705,1905.000,14.100705582011642
1706,1906.000,0.0
1707,1907.000,3.9169301842673576
1708,1908.000,0.0
1709,1909.000,17.792211017653244
1710,1910.000,2.9705682253897976
1711,1911.000,0.0
1712,1912.000,15.169517233332726
1713,1913.000,5.323840100897542
1714,1914.000,3.845722512998009
1715,1915.000,5.753155889095069
1716,1916.000,8.035461602886926
1717,1917.000,5.280188982258096
1718,1918.000,10.059837309240265
1719,1919.000,17.082347819965662
1720,1920.000,8.205163704620645
1721,1921.000,17.091130107405206
1722,1922.000,0.0
1723,1923.000,0.0
1724,1924.000,12.407587175782965
1725,1925.000,23.3670161717705
1726,1926.000,11.8995437155138
1727,1927.000,11.213347674353827
1728,1928.000,7.297549869330851
1729,1929.000,11.151481075146194
1730,1930.000,11.519825020109465
1731,1931.000,12.708336386102701
1732,1932.000,5.612229808531765
1733,1933.000,12.823656876279756
1734,1934.000,15.455463131668921
1735,1935.000,3.9156450704083454
1736,1936.000,10.254465141558967
1737,1937.000,4.8730767474817185
1738,1938.000,5.152237243793934
1739,1939.000,10.897329939332394
1740,1940.000,11.74898809609499
1741,1941.000,12.677578929214405
1742,1942.000,13.738640606897206
1743,1943.000,14.288281250388536
1744,1944.000,8.45987693392749
1745,1945.000,12.5944976847004
1746,1946.000,13.261852482792165
1747,1947.000,1.5381092611548866
1748,1948.000,7.018787905551335
1749,1949.000,10.43159825451312
1750,1950.000,2.6173270993026563
1751,1951.000,10.527137183859395
1752,1952.000,0.0
1753,1953.000,1.1369788111871912
1754,1954.000,8.281328604851979
1755,1955.000,0.5439291399841295
1756,1956.000,6.202269923267295
1757,1957.000,9.526088413806292
1758,1958.000,4.793573023072668
1759,1959.000,15.936621114866057
1760,1960.000,0.0
1761,1961.000,8.207869962608811
1762,1962.000,2.565985207395215
1763,1963.000,9.49776791229624
1764,1964.000,4.838601202082145
1765,1965.000,4.537315153585496
1766,1966.000,23.558476795656816
1767,1967.000,16.651475109114926
1768,1968.000,10.006661026712436
1769,1969.000,10.650456433079853
1770,1970.000,6.548216164692121
1771,1971.000,7.87509600981798
1772,1972.000,6.324996708473009
1773,1973.000,5.038340952385624
1774,1974.000,2.407171384940739
1775,1975.000,9.337176601145757
1776,1976.000,8.372631147578204
1777,1977.000,5.0633485223445405
1778,1978.000,9.838195175039345
1779,1979.000,3.925457506694329
1780,1980.000,0.0
1781,1981.000,9.506182567953374
1782,1982.000,12.768056856424437
1783,1983.000,7.0527939415053424
1784,1984.000,0.0
1785,1985.000,4.758265082950629
1786,1986.000,0.0
1787,1987.000,11.053647666672532
1788,1988.000,0.0
1789,1989.000,5.665548584429644
1790,1990.000,0.0
1791,1991.000,5.126986943932252
1792,1992.000,13.034778420760631
1793,1993.000,3.5744770674252777
1794,1994.000,8.114832551245854
1795,1995.000,5.093489490269803
1796,1996.000,5.986561453236163
1797,1997.000,10.811352959522992
1798,1998.000,9.745740479106644
1799,1999.000,0.0
1800,2000.000,0.523362190798025
