# kind,background_subtracted
# version_label,v1_poly5
# poly_order,5
# iterations_run,8
pixel_index,raman_shift_cm-1,intensity,background_intensity
0,-224.846,3.5851643558369517,96.41483564416305
1,-221.778,2.5760904182975537,96.42390958170245
2,-218.712,1.5669081771912943,96.4330918228087
3,-215.647,0.0,96.44238159556883
4,-212.583,2.5482218694730534,96.45177813052695
5,-209.521,1.5387193393190728,96.46128066068093
6,-206.460,2.5291115785209115,96.47088842147909
7,-203.399,0.5193993491831037,96.4806006508169
8,-200.340,1.5095834109663997,96.4904165890336
9,-197.283,0.49966452109107706,96.50033547890892
10,-194.226,2.489643434340266,96.51035656565973
11,-191.171,1.4795209030632464,96.52047909693675
12,-188.116,1.469297677178801,96.5307023228212
13,-185.064,1.4589745041785562,96.54102549582144
14,-182.012,0.448552129130249,96.55144787086975
15,-178.961,1.4380312946810818,96.56196870531892
16,-175.912,0.42741274106107596,96.57258725893892
17,-172.864,2.4166972060863543,96.58330279391365
18,-169.817,0.4058854251624382,96.59411457483756
19,-166.771,2.3949781312876866,96.60502186871231
20,-163.726,1.3839760550564648,96.61602394494354
21,-160.683,1.372879924662584,96.62712007533742
22,-157.641,2.3616904659025977,96.6383095340974
23,-154.600,0.35040840217909874,96.6495915978209
24,-151.560,0.3390344545040449,96.66096554549596
25,-148.521,3.3275693415021266,96.67243065849787
26,-145.484,1.3160137794140496,96.68398622058595
27,-142.447,1.3043684820998465,96.69563151790015
28,-139.412,1.292634161042244,96.70736583895776
29,-136.379,2.280811525349989,96.71918847465001
30,-133.346,0.26890128176110295,96.7310987182389
31,-130.314,2.256904134646291,96.74309586535371
32,-127.284,2.2448207860121983,96.7551792139878
33,-124.255,1.2326519355047765,96.76734806449522
34,-121.227,1.2203982804125815,96.77960171958742
35,-118.200,1.208060515670141,96.79193948432986
36,-115.175,2.1956393338611946,96.8043606661388
37,-112.150,1.183135425222119,96.81686457477788
38,-109.127,1.170549477645153,96.82945052235485
39,-106.105,0.1578821766818237,96.84211782331818
40,-103.084,1.1451342055461566,96.85486579445384
41,-100.065,2.132306245118116,96.86769375488188
42,-97.046,2.119398973946815,96.88060102605318
43,-94.029,0.10641306825394281,96.89358693174606
44,-91.013,2.0933492019370306,96.90665079806297
45,-87.998,1.08020804657275,96.91979195342725
46,-84.984,2.066990271420309,96.93300972857969
47,-81.972,0.0,96.94630345657525
48,-78.960,0.04032752722021371,96.95967247277979
49,-75.950,1.0268838851333442,96.97311611486666
50,-72.941,0.013366277186591446,96.98663372281341
51,-69.933,0.0,97.00022463889852
52,-66.927,0.0,97.01388820769796
53,-63.921,0.0,97.02762377608201
54,-60.917,1.958569306788192,97.04143069321181
55,-57.914,0.944691689463923,97.05530831053608
56,-54.912,0.0,97.06925598178785
57,-51.911,0.0,97.08327306298105
58,-48.912,0.9026410875927553,97.09735891240724
59,-45.913,0.0,97.11151289063228
60,-42.916,1.8742656395070014,97.125734360493
61,-39.920,1.859977312906139,97.14002268709386
62,-36.925,0.8456227621963706,97.15437723780363
63,-33.931,0.0,97.16879738225212
64,-30.939,1.8167175076732036,97.1832824923268
65,-27.947,1.8021680578305421,97.19783194216946
66,-24.957,7.787554891827057,97.21244510817294
67,-21.968,0.7728786310221949,97.2271213689778
68,-18.980,1.7581398945310553,97.24186010546894
69,-15.993,0.7433392992276282,97.25666070077237
70,-13.008,0.0,97.27152254025178
71,-10.023,0.0,97.2864450115053
72,-7.040,0.6985724956378903,97.30142750436211
73,-4.058,0.6835305891208066,97.3164694108792
74,-1.077,0.6684298746620243,97.33157012533798
75,1.903,0.0,97.34672904424093
76,4.881,0.0,97.3619455663084
77,7.859,0.6227809075248416,97.37721909247516
78,10.835,0.0,97.3925490258871
79,13.810,1.5920652281020153,97.40793477189798
80,16.784,1.5766242619339579,97.42337573806604
81,19.757,0.0,97.43887133415068
82,22.728,1.5455790278908808,97.45442097210912
83,25.699,0.0,97.47002406609319
84,28.668,2.5143199675541723,97.48568003244583
85,31.636,1.498611710302086,97.50138828969791
86,34.603,1.482851741435141,97.51714825856486
87,37.569,0.0,97.5329593619433
88,40.534,0.0,97.54882102490777
89,43.497,0.4352673252925854,97.56473267470741
90,46.460,0.4193062592373735,97.58069374076263
91,49.421,1.4032963453382763,97.59670365466172
92,52.381,0.3872381498423749,97.61276185015763
93,55.340,1.3711322368354217,97.62886776316458
94,58.297,0.0,97.64502083175478
95,61.254,0.33877950384497524,97.66122049615502
96,64.209,1.322533801256526,97.67746619874347
97,67.164,1.306242615953721,97.69375738404628
98,70.117,0.28990650126576156,97.71009349873424
99,73.069,2.273526008380486,97.72647399161951
100,76.020,2.257101686347724,97.74289831365228
101,78.969,1.2406340820825932,97.7593659179174
102,81.918,1.2241237403688388,97.77587625963116
103,84.865,5.207571203862173,97.79242879613783
104,87.811,3.190977013093544,97.80902298690646
105,90.757,1.174341706472532,97.82565829352747
106,93.700,2.1576658202906174,97.84233417970938
107,96.643,0.14094988872453484,97.85905011127547
108,99.585,2.1241944438395706,97.87580555616043
109,102.525,2.1074000155929014,97.8925999844071
110,105.465,0.09056713183694853,97.90943286816305
111,108.403,1.0736963183226464,97.92630368167735
112,111.340,2.056788098702768,97.94321190129723
113,114.276,3.0398429945353342,97.96015700546467
114,117.211,3.022861525286814,97.97713847471319
115,120.144,0.005844208335531675,97.99415579166447
116,123.077,0.9887915589749952,98.011208441025
117,126.008,1.9717040904171341,98.02829590958287
118,128.938,2.95458231379574,98.04541768620426
119,131.868,1.937426738169691,98.06257326183031
120,134.795,2.9202378705263357,98.07976212947366
121,137.722,2.9030162157848025,98.0969837842152
122,140.648,1.8857622767992837,98.11423772320072
123,143.572,1.868476554362445,98.13152344563755
124,146.496,2.851159547208667,98.14884045279133
125,149.418,2.8338117520173824,98.16618824798262
126,152.339,0.0,98.18356633658355
127,155.259,0.7990257739854343,98.20097422601457
128,158.178,0.7815885742589472,98.21841142574105
129,161.096,1.764122552729944,98.23587744727006
130,164.012,0.7466281958530772,98.25337180414692
131,166.928,1.729105988048019,98.27089401195198
132,169.842,1.711556411702773,98.28844358829723
133,172.755,0.6939799471769987,98.306020052823
134,175.667,1.676377072805323,98.32362292719468
135,178.578,3.6587482649007086,98.34125173509929
136,181.488,1.6410939977577357,98.35890600224226
137,184.397,1.6234147436559283,98.37658525634407
138,187.304,0.6057109728630934,98.3942890271369
139,190.211,0.5879831536386462,98.41201684636135
140,193.116,0.5702317522369071,98.42976824776309
141,196.020,2.552457232910456,98.44754276708954
142,198.923,2.534660057913456,98.46533994208654
143,201.825,2.5168406875049527,98.48315931249505
144,204.726,1.498999579952212,98.50100042004779
145,207.625,1.4811371915340317,98.51886280846597
146,210.524,2.4632539765440953,98.5367460234559
147,213.421,2.445350387294269,98.55464961270573
148,216.318,2.427426874117927,98.57257312588207
149,219.213,3.4094838853732767,98.59051611462672
150,222.107,0.3915218674467269,98.60847813255327
151,225.000,0.37354126475609917,98.6264587352439
152,227.891,2.3555425197540814,98.64445748024592
153,230.782,2.3375260729314675,98.66247392706853
154,233.672,2.319492362820526,98.68050763717947
155,236.560,1.301441825998296,98.6985581740017
156,239.447,2.2833748970898853,98.71662510291011
157,242.333,3.265292008771894,98.7347079912281
158,245.218,0.24719359177562694,98.75280640822437
159,248.102,2.2290800748904616,98.77091992510954
160,250.985,2.2109518849672014,98.7890481150328
161,253.867,2.192809446921345,98.80719055307866
162,256.748,0.1746531837364529,98.82534681626355
163,259.627,1.1564835164674463,98.84351648353255
164,262.505,3.1383008642439307,98.86169913575607
165,265.383,2.1201056442735364,98.87989435572646
166,268.259,2.1018982718452435,98.89810172815476
167,271.134,1.0836791603326787,98.91632083966732
168,274.008,1.0654487211974555,98.93455127880254
169,276.880,1.0472073639925128,98.95279263600749
170,279.752,0.028955496365412614,98.97104450363459
171,282.623,0.0,98.98930647593832
172,285.492,2.9924218509281246,99.00757814907188
173,288.360,3.974140878916131,99.02585912108387
174,291.228,0.9558510080850624,99.04414899191494
175,294.094,1.9375526366055027,99.0624473633945
176,296.959,0.9192461607626115,99.08075383923739
177,299.823,0.9009319749594624,99.09906802504054
178,302.685,3.8826104717203407,99.11738952827966
179,305.547,2.8642820416940964,99.1357179583059
180,308.408,0.8459470736574133,99.15405292634259
181,311.267,1.8276059545182193,99.17239404548178
182,314.126,1.8092590693189265,99.19074093068107
183,316.983,1.7909068012397995,99.2090931987602
184,319.839,0.0,99.22745046839775
185,322.694,0.754187639872228,99.24581236012777
186,325.548,0.7358215036634448,99.26417849633656
187,328.401,0.7174514987407576,99.28254850125924
188,331.253,4.699077999023515,99.30092200097648
189,334.103,3.6807013765888286,99.31929862341117
190,336.953,0.0,99.3376779983251
191,339.801,1.6439402426843799,99.35605975731562
192,342.649,2.625556466187689,99.37444353381231
193,345.495,2.607171036926289,99.39282896307371
194,348.340,0.0,99.41121568218391
195,351.184,1.5703966699506964,99.4296033300493
196,354.027,2.552008452604767,99.44799154739523
197,356.869,2.533620023237333,99.46637997676267
198,359.709,1.515231737495128,99.48476826250487
199,362.549,0.4968439492159007,99.5031560507841
200,365.388,3.478457010431754,99.52154298956825
201,368.225,0.46007127137244197,99.53992872862756
202,371.061,0.0,99.55831291953126
203,373.897,1.4233047843556932,99.5766952156443
204,376.731,0.4049247278760362,99.59507527212396
205,379.564,0.3865472540834105,99.61345274591659
206,382.396,3.368172704245808,99.63182729575419
207,385.227,3.3498014178487807,99.65019858215122
208,388.057,0.3314337325988248,99.66856626740118
209,390.885,3.313069984426704,99.6869300155733
210,393.713,2.2947105074907626,99.70528949250924
211,396.539,1.2763556341802342,99.72364436581977
212,399.365,0.0,99.74199430488139
213,402.189,2.2396610191669026,99.7603389808331
214,405.012,2.2213219334270207,99.77867806657298
215,407.835,0.20298876324504533,99.79701123675495
216,410.656,1.1846618322146156,99.81533816778538
217,413.476,2.166341462180185,99.83365853781982
218,416.295,1.1480279732404028,99.8519720267596
219,419.112,2.129721683751413,99.87027831624859
220,421.929,0.11142291033013407,99.88857708966987
221,424.745,3.093131967857687,99.90686803214231
222,427.559,1.0748491694826185,99.92515083051738
223,430.373,2.0565748266242707,99.94342517337573
224,433.185,1.0383092489761054,99.9616907510239
225,435.996,0.020052744509015952,99.97994725549098
226,438.807,0.001805619474652076,99.99819438052535
227,441.616,0.9835681784087456,100.01643182159125
228,444.424,0.0,100.03465927586556
229,447.231,1.9471235577656074,100.05287644223439
230,450.037,0.928916978710177,100.07108302128982
231,452.842,0.9107212846734711,100.08927871532653
232,455.645,1.8925367716614687,100.10746322833853
233,458.448,0.874363733984211,100.12563626601579
234,461.250,1.8562024642590984,100.1437975357409
235,464.050,1.8380532534141452,100.16194674658585
236,466.849,1.8199163906914322,100.18008360930857
237,469.648,1.8017921636503331,100.19820783634967
238,472.445,1.7836808581708254,100.21631914182917
239,475.241,0.0,100.23441724154307
240,478.036,1.7474981470398774,100.25250185296012
241,480.830,2.729427304781595,100.2705726952184
242,483.623,0.0,100.28862948912213
243,486.415,1.6933280428618076,100.30667195713819
244,489.206,2.675300176607081,100.32469982339292
245,491.996,1.65728718633126,100.34271281366874
246,494.784,1.6392893445991632,100.36071065540084
247,497.572,3.6213069223261556,100.37869307767384
248,500.358,6.6033401887814875,100.39665981121851
249,503.144,9.58538941159162,100.41461058840838
250,505.928,19.567454856743538,100.43254514325646
251,508.712,22.549536788588057,100.45046321141194
252,511.494,18.53163546984318,100.46836453015682
253,514.275,9.51375116159744,100.48624883840256
254,517.055,3.4958841233131466,100.50411587668685
255,519.834,1.4780346128297737,100.52196538717023
256,522.612,0.46020288636727,100.53979711363273
257,525.389,1.4423891985293693,100.55761080147063
258,528.165,1.42459380230693,100.57540619769307
259,530.940,2.4068169490812323,100.59318305091877
260,533.713,2.3890588886273463,100.61094111137265
261,536.486,0.3713198691174142,100.62868013088259
262,539.257,2.3536001371239905,100.64639986287601
263,542.028,0.3358999376233811,100.66410006237662
264,544.797,2.318219513998912,100.68178048600109
265,547.566,0.3005591080443395,100.69944089195566
266,550.333,0.28291895996710537,100.7170810400329
267,553.099,0.26529930839166127,100.73470069160834
268,555.864,1.2477003903628372,100.75229960963716
269,558.629,1.2301224413491383,100.76987755865086
270,561.392,0.21256569524607016,100.78743430475393
271,564.154,1.19503038437945,100.80496961562055
272,566.915,2.1775167395087465,100.82248326049125
273,569.674,0.0,100.83997501016957
274,572.433,0.14255536298121285,100.85744463701879
275,575.191,0.1251080850414752,100.87489191495852
276,577.948,2.1076833805385036,100.8923166194615
277,580.703,0.09028147244988816,100.90971852755011
278,583.458,1.0729025822067797,100.92709741779322
279,586.211,0.0,100.94445307030276
280,588.964,0.03821473326961211,100.96178526673039
281,591.715,2.0209062097357275,100.97909379026427
282,594.466,2.003621574374378,100.99637842562562
283,597.215,0.9863610409345114,101.01363895906549
284,599.963,2.969124821638644,101.03087517836136
285,602.710,0.9519131271861028,101.0480868728139
286,605.457,0.0,101.06527383324357
287,608.202,0.917564148012687,101.08243585198731
288,610.946,0.0,101.09957272289529
289,613.689,1.8833157586725235,101.11668424132748
290,616.431,0.8662297958496055,101.1337702041504
291,619.172,0.849169590266257,101.15083040973374
292,621.911,0.8321353420528794,101.16786465794712
293,624.650,2.8151272498433286,101.18487275015667
294,627.388,0.7981455107782125,101.20185448922179
295,630.125,1.7811903205082587,101.21880967949174
296,632.860,1.7642618731975972,101.2357381268024
297,635.595,1.747360361527086,101.25263963847291
298,638.328,1.730485976697679,101.26951402330232
299,641.061,0.0,101.28636109156632
300,643.792,0.6968193449861246,101.30318065501388
301,646.523,0.6800274731360787,101.31997252686392
302,649.252,0.663263478197976,101.33673652180202
303,651.980,0.0,101.3534724559771
304,654.708,0.6298198530019761,101.37018014699802
305,657.434,2.6131405860696617,101.38685941393034
306,660.159,0.0,101.40351007729298
307,662.883,0.5798680409451435,101.42013195905486
308,665.606,1.5632751173683914,101.43672488263161
309,668.328,0.5467113271177482,101.45328867288225
310,671.049,0.0,101.46982315610582
311,673.769,0.5136718399618871,101.48632816003811
312,676.488,1.4971964861516653,101.50280351384833
313,679.206,0.0,101.51924904813573
314,681.923,1.4643354050736264,101.53566459492637
315,684.639,0.0,101.55204998766969
316,687.354,0.431594938764718,101.56840506123528
317,690.067,0.4152703480905018,101.5847296519095
318,692.780,0.0,101.60102359739217
319,695.492,1.3827132632067247,101.61728673679328
320,698.202,0.36648108937042423,101.63351891062958
321,700.912,1.3502800391786423,101.64971996082136
322,703.621,0.33411026931094057,101.66588973068906
323,706.328,0.31797193505002497,101.68202806494998
324,709.035,0.30186519028509906,101.6981348097149
325,711.740,2.2857901875151327,101.71420981248487
326,714.444,1.2697470778522728,101.73025292214773
327,717.148,0.2537360110250688,101.74626398897493
328,719.850,1.2377571353818837,101.76224286461812
329,722.552,1.221810597894148,101.77818940210585
330,725.252,0.0,101.79410345584029
331,727.951,0.19001511840620822,101.80998488159379
332,730.649,1.1741664634942737,101.82583353650573
333,733.347,0.15835072092100688,101.841649279079
334,736.043,2.1425680308231705,101.85743196917683
335,738.738,0.12681853198058946,101.87318146801941
336,741.432,0.11110236181944799,101.88889763818055
337,744.125,0.0954196564156149,101.90458034358439
338,746.817,1.0797705504979689,101.92022944950203
339,749.508,1.064155177451724,101.93584482254828
340,752.198,2.0485736693217547,101.95142633067825
341,754.887,1.0330261568159074,101.96697384318409
342,757.575,1.0175127693083397,101.98248723069166
343,760.262,1.0020336348428458,101.99796636515715
344,762.948,0.9865888801361535,102.01341111986385
345,765.633,1.971178630581278,102.02882136941872
346,768.317,0.0,102.04419698974917
347,770.999,0.0,102.05953785809965
348,773.681,1.9251561469716165,102.07484385302838
349,776.362,1.9098851455959789,102.09011485440402
350,779.042,1.8946492565977024,102.1053507434023
351,781.720,0.8794485974972304,102.12055140250277
352,784.398,1.8642832845145847,102.13571671548542
353,787.075,0.8491534325726207,102.15084656742738
354,789.751,0.8340591553004231,102.16594084469958
355,792.425,1.8190005650365464,102.18099943496345
356,795.099,0.8039777728324111,102.19602222716759
357,797.771,0.0,102.21100911154443
358,800.443,0.0,102.22595997960691
359,803.114,0.0,102.24087472414517
360,805.783,0.7442467607767611,102.25575323922324
361,808.452,1.7294045798243474,102.27059542017565
362,811.119,1.7145988363958224,102.28540116360418
363,813.786,0.0,102.30017036737452
364,816.451,0.6850970693870835,102.31490293061292
365,819.116,3.6704012462971463,102.32959875370285
366,821.779,2.655742261718217,102.34425773828178
367,824.442,1.6411202127622886,102.35887978723771
368,827.103,0.0,102.37346480470597
369,829.763,1.6119873039341854,102.38801269606581
370,832.423,0.5974766320628362,102.40252336793716
371,835.081,0.583003271822804,102.4169967281772
372,837.739,0.0,102.43143268587713
373,840.395,3.554168848641183,102.44583115135882
374,843.050,1.539807963828565,102.46019203617143
375,845.705,2.5254847469117863,102.47451525308821
376,848.358,1.511199283896957,102.48880071610304
377,851.010,3.496951659572815,102.50304834042718
378,853.662,1.482741957514051,102.51725804248595
379,856.312,0.46857026008463265,102.53142973991537
380,858.961,1.4544366484411455,102.54556335155885
381,861.610,1.4403412025360751,102.55965879746392
382,864.257,0.42628400112120346,102.5737159988788
383,866.903,1.4122651217508349,102.58773487824917
384,869.549,0.39828464078522074,102.60171535921478
385,872.193,1.3843426333937856,102.61565736660621
386,874.836,2.370439173558566,102.62956082644143
387,877.478,1.3565743340773935,102.6434256659226
388,880.120,0.3427481865673343,102.65725181343267
389,882.760,1.3289608014679857,102.67103919853201
390,885.399,0.3152122480447588,102.68478775195524
391,888.037,2.3015025943922325,102.69849740560777
392,890.675,3.2878319074374787,102.71216809256252
393,893.311,1.2742002529433876,102.72579974705661
394,895.946,3.2606076955119647,102.73939230448804
395,898.580,0.2470542985876989,102.7529457014123
396,901.214,0.23354012446085903,102.76645987553914
397,903.846,0.0,102.77993476572921
398,906.477,2.2066296880093006,102.7933703119907
399,909.107,2.1932335445239346,102.80676645547607
400,911.737,1.1798768615213362,102.82012313847866
401,914.365,2.166559695570527,102.83344030442947
402,916.992,0.0,102.84671789789375
403,919.618,0.1400441354323192,102.85995586456768
404,922.244,0.126845848724912,102.87315415127509
405,924.868,3.1136872940358984,102.8863127059641
406,927.491,1.1005685222961716,102.89943147770383
407,930.113,2.0874895833189413,102.91251041668106
408,932.735,2.0744505258031296,102.92554947419687
409,935.355,3.0614513973366257,102.93854860266337
410,937.974,3.0484922443996396,102.95150775560036
411,940.592,2.0355731123679845,102.96442688763202
412,943.210,0.022694045516487904,102.97730595448351
413,945.826,0.009855087022245357,102.99014491297775
414,948.441,1.997056278967932,103.00294372103207
415,951.056,2.984297662345199,103.0157023376548
416,953.669,0.971579277057927,103.02842072294207
417,956.281,2.958901161925567,103.04109883807443
418,958.893,1.9462633546864936,103.0537366453135
419,961.503,0.0,103.06633410799868
420,964.112,0.9211088094561717,103.07889119054383
421,966.721,1.9085921415660891,103.09140785843391
422,969.328,1.8961159217782892,103.10388407822171
423,971.935,2.8836801824755014,103.1163198175245
424,974.540,0.8712849549793162,103.12871504502068
425,977.144,1.8589302695534826,103.14106973044652
426,979.748,0.8466161554072755,103.15338384459272
427,982.350,2.834342640698736,103.16565735930126
428,984.952,1.8221097525380827,103.17789024746192
429,987.552,2.8099175169909643,103.19008248300904
430,990.152,2.7977659590818718,103.20223404091813
431,992.750,0.7856551027973353,103.21434489720266
432,995.348,2.7735849710893774,103.22641502891062
433,997.944,0.7615555858787673,103.23844441412123
434,1000.540,2.749566968058332,103.25043303194167
435,1003.134,3.737619137496324,103.26238086250368
436,1005.728,0.7257121130397195,103.27428788696028
437,1008.321,1.7138459125175416,103.28615408748246
438,1010.912,0.0,103.29797944725577
439,1013.503,1.6902360495228663,103.30976395047713
440,1016.092,1.6784924176485703,103.32150758235143
441,1018.681,0.6667896709118537,103.33321032908815
442,1021.269,0.6551278221018606,103.34487217789814
443,1023.856,1.6435068830097208,103.35649311699028
444,1026.441,1.631926864431918,103.36807313556808
445,1029.026,2.620387776173544,103.37961222382646
446,1031.610,1.6088896270516813,103.39111037294832
447,1034.193,1.5974324248986989,103.4025675751013
448,1036.775,2.5860161765655647,103.41398382343444
449,1039.355,2.5746408879251987,103.4253591120748
450,1041.935,0.5633065638757841,103.43669343612422
451,1044.514,0.5520132083440501,103.44798679165595
452,1047.092,1.5407608242886965,103.4592391757113
453,1049.669,2.529549413703606,103.4704505862964
454,1052.245,0.5183789776212393,103.48162102237876
455,1054.820,0.5072495161159196,103.49275048388408
456,1057.394,1.496161028307199,103.5038389716928
457,1059.967,2.485113512363128,103.51488648763687
458,1062.539,1.4741069655036227,103.52589303449638
459,1065.110,2.4631413840037766,103.53685861599622
460,1067.681,0.4522167631971712,103.54778323680283
461,1070.250,1.4413330974792018,103.5586669025208
462,1072.818,2.430490380310431,103.56950961968957
463,1075.385,2.4196886042198713,103.58031139578013
464,1077.951,1.408927760808325,103.59107223919167
465,1080.517,1.3982078407517236,103.60179215924828
466,1083.081,1.3875288338044527,103.61247116619555
467,1085.644,2.376890728802607,103.6231092711974
468,1088.207,0.36629351366742924,103.63370648633257
469,1090.768,3.355737175408521,103.64426282459148
470,1093.329,2.3452217001272686,103.65477829987273
471,1095.888,0.33474707302006834,103.66525292697993
472,1098.447,0.3243132783817231,103.67568672161828
473,1101.004,0.0,103.68607970039125
474,1103.561,2.303568119202666,103.69643188079733
475,1106.116,3.293256718773364,103.70674328122664
476,1108.671,3.2829860790424163,103.71701392095758
477,1111.225,2.272756179846354,103.72724382015365
478,1113.777,1.2625670001400948,103.7374329998599
479,1116.329,0.0,103.74758148199986
480,1118.880,3.2423107106280185,103.75768928937198
481,1121.430,0.2322435543535022,103.7677564456465
482,1123.979,2.2222170246380273,103.77778297536197
483,1126.527,0.0,103.78776890392206
484,1129.074,2.2022857424078666,103.79771425759213
485,1131.620,1.1923809365040086,103.80761906349599
486,1134.165,0.1825166503874982,103.8174833496125
487,1136.709,2.1726928552276945,103.8273071447723
488,1139.252,0.0,103.83709047865449
489,1141.794,0.15316661821675837,103.84683338178324
490,1144.335,1.1434641144754494,103.85653588552455
491,1146.875,0.13380197791711623,103.86619802208288
492,1149.415,0.1241801755021612,103.87581982449784
493,1151.953,2.1145986733591684,103.88540132664083
494,1154.490,2.1050574367882007,103.8949425632118
495,1157.027,0.0,103.90444356973583
496,1159.562,3.0860956174401224,103.91390438255988
497,1162.097,1.0766749611506015,103.9233250388494
498,1164.630,3.067294423414907,103.9327055765851
499,1167.163,3.0579539654404897,103.94204603455951
500,1169.695,0.04865354762623042,103.95134645237377
501,1172.225,1.0393931295658092,103.96060687043419
502,1174.755,2.030172670050945,103.96982732994906
503,1177.284,0.020992127074791256,103.97900787292521
504,1179.812,2.0118514578352773,103.98814854216472
505,1182.338,1.0027506187383608,103.99724938126164
506,1184.864,1.9936895654013682,104.00631043459863
507,1187.389,2.984668252656377,104.01533174734362
508,1189.913,1.9756866345534547,104.02431336544655
509,1192.436,1.9667446643640858,104.03325533563591
510,1194.959,2.957842294584367,104.04215770541563
511,1197.480,1.9489794769384474,104.05102052306155
512,1200.000,2.9401561623817827,104.05984383761822
513,1202.519,2.9313723011044885,104.06862769889551
514,1205.038,2.922627842534652,104.07737215746535
515,1207.555,2.9139227353416715,104.08607726465833
516,1210.071,0.0,104.09474307256046
517,1212.587,0.0,104.10336963400978
518,1215.101,1.8880429974069415,104.11195700259306
519,1217.615,0.879494767357528,104.12050523264247
520,1220.128,2.870985620767698,104.1290143792323
521,1222.639,1.8625155018244612,104.13748449817554
522,1225.150,0.8540843539793457,104.14591564602065
523,1227.660,0.8456921199517637,104.15430788004824
524,1230.169,2.8373387417323954,104.1626612582676
525,1232.677,2.8290241605863997,104.1709758394136
526,1235.184,2.8207483170568253,104.17925168294317
527,1237.690,0.8125111509678788,104.18748884903212
528,1240.195,2.8043126014283075,104.19568739857169
529,1242.699,0.7961526068346529,104.20384739316535
530,1245.202,2.788031104874648,104.21196889512535
531,1247.704,0.7799480325304557,104.22005196746954
532,1250.206,1.7719033260820964,104.2280966739179
533,1252.706,1.7638969211106854,104.23610307888931
534,1255.206,0.7559287525017737,104.24407124749823
535,1257.704,0.0,104.25200124555131
536,1260.202,1.74010686045591,104.25989313954409
537,1262.698,0.0,104.26774699665775
538,1265.194,1.7244371152443136,104.27556288475569
539,1267.689,0.7166591276197778,104.28334087238022
540,1270.183,2.7089189712506965,104.2910810287493
541,1272.676,2.7012165762468356,104.29878342375316
542,1275.168,0.6935518720489995,104.306448127951
543,1277.659,1.68592478743237,104.31407521256763
544,1280.149,3.6783352505097753,104.32166474949022
545,1282.638,0.6707831887351148,104.32921681126489
546,1285.126,0.0,104.33673147109344
547,1287.613,0.0,104.34420880283004
548,1290.100,0.6483511190221662,104.35164888097783
549,1292.585,2.6409482193142964,104.3590517806857
550,1295.070,1.6335824222551452,104.36641757774485
551,1297.553,0.0,104.3737463485856
552,1300.036,0.6189618297260466,104.38103817027395
553,1302.517,4.611706879491706,104.3882931205083
554,1304.998,3.6044887223838487,104.39551127761615
555,1307.478,0.0,104.40269272055075
556,1309.957,2.590162471112251,104.40983752888775
557,1312.435,3.583054217178045,104.41694578282195
558,1314.912,3.575982436836071,104.42401756316393
559,1317.388,0.0,104.4310529513367
560,1319.863,2.5619479706275996,104.4380520293724
561,1322.337,2.5549851200909615,104.44501487990904
562,1324.811,0.0,104.45194158618706
563,1327.283,1.5411677679539082,104.45883223204609
564,1329.755,3.5343130980783997,104.4656869019216
565,1332.225,3.5274943191584214,104.47250568084158
566,1334.695,1.5207113455768138,104.47928865442319
567,1337.163,3.5139640911305037,104.4860359088695
568,1339.631,4.507252469033901,104.4927475309661
569,1342.098,2.5005763919221806,104.49942360807782
570,1344.564,1.4939357718546518,104.50606422814535
571,1347.029,3.4873305203179825,104.51266947968202
572,1349.493,0.0,104.51923945177035
573,1351.956,3.4742257659411706,104.52577423405883
574,1354.418,0.46772608324147313,104.53227391675853
575,1356.880,1.4612614093601906,104.53873859063981
576,1359.340,2.454831652970995,104.545168347029
577,1361.800,2.4484367221949555,104.55156327780504
578,1364.258,0.44207652460380586,104.5579234753962
579,1366.716,0.4357509672232851,104.56424903277671
580,1369.172,2.4294599565364905,104.57054004346351
581,1371.628,1.423203398487189,104.57679660151281
582,1374.083,1.4169811984830858,104.58301880151691
583,1376.537,2.410793261399249,104.58920673860075
584,1378.990,3.404639491581335,104.59536050841866
585,1381.442,0.39851979284898675,104.60148020715101
586,1383.893,0.3924340684991279,104.60756593150087
587,1386.344,2.3863822213092476,104.61361777869075
588,1388.793,2.3803641535407962,104.6196358464592
589,1391.241,1.374379766942468,104.62562023305753
590,1393.689,0.36842896275352643,104.63157103724647
591,1396.135,2.3625116417071297,104.63748835829287
592,1398.581,0.0,104.64337229596633
593,1401.026,1.3507770494640567,104.64922295053594
594,1403.470,1.3449595772331122,104.65504042276689
595,1405.913,0.3391751860828123,104.66082481391719
596,1408.355,0.0,104.66657622573433
597,1410.796,2.327705239548038,104.67229476045196
598,1413.236,2.3220194792133952,104.6779805207866
599,1415.675,3.3163663900657667,104.68363360993423
600,1418.114,2.310745868432946,104.68925413156705
601,1420.551,2.3051578101698738,104.69484218983013
602,1422.988,0.29960211066196507,104.70039788933803
603,1425.423,0.0,104.70592133517162
604,1427.858,2.288587367125402,104.7114126328746
605,1430.292,1.2831281115497575,104.71687188845024
606,1432.725,2.2777007916419336,104.72229920835807
607,1435.157,2.2723053004894354,104.72769469951056
608,1437.588,1.2669415307302216,104.73305846926978
609,1440.018,2.2616093745559738,104.73839062544403
610,1442.447,0.25630872371539226,104.74369127628461
611,1444.876,1.2510394695175648,104.74896053048244
612,1447.303,1.2458015028352918,104.75419849716471
613,1449.730,6.24059471410834,104.75940528589166
614,1452.156,0.23541899334685468,104.76458100665315
615,1454.580,2.2302742301346683,104.76972576986533
616,1457.004,1.225160313632557,104.77483968636744
617,1459.427,3.220077132581622,104.77992286741838
618,1461.849,0.21502457530664287,104.78497542469336
619,1464.270,2.21000252971929,104.78999747028071
620,1466.690,1.2050108833215631,104.79498911667844
621,1469.110,1.2000495232090742,104.79995047679093
622,1471.528,3.19511833607433,104.80488166392567
623,1473.946,1.1902172082101288,104.80978279178987
624,1476.362,2.1853460255128425,104.81465397448716
625,1478.778,2.1805046734857143,104.81949532651429
626,1481.193,2.1756930372422403,104.82430696275776
627,1483.607,0.1709110015094666,104.82908899849053
628,1486.020,0.16615845063131474,104.83384154936869
629,1488.432,2.1614352685718785,104.83856473142812
630,1490.843,2.156741338918806,104.8432586610812
631,1493.253,1.1520765448865546,104.84792345511345
632,1495.663,1.1474407693197861,104.85255923068021
633,1498.071,1.142833894696622,104.85716610530338
634,1500.479,0.0,104.86174419686797
635,1502.886,2.1337063763810704,104.86629362361893
636,1505.292,2.1291854958423215,104.87081450415768
637,1507.697,1.1246930425611197,104.87530695743888
638,1510.101,3.1202288972329058,104.8797711027671
639,1512.504,0.0,104.88420705979343
640,1514.906,2.11138505148773,104.88861494851227
641,1517.307,1.1070051107421506,104.89299488925785
642,1519.708,3.102652997298918,104.89734700270108
643,1522.107,3.0983285901538835,104.90167140984612
644,1524.506,1.0940317679729787,104.90596823202702
645,1526.904,2.089762409095485,104.91023759090452
646,1529.301,2.085520391537358,104.91447960846264
647,1531.697,0.08130559299462448,104.91869440700538
648,1534.092,2.0771178908466226,104.92288210915338
649,1536.486,1.0729571621593692,104.92704283784063
650,1538.879,3.068823283688886,104.93117671631111
651,1541.272,2.0647161318845093,104.93528386811549
652,1543.663,1.0606355828922034,104.9393644171078
653,1546.054,3.056581512557912,104.94341848744209
654,1548.444,2.052553796430857,104.94744620356914
655,1550.832,2.0485523097668903,104.95144769023311
656,1553.220,2.0445769275317787,104.95542307246822
657,1555.607,2.040627524404556,104.95937247559544
658,1557.994,0.03670397478083487,104.96329602521917
659,1560.379,2.0328061527761605,104.96719384722384
660,1562.763,0.02893393222926477,104.97106606777074
661,1565.147,2.025087186705477,104.97491281329452
662,1567.529,0.021265789499977927,104.97873421050002
663,1569.911,1.017469613641154,104.98253038635885
664,1572.292,1.0136985318939224,104.98630146810608
665,1574.672,2.0099524167630562,104.99004758323694
666,1577.051,3.0062311404964817,104.99376885950352
667,1579.429,3.0025345750886316,104.99746542491137
668,1581.807,0.9988625922837713,105.00113740771623
669,1584.183,1.9952150635792805,105.00478493642072
670,1586.559,1.9915918602290361,105.00840813977096
671,1588.933,1.9879928532466806,105.01200714675332
672,1591.307,1.984417913409004,105.015582086591
673,1593.680,0.9808669112591986,105.0191330887408
674,1596.052,1.977339717110226,105.02266028288977
675,1598.423,1.973836201048158,105.02616379895184
676,1600.794,0.9703562329354725,105.02964376706453
677,1603.163,0.0,105.03310031758568
678,1605.531,0.0,105.03653358109
679,1607.899,1.9600563116341334,105.03994368836587
680,1610.266,0.9566692295880586,105.04333077041194
681,1612.632,0.9533050415661393,105.04669495843386
682,1614.997,1.9499636161590956,105.0500363838409
683,1617.361,0.9466448217573173,105.05335517824268
684,1619.724,1.943348526554189,105.05665147344581
685,1622.086,1.9400745985494439,105.05992540145056
686,1624.448,0.0,105.06317709444758
687,1626.808,0.0,105.06640668481454
688,1629.168,0.9303856948871783,105.06961430511282
689,1631.527,2.927199911915835,105.07280008808416
690,1633.885,3.924035833352576,105.07596416664742
691,1636.242,0.92089332610486,105.07910667389514
692,1638.598,0.9177722569097426,105.08222774309026
693,1640.954,0.0,105.08532750766287
694,1643.308,1.9115938987932282,105.08840610120677
695,1645.662,0.0,105.09146365747624
696,1648.014,1.9054996896173577,105.09450031038264
697,1650.366,0.9024838060088314,105.09751619399117
698,1652.717,2.899488557482556,105.10051144251744
699,1655.067,1.8965138096757528,105.10348619032425
700,1657.417,0.0,105.10644057191823
701,1659.765,0.890625278053534,105.10937472194647
702,1662.112,1.887711224806722,105.11228877519328
703,1664.459,0.8848171334232404,105.11518286657676
704,1666.805,0.0,105.11805713114562
705,1669.150,3.879088295924305,105.1209117040757
706,1671.494,1.8762532793332412,105.12374672066676
707,1673.837,0.8734376836608817,105.12656231633912
708,1676.179,0.8706413733696934,105.1293586266303
709,1678.520,1.8678642128082288,105.13213578719177
710,1680.861,1.8651060662144232,105.13489393378558
711,1683.201,1.8623667977190053,105.137633202281
712,1685.539,0.0,105.14035372865126
713,1687.877,1.8569443510297532,105.14305564897025
714,1690.214,2.8542609005909014,105.1457390994091
715,1692.551,1.8515957837670811,105.14840421623292
716,1694.886,0.0,105.15105113579746
717,1697.220,1.8463200054541886,105.15367999454581
718,1699.554,2.8437090709949473,105.15629092900505
719,1701.887,5.8411159242170925,105.15888407578291
720,1704.219,2.8385404284354934,105.1614595715645
721,1706.550,0.8359824468910801,105.16401755310892
722,1708.880,2.8334418427539703,105.16655815724603
723,1711.209,0.0,105.16908152087301
724,1713.537,2.8284122190489,105.1715877809511
725,1715.865,0.0,105.17407707450234
726,1718.192,1.8234504613939322,105.17654953860607
727,1720.518,0.8209946896041913,105.17900531039581
728,1722.843,2.81855547294424,105.18144452705576
729,1725.167,4.816132674182356,105.18386732581764
730,1727.490,1.813726156042776,105.18627384395722
731,1729.812,3.811335781208925,105.18866421879108
732,1732.134,2.8089614123267523,105.19103858767325
733,1734.455,1.8066029120080884,105.19339708799191
734,1736.774,2.804260142833897,105.1957398571661
735,1739.093,2.8019329673577147,105.19806703264229
736,1741.411,0.7996212481088492,105.20037875189115
737,1743.729,2.797324847595803,105.2026751524042
738,1746.045,0.0,105.20495637169047
739,1748.361,0.7927774527267815,105.20722254727322
740,1750.675,0.0,105.20947381668654
741,1752.989,1.7882896825278891,105.21171031747211
742,1755.302,0.0,105.21393218717583
743,1757.614,0.783860436655516,105.21613956334448
744,1759.925,0.0,105.21833258352247
745,1762.236,0.0,105.2205113852484
746,1764.545,3.7773238939481075,105.22267610605189
747,1766.854,1.775173116549908,105.22482688345009
748,1769.162,3.7730361450555137,105.22696385494449
749,1771.469,0.0,105.2290871580175
750,1773.775,0.7688030698707706,105.23119693012923
751,1776.080,0.7667066912859468,105.23329330871405
752,1778.385,1.7646235688226568,105.23537643117734
753,1780.688,0.7625535651078508,105.23744643489215
754,1782.991,1.7604965428041197,105.23950345719588
755,1785.293,1.7584523646130634,105.24154763538694
756,1787.594,1.7564208932785732,105.24357910672143
757,1789.894,4.754401991590143,105.24559800840986
758,1792.193,0.7523955223862373,105.24760447761376
759,1794.492,2.7504013485576166,105.24959865144238
760,1796.789,1.7484193330505917,105.25158066694941
761,1799.086,2.746449338870434,105.25355066112957
762,1801.382,0.7444912290846162,105.25550877091538
763,1803.677,0.0,105.25745513317376
764,1805.971,1.740610115297244,105.25938988470276
765,1808.265,2.7386868377718088,105.26131316222819
766,1810.557,2.736774897599659,105.26322510240034
767,1812.849,1.734874158209351,105.26512584179065
768,1815.140,1.7329844831116787,105.26701551688832
769,1817.430,0.7311057359028865,105.26889426409711
770,1819.719,1.7292377802680932,105.2707622197319
771,1822.007,0.0,105.27261952001543
772,1824.295,1.7255336989250623,105.27446630107494
773,1826.581,0.7236973010611223,105.27630269893888
774,1828.867,0.0,105.27812884953357
775,1831.152,1.7200551113201072,105.27994488867989
776,1833.436,0.7182490479100778,105.28175095208992
777,1835.719,1.7164528246363489,105.28354717536365
778,1838.002,0.714666306014351,105.28533369398565
779,1840.283,1.7128893566782466,105.28711064332175
780,1842.564,1.711121841384312,105.28887815861569
781,1844.844,2.709363625014177,105.29063637498582
782,1847.123,0.0,105.2923854274218
783,1849.401,0.7058745492187768,105.29412545078122
784,1851.678,2.704143420213697,105.2958565797863
785,1853.955,0.0,105.29757894902059
786,1856.231,0.0,105.29929269292563
787,1858.506,0.6990020542023956,105.3009979457976
788,1860.780,0.6973051582159684,105.30269484178403
789,1863.053,0.6956164851195012,105.3043835148805
790,1865.325,0.6939359010727912,105.30606409892721
791,1867.597,2.6922632723941717,105.30773672760583
792,1869.867,1.690598465564051,105.30940153443595
793,1872.137,1.6889413472279955,105.311058652772
794,1874.406,2.687291784200255,105.31270821579974
795,1876.674,3.6856496434669737,105.31435035653303
796,1878.941,0.0,105.31598520781046
797,1881.208,0.6823870977079451,105.31761290229205
798,1883.473,1.6807664275440146,105.31923357245599
799,1885.738,0.6791526494048838,105.32084735059512
800,1888.002,0.677545631186149,105.32245436881385
801,1890.265,2.6759452409753095,105.32405475902469
802,1892.528,0.0,105.32564865294492
803,1894.789,1.6727638179066417,105.32723618209336
804,1897.050,0.0,105.32881747778696
805,1899.310,3.669607328862483,105.33039267113752
806,1901.569,0.6680381069516841,105.33196189304832
807,1903.827,2.666474725789101,105.3335252742109
808,1906.084,0.0,105.33508294510159
809,1908.340,0.6633649640216674,105.33663503597833
810,1910.596,2.661818323122759,105.33818167687724
811,1912.851,1.6602770023906714,105.33972299760933
812,1915.105,1.658740872242788,105.34125912775721
813,1917.358,0.6572098033282714,105.34279019667173
814,1919.610,0.6556836665313597,105.34431633346864
815,1921.862,1.6541623329746642,105.34583766702534
816,1924.113,1.6526456740225655,105.34735432597743
817,1926.362,0.0,105.34886643871558
818,1928.611,0.6496258666180381,105.35037413338196
819,1930.860,3.6481224621328465,105.35187753786715
820,1933.107,3.646623220193362,105.35337677980664
821,1935.353,2.645128013422365,105.35487198657763
822,1937.599,0.0,105.35636328529564
823,1939.844,0.0,105.35785080281119
824,1942.088,0.0,105.3593346657065
825,1944.331,1.6391849997078793,105.36081500029212
826,1946.574,2.637708067396275,105.36229193260372
827,1948.815,2.636234411601393,105.3637655883986
828,1951.056,0.0,105.36523609315253
829,1953.296,2.633296427943719,105.36670357205628
830,1955.535,0.6318318499876057,105.3681681500124
831,1957.773,2.630370048368121,105.36962995163188
832,1960.011,0.0,105.37108910123077
833,1962.248,1.6274542771730864,105.37254572282691
834,1964.483,2.626000059863401,105.3739999401366
835,1966.718,1.624548123428724,105.37545187657128
836,1968.953,3.623098344765836,105.37690165523416
837,1971.186,0.0,105.37834939891695
838,1973.418,1.6202047699034665,105.37979523009653
839,1975.650,0.0,105.38123927093157
840,1977.881,3.6173183567406966,105.3826816432593
841,1980.111,2.6158775314079037,105.3841224685921
842,1982.340,0.0,105.38556186811422
843,1984.569,0.6130000373215267,105.38699996267847
844,1986.797,1.6115631271971438,105.38843687280286
845,1989.023,4.6101272813327085,105.38987271866729
846,1991.249,0.0,105.3913076201102
847,1993.474,2.607258303374678,105.39274169662532
848,1995.699,2.605824932641724,105.39417506735828
849,1997.922,2.604392148896693,105.3956078511033
850,2000.145,1.6029598337001119,105.39704016629989
851,2002.367,2.601527868970507,105.3984721310295
852,2004.588,4.600096136987801,105.3999038630122
853,2006.808,3.598664520396639,105.40133547960336
854,2009.028,0.0,105.40276709779035
855,2011.246,1.5958011658108404,105.40419883418916
856,2013.464,3.5943691949588583,105.40563080504114
857,2015.681,2.5929368737903786,105.40706312620962
858,2017.898,0.0,105.40849591317667
859,2020.113,0.0,105.40992928103965
860,2022.328,4.58863665549201,105.41136334450799
861,2024.541,0.0,105.41279821789982
862,2026.754,2.585765984861297,105.4142340151387
863,2028.966,2.5843291502498147,105.41567084975019
864,2031.178,1.5828911651413762,105.41710883485862
865,2033.388,0.5814519168162207,105.41854808318378
866,2035.598,2.58001129296251,105.41998870703749
867,2037.807,1.57856918167964,105.42143081832036
868,2040.015,3.577125471481523,105.42287452851848
869,2042.222,3.5756800513000115,105.42431994869999
870,2044.429,0.5742328104880698,105.42576718951193
871,2046.634,2.5727836388232674,105.42721636117673
872,2048.839,1.5713324265109918,105.42866757348901
873,2051.043,0.0,105.43012093581221
874,2053.247,1.5684234429247113,105.43157655707529
875,2055.449,1.5669654542306404,105.43303454576936
876,2057.651,3.5655049900555866,105.43449500994441
877,2059.851,3.5640419427940344,105.43595805720597
878,2062.052,3.562576205288238,105.43742379471176
879,2064.251,2.5611076708316034,105.4388923291684
880,2066.449,2.559636233171929,105.44036376682807
881,2068.647,2.558161786514816,105.44183821348518
882,2070.844,3.556684225526922,105.44331577447308
883,2073.040,1.5552034453393162,105.44479655466068
884,2075.235,0.553719341550817,105.44628065844918
885,2077.429,1.5522318102312767,105.44776818976872
886,2079.623,1.550740747924948,105.44925925207505
887,2081.815,2.5492460516537676,105.45075394834623
888,2084.007,2.5477476189207096,105.45225238107929
889,2086.199,1.5462453477130822,105.45375465228692
890,2088.389,0.5447391365058962,105.4552608634941
891,2090.579,4.543228884265133,105.45677111573487
892,2092.767,0.5417144904511133,105.45828550954889
893,2094.955,0.5401958550217785,105.45980414497822
894,2097.143,1.5386728784360884,105.46132712156391
895,2099.329,2.537145461657232,105.46285453834277
896,2101.514,2.5356135061560536,105.46438649384395
897,2103.699,1.5340769139143475,105.46592308608565
898,2105.883,0.5325355874281144,105.46746441257189
899,2108.066,1.530989429710985,105.46901057028902
900,2110.249,3.5294383442975175,105.47056165570248
901,2112.430,1.52788223524648,105.47211776475352
902,2114.611,0.5263210071441762,105.47367899285582
903,2116.791,0.5247545651078269,105.47524543489217
904,2118.970,2.5231828147888393,105.47681718521116
905,2121.149,1.5216056623761745,105.47839433762383
906,2123.326,0.5200230145996017,105.4799769854004
907,2125.503,2.518434778733109,105.48156522126689
908,2127.679,1.5168408625981584,105.48315913740184
909,2129.854,2.515241174567066,105.48475882543293
910,2132.029,0.5136356235662589,105.48636437643374
911,2134.202,2.5120241190796264,105.48797588092037
912,2136.375,0.5104065711519183,105.48959342884808
913,2138.547,0.0,105.49121710960809
914,2140.718,2.507152987975914,105.49284701202409
915,2142.889,2.505516775650946,105.49448322434905
916,2145.058,1.5038741657381252,105.49612583426187
917,2147.227,5.502225071135982,105.49777492886402
918,2149.395,1.5005694053237875,105.49943059467621
919,2151.563,1.4989070823649087,105.50109291763509
920,2153.729,4.497238016909989,105.50276198309001
921,2155.895,2.495562124200518,105.50443787579948
922,2158.060,2.493879320071926,105.50612067992807
923,2160.224,0.4921895209570124,105.50781047904299
924,2162.387,1.4904926438892687,105.50950735611073
925,2164.550,1.4887886065061764,105.51121139349382
926,2166.711,3.4870773270525888,105.51292267294741
927,2168.872,0.4853587243839286,105.51464127561607
928,2171.033,1.4836327179696411,105.51636728203036
929,2173.192,0.0,105.51810077210352
930,2175.351,2.480158174871775,105.51984182512822
931,2177.508,0.0,105.52159051977314
932,2179.665,2.47665306592026,105.52334693407974
933,2181.822,2.474888854541149,105.52511114545885
934,2183.977,2.473116769312611,105.52688323068739
935,2186.132,2.4713367340949617,105.52866326590504
936,2188.285,1.4695486733890704,105.53045132661093
937,2190.439,0.0,105.5322474876603
938,2192.591,0.46594817673879163,105.53405182326121
939,2194.742,0.0,105.53586440697111
940,2196.893,1.4623146883063356,105.53768531169366
941,2199.043,1.4604853903246777,105.53951460967532
942,2201.192,1.4586476274979816,105.54135237250202
943,2203.341,2.456801328904092,105.54319867109591
944,2205.488,2.454946424288053,105.54505357571195
945,2207.635,3.4530828440653494,105.54691715593465
946,2209.781,3.4512105193253007,105.5487894806747
947,2211.926,3.4493293818343176,105.55067061816568
948,2214.071,3.4474393640392975,105.5525606359607
949,2216.214,0.4455403990708504,105.55445960092915
950,2218.357,2.443632420746752,105.55636757925325
951,2220.499,0.441715363575085,105.55828463642491
952,2222.641,0.0,105.56021083724218
953,2224.781,3.437853754193867,105.56214624580613
954,2226.921,2.435909074482595,105.5640909255174
955,2229.060,1.4339550609270333,105.56604493907297
956,2231.198,1.4319916515373166,105.56800834846268
957,2233.336,1.4300187850338943,105.5699812149661
958,2235.472,3.4280364008508712,105.57196359914913
959,2237.608,3.4260444391394174,105.57395556086058
960,2239.743,2.424042840770994,105.575957159229
961,2241.878,2.422031547340737,105.57796845265926
962,2244.011,1.4200105011707649,105.57998949882924
963,2246.144,0.41797964531346565,105.58202035468653
964,2248.276,0.41593892355490425,105.5840610764451
965,2250.407,0.4138882804180213,105.58611171958198
966,2252.538,0.41182766116610026,105.5881723388339
967,2254.667,1.409757011805965,105.59024298819403
968,2256.796,1.4076762790914188,105.59232372090858
969,2258.924,2.40558541052647,105.59441458947353
970,2261.052,0.4034843543686719,105.59651564563133
971,2263.178,2.401373059632533,105.59862694036747
972,2265.304,1.3992514760927293,105.60074852390727
973,2267.429,1.3971195542874568,105.60288044571254
974,2269.553,1.3949772455218294,105.60502275447817
975,2271.677,0.39282450187111806,105.60717549812888
976,2273.800,1.3906612761841046,105.6093387238159
977,2275.921,3.3884875220863933,105.6115124779136
978,2278.043,2.386303193983764,105.61369680601624
979,2280.163,4.3841082470654555,105.61589175293454
980,2282.283,1.3819026373075474,105.61809736269245
981,2284.401,2.3796863214761714,105.62031367852383
982,2286.520,2.3774592571310365,105.62254074286896
983,2288.637,2.375221402628469,105.62477859737153
984,2290.753,0.0,105.62702728287495
985,2292.869,1.3707131605806495,105.62928683941935
986,2294.984,2.3684426937619634,105.63155730623804
987,2297.098,0.0,105.63383872175424
988,2299.212,2.363868876422117,105.63613112357788
989,2301.325,2.3615654514979383,105.63843454850206
990,2303.437,0.35925096750011676,105.64074903249988
991,2305.548,2.356925389278885,105.64307461072111
992,2307.658,2.3545886825112063,105.6454113174888
993,2309.768,1.3522408137040145,105.64775918629599
994,2311.877,3.349881750197639,105.65011824980236
995,2313.985,0.3475114601690166,105.65248853983098
996,2316.092,0.3451299126350733,105.65487008736493
997,2318.199,1.3427370774560643,105.65726292254394
998,2320.304,0.0,105.65966707466116
999,2322.409,0.0,105.66208257215976
1000,2324.514,2.335490557370335,105.66450944262967
1001,2326.617,3.333052287195869,105.66694771280413
1002,2328.720,4.330602591443437,105.66939740855656
1003,2330.822,0.0,105.67185855489707
1004,2332.923,2.3256688240307994,105.6743311759692
1005,2335.024,1.3231847049533627,105.67681529504664
1006,2337.123,3.320689065470205,105.6793109345298
1007,2339.222,2.3181818840573953,105.6818181159426
1008,2341.320,1.3156631400709244,105.68433685992908
1009,2343.418,1.3131328137499594,105.68686718625004
1010,2345.514,2.3105908862201687,105.68940911377983
1011,2347.610,1.3080373394970763,105.69196266050292
1012,2349.705,0.3054721564893299,105.69452784351067
1013,2351.800,0.30289532100206884,105.69710467899793
1014,2353.893,2.3003068177403065,105.6996931822597
1015,2355.986,3.2977066323121136,105.70229336768789
1016,2358.078,0.29509475123205675,105.70490524876794
1017,2360.170,0.2924711619244533,105.70752883807555
1018,2362.260,1.2898358527267533,105.71016414727325
1019,2364.350,3.2871888128927793,105.71281118710722
1020,2366.439,0.0,105.71546996740378
1021,2368.527,0.281859502933699,105.7181404970663
1022,2370.615,2.2791772159283283,105.72082278407167
1023,2372.702,1.2764831645329053,105.7235168354671
