raman_shift_cm-1,intensity
200.000000,5.907262
201.000000,-1.377519
202.000000,5.017342
203.000000,3.063823
204.000000,-4.17245
205.000000,-2.76634
206.000000,7.2972
207.000000,-0.359607
208.000000,-1.981938
209.000000,2.589547
210.000000,-11.562317
211.000000,0.68822
212.000000,-1.789942
213.000000,-3.758418
214.000000,-3.663993
215.000000,1.568105
216.000000,-8.445883
217.000000,-0.678051
218.000000,-14.257635
219.000000,2.207491
220.000000,-3.866058
221.000000,7.529078
222.000000,6.713296
223.000000,0.472231
224.000000,-10.467262
225.000000,3.380253
226.000000,-2.677382
227.000000,4.938558
228.000000,5.442777
229.000000,1.199187
230.000000,3.619445
231.000000,-5.074717
232.000000,6.89701
233.000000,1.951824
234.000000,-5.467965
235.000000,0.474733
236.000000,-8.426794
237.000000,-10.171384
238.000000,4.299866
239.000000,-4.052192
240.000000,-9.831029
241.000000,-5.452044
242.000000,10.377061
243.000000,-4.388769
244.000000,4.973317
245.000000,6.42021
246.000000,-5.427439
247.000000,-7.303366
248.000000,2.361386
249.000000,2.721775
250.000000,0.527901
251.000000,6.816203
252.000000,1.657783
253.000000,-1.621765
254.000000,4.754865
255.000000,-1.009503
256.000000,-9.059273
257.000000,-0.602296
258.000000,-5.34857
259.000000,5.4385
260.000000,-2.039559
261.000000,-2.954932
262.000000,-4.591693
263.000000,0.186567
264.000000,-2.443155
265.000000,5.350218
266.000000,7.03041
267.000000,11.696878
268.000000,-2.980911
269.000000,0.638192
270.000000,-9.060713
271.000000,2.121156
272.000000,4.830743
273.000000,8.908942
274.000000,-5.163362
275.000000,9.78723
276.000000,-2.232463
277.000000,4.864577
278.000000,3.409274
279.000000,-11.489005
280.000000,-4.265024
281.000000,-3.888099
282.000000,-5.895911
283.000000,-1.060116
284.000000,-0.383164
285.000000,-12.120048
286.000000,0.337186
287.000000,-1.504762
288.000000,-2.846522
289.000000,6.766847
290.000000,-4.114315
291.000000,5.904865
292.000000,17.765312
293.000000,-3.198341
294.000000,-7.769929
295.000000,-0.454636
296.000000,-1.688486
297.000000,-1.582632
298.000000,5.80839
299.000000,2.02889
300.000000,4.905256
301.000000,-0.917292
302.000000,3.982543
303.000000,6.676386
304.000000,5.645013
305.000000,1.304575
306.000000,4.402357
307.000000,1.798732
308.000000,-6.860718
309.000000,-3.493715
310.000000,3.346128
311.000000,-0.200028
312.000000,-7.462301
313.000000,2.260846
314.000000,-0.701767
315.000000,-5.007754
316.000000,7.280663
317.000000,-10.506019
318.000000,8.398412
319.000000,-0.193807
320.000000,-1.523999
321.000000,2.709285
322.000000,2.640477
323.000000,-3.159865
324.000000,-0.81185
325.000000,-0.137012
326.000000,5.927633
327.000000,-3.144256
328.000000,-1.895695
329.000000,-3.806668
330.000000,5.725633
331.000000,1.999631
332.000000,1.027187
333.000000,-11.025963
334.000000,1.970337
335.000000,1.013627
336.000000,0.547834
337.000000,1.083795
338.000000,-2.109158
339.000000,8.111886
340.000000,6.420378
341.000000,-1.295649
342.000000,-6.132002
343.000000,1.22197
344.000000,-3.503884
345.000000,-2.709865
346.000000,4.618101
347.000000,6.144416
348.000000,5.371903
349.000000,2.215689
350.000000,-1.098946
351.000000,8.158624
352.000000,5.605472
353.000000,7.26015
354.000000,-4.182041
355.000000,5.878188
356.000000,5.993559
357.000000,-9.784084
358.000000,-2.665973
359.000000,-3.943777
360.000000,-5.410351
361.000000,3.850226
362.000000,-0.331176
363.000000,5.678207
364.000000,-0.069222
365.000000,-1.194439
366.000000,-3.983885
367.000000,-6.694879
368.000000,4.187906
369.000000,-3.913664
370.000000,0.86411
371.000000,-0.342917
372.000000,10.945851
373.000000,8.901881
374.000000,-0.785375
375.000000,-9.063487
376.000000,1.051139
377.000000,-3.624161
378.000000,1.125749
379.000000,2.854281
380.000000,3.295825
381.000000,-1.553002
382.000000,-5.609925
383.000000,-0.322992
384.000000,1.618317
385.000000,3.273367
386.000000,3.799548
387.000000,3.104287
388.000000,-10.296213
389.000000,-2.037418
390.000000,-2.887482
391.000000,1.081489
392.000000,-3.478096
393.000000,-5.060262
394.000000,-4.279364
395.000000,1.738808
396.000000,-0.731703
397.000000,7.288571
398.000000,4.642003
399.000000,2.415603
400.000000,-5.100799
401.000000,3.258018
402.000000,-0.402532
403.000000,-14.46855
404.000000,-6.629004
405.000000,-1.686132
406.000000,-6.296709
407.000000,1.491272
408.000000,-1.56568
409.000000,-1.254354
410.000000,-0.391981
411.000000,-9.686838
412.000000,-2.937844
413.000000,-8.491859
414.000000,1.973783
415.000000,-3.503616
416.000000,9.79862
417.000000,3.690285
418.000000,5.499396
419.000000,3.578866
420.000000,1.696181
421.000000,-3.829879
422.000000,2.970447
423.000000,-7.360934
424.000000,-0.773237
425.000000,-7.443626
426.000000,-3.3086
427.000000,-4.499855
428.000000,0.679649
429.000000,1.278717
430.000000,2.983774
431.000000,-4.708171
432.000000,6.362624
433.000000,4.526721
434.000000,-11.460677
435.000000,-7.874871
436.000000,8.201261
437.000000,2.669303
438.000000,2.46371
439.000000,-3.94899
440.000000,-1.149543
441.000000,-3.482457
442.000000,-1.472048
443.000000,-2.024718
444.000000,0.860664
445.000000,4.126574
446.000000,2.381433
447.000000,-1.010729
448.000000,2.82288
449.000000,-7.092015
450.000000,-1.234729
451.000000,4.129461
452.000000,1.947224
453.000000,5.084158
454.000000,6.918988
455.000000,2.518836
456.000000,-9.452812
457.000000,-9.073549
458.000000,-4.806895
459.000000,-5.850435
460.000000,-4.167389
461.000000,-4.027116
462.000000,2.176501
463.000000,6.039311
464.000000,-1.993345
465.000000,-11.002968
466.000000,1.295494
467.000000,4.639958
468.000000,-5.676465
469.000000,3.192615
470.000000,4.813245
471.000000,-5.20061
472.000000,0.620953
473.000000,-1.442687
474.000000,-3.298501
475.000000,-0.131515
476.000000,-9.097367
477.000000,-5.266343
478.000000,2.562698
479.000000,10.466549
480.000000,-3.324751
481.000000,-2.688427
482.000000,15.966066
483.000000,10.069476
484.000000,0.266858
485.000000,-6.134773
486.000000,0.868362
487.000000,4.634298
488.000000,9.344529
489.000000,-9.213534
490.000000,6.221517
491.000000,1.291392
492.000000,-10.160385
493.000000,1.08214
494.000000,2.851926
495.000000,-1.097686
496.000000,5.337882
497.000000,0.393937
498.000000,0.667066
499.000000,-7.682882
500.000000,0.061253
501.000000,-0.131725
502.000000,1.333605
503.000000,-6.639905
504.000000,-3.116226
505.000000,5.526485
506.000000,-2.61802
507.000000,1.011267
508.000000,-2.05353
509.000000,-13.57545
510.000000,-7.787222
511.000000,0.970607
512.000000,6.614397
513.000000,-6.755486
514.000000,1.729115
515.000000,3.308038
516.000000,2.443551
517.000000,5.030774
518.000000,7.415639
519.000000,9.899618
520.000000,11.738591
521.000000,3.865827
522.000000,7.317755
523.000000,-2.737518
524.000000,7.095548
525.000000,-9.857612
526.000000,-0.850272
527.000000,-8.375
528.000000,-3.716954
529.000000,2.631045
530.000000,-5.343137
531.000000,-1.100591
532.000000,2.731861
533.000000,-4.428261
534.000000,1.871798
535.000000,-8.219969
536.000000,-7.154497
537.000000,6.251933
538.000000,8.842423
539.000000,-5.826555
540.000000,0.606209
541.000000,6.981193
542.000000,3.638673
543.000000,-4.060696
544.000000,-1.816523
545.000000,8.650571
546.000000,4.942289
547.000000,-2.189159
548.000000,11.398219
549.000000,7.796214
550.000000,13.438617
551.000000,-8.469715
552.000000,6.509379
553.000000,-15.913899
554.000000,5.745672
555.000000,-7.36272
556.000000,1.182049
557.000000,10.424332
558.000000,-2.815534
559.000000,2.846356
560.000000,-2.218176
561.000000,4.610796
562.000000,1.406521
563.000000,4.739506
564.000000,-0.370164
565.000000,-1.185202
566.000000,6.640427
567.000000,0.116736
568.000000,4.400589
569.000000,4.304041
570.000000,-9.897977
571.000000,2.174065
572.000000,1.16793
573.000000,8.525592
574.000000,12.140567
575.000000,2.762852
576.000000,6.963199
577.000000,6.904707
578.000000,5.225943
579.000000,-5.42801
580.000000,-4.700356
581.000000,-8.088285
582.000000,-2.462693
583.000000,5.481352
584.000000,-1.285437
585.000000,-1.637637
586.000000,12.361865
587.000000,5.02076
588.000000,-1.851033
589.000000,-1.33828
590.000000,2.897171
591.000000,3.311677
592.000000,12.335623
593.000000,-2.536852
594.000000,1.793445
595.000000,-2.394818
596.000000,-2.967406
597.000000,10.6833
598.000000,11.313418
599.000000,0.152358
600.000000,3.592248
601.000000,16.413133
602.000000,13.5864
603.000000,14.565936
604.000000,10.628962
605.000000,14.669498
606.000000,25.571241
607.000000,19.416693
608.000000,22.869557
609.000000,24.831424
610.000000,34.080257
611.000000,32.140712
612.000000,31.9341
613.000000,47.167694
614.000000,66.186793
615.000000,70.063359
616.000000,93.999182
617.000000,122.401982
618.000000,144.303131
619.000000,169.922539
620.000000,194.172319
621.000000,174.011141
622.000000,150.900534
623.000000,114.639817
624.000000,102.970668
625.000000,82.527067
626.000000,67.535964
627.000000,46.703842
628.000000,47.096
629.000000,40.93598
630.000000,34.141737
631.000000,21.926104
632.000000,23.274902
633.000000,14.508113
634.000000,5.980071
635.000000,1.233544
636.000000,8.275513
637.000000,18.060399
638.000000,11.827339
639.000000,10.609913
640.000000,3.770423
641.000000,9.359637
642.000000,1.791112
643.000000,4.955014
644.000000,1.141891
645.000000,6.827631
646.000000,0.357325
647.000000,6.27022
648.000000,-0.328442
649.000000,6.204425
650.000000,8.262653
651.000000,2.007626
652.000000,12.472014
653.000000,-14.223689
654.000000,8.360083
655.000000,-5.200276
656.000000,0.411045
657.000000,8.441448
658.000000,-3.990458
659.000000,6.518077
660.000000,8.019913
661.000000,1.258096
662.000000,-8.358342
663.000000,11.325448
664.000000,3.377976
665.000000,3.666094
666.000000,7.16025
667.000000,1.696894
668.000000,3.355282
669.000000,6.989727
670.000000,1.900893
671.000000,-1.354888
672.000000,1.605087
673.000000,7.104535
674.000000,9.009596
675.000000,0.457099
676.000000,7.546329
677.000000,-1.206158
678.000000,9.43026
679.000000,-9.067362
680.000000,-0.257349
681.000000,5.550571
682.000000,14.848433
683.000000,-3.044278
684.000000,10.718673
685.000000,5.958374
686.000000,7.308147
687.000000,-1.502637
688.000000,2.086903
689.000000,-4.859917
690.000000,-6.888583
691.000000,10.168265
692.000000,-1.760127
693.000000,-0.887247
694.000000,0.681918
695.000000,6.083051
696.000000,7.232249
697.000000,9.706256
698.000000,6.600043
699.000000,6.949432
700.000000,-5.180968
701.000000,5.165817
702.000000,8.212827
703.000000,-0.567876
704.000000,2.501657
705.000000,6.225401
706.000000,7.807881
707.000000,12.807236
708.000000,1.596664
709.000000,10.120227
710.000000,-6.600071
711.000000,-0.607099
712.000000,-3.305174
713.000000,0.887127
714.000000,9.038204
715.000000,12.792559
716.000000,-0.715511
717.000000,-8.864028
718.000000,0.65154
719.000000,-3.327822
720.000000,-0.310666
721.000000,-4.304263
722.000000,2.753741
723.000000,5.700519
724.000000,5.926494
725.000000,-1.467706
726.000000,-3.558909
727.000000,2.572076
728.000000,9.716753
729.000000,7.645004
730.000000,-5.406455
731.000000,7.953979
732.000000,4.352694
733.000000,6.551149
734.000000,8.73469
735.000000,13.273382
736.000000,-0.647336
737.000000,-2.224519
738.000000,-0.709288
739.000000,10.455814
740.000000,5.390752
741.000000,-4.13876
742.000000,-1.542898
743.000000,15.783815
744.000000,-5.780091
745.000000,15.557515
746.000000,-0.555114
747.000000,7.355073
748.000000,-6.38053
749.000000,1.184903
750.000000,-1.067033
751.000000,1.525448
752.000000,4.8612
753.000000,-5.247117
754.000000,6.007452
755.000000,1.100369
756.000000,-1.243538
757.000000,13.679919
758.000000,-0.723733
759.000000,-0.127256
760.000000,6.027626
761.000000,0.377811
762.000000,10.343899
763.000000,-3.482937
764.000000,4.081604
765.000000,6.709124
766.000000,-4.30733
767.000000,2.037953
768.000000,-3.35212
769.000000,4.719441
770.000000,15.015477
771.000000,1.50522
772.000000,7.212437
773.000000,18.781032
774.000000,6.93648
775.000000,-3.058587
776.000000,5.697366
777.000000,3.891697
778.000000,13.244499
779.000000,10.599729
780.000000,18.676097
781.000000,7.819131
782.000000,30.274637
783.000000,17.215576
784.000000,19.2768
785.000000,33.118978
786.000000,30.459539
787.000000,38.75531
788.000000,48.573551
789.000000,47.006287
790.000000,59.796039
791.000000,70.190227
792.000000,77.109842
793.000000,91.128967
794.000000,94.935408
795.000000,101.094351
796.000000,97.759672
797.000000,97.326936
798.000000,77.191023
799.000000,66.008864
800.000000,54.881502
801.000000,66.921828
802.000000,32.718457
803.000000,30.469465
804.000000,31.925043
805.000000,19.344993
806.000000,22.72283
807.000000,27.722167
808.000000,17.242224
809.000000,19.111775
810.000000,25.68519
811.000000,9.329181
812.000000,5.98332
813.000000,3.652326
814.000000,18.303018
815.000000,17.573278
816.000000,14.037967
817.000000,11.164131
818.000000,7.310059
819.000000,1.279191
820.000000,-1.65561
821.000000,-0.101477
822.000000,12.806249
823.000000,3.323381
824.000000,-1.588468
825.000000,9.148296
826.000000,8.493562
827.000000,4.588245
828.000000,-1.705291
829.000000,3.126108
830.000000,2.936824
831.000000,4.460295
832.000000,-1.520925
833.000000,1.3191
834.000000,0.483667
835.000000,2.024956
836.000000,-1.791933
837.000000,-1.631744
838.000000,6.380648
839.000000,1.135467
840.000000,4.371898
841.000000,1.076561
842.000000,6.584503
843.000000,-1.860038
844.000000,3.425351
845.000000,-4.521523
846.000000,-5.234214
847.000000,14.912673
848.000000,-4.244817
849.000000,-2.179991
850.000000,1.398698
851.000000,2.251568
852.000000,8.058654
853.000000,4.331938
854.000000,4.334687
855.000000,-2.081862
856.000000,-6.174799
857.000000,-4.654603
858.000000,5.549648
859.000000,-5.576974
860.000000,8.656175
861.000000,1.620308
862.000000,7.683641
863.000000,7.365767
864.000000,-4.121964
865.000000,0.286306
866.000000,5.503582
867.000000,4.554929
868.000000,0.943016
869.000000,-4.614918
870.000000,-8.157552
871.000000,7.026194
872.000000,1.634506
873.000000,-2.120035
874.000000,16.834001
875.000000,1.093465
876.000000,9.119171
877.000000,12.964077
878.000000,5.734744
879.000000,-6.393807
880.000000,-2.592885
881.000000,-0.79997
882.000000,1.200604
883.000000,1.237375
884.000000,6.99421
885.000000,2.120395
886.000000,-7.534425
887.000000,5.203719
888.000000,8.794279
889.000000,4.857013
890.000000,-0.435385
891.000000,3.800567
892.000000,2.193219
893.000000,-3.368173
894.000000,5.766484
895.000000,5.203886
896.000000,-0.77142
897.000000,3.640556
898.000000,-5.010824
899.000000,3.022195
900.000000,1.632468
901.000000,1.464963
902.000000,2.520332
903.000000,6.629494
904.000000,-0.470433
905.000000,2.024667
906.000000,1.170586
907.000000,-6.690628
908.000000,-0.117561
909.000000,-0.491594
910.000000,1.393784
911.000000,2.870852
912.000000,4.391738
913.000000,11.314911
914.000000,3.445306
915.000000,-4.948422
916.000000,2.185555
917.000000,6.026957
918.000000,8.217217
919.000000,6.406147
920.000000,8.290751
921.000000,-0.37707
922.000000,-2.235083
923.000000,3.692705
924.000000,4.772937
925.000000,-6.166532
926.000000,8.567978
927.000000,6.634216
928.000000,8.100247
929.000000,-0.638121
930.000000,6.302844
931.000000,-4.495926
932.000000,-7.182584
933.000000,5.493744
934.000000,8.360783
935.000000,-3.840839
936.000000,8.752832
937.000000,6.017897
938.000000,-3.8587
939.000000,3.10196
940.000000,4.793162
941.000000,1.160201
942.000000,-4.374754
943.000000,2.730482
944.000000,4.057542
945.000000,-1.45547
946.000000,3.763041
947.000000,1.92776
948.000000,12.165139
949.000000,2.987031
950.000000,4.997119
951.000000,4.741032
952.000000,1.1908
953.000000,10.917987
954.000000,5.767764
955.000000,1.246068
956.000000,15.549747
957.000000,10.096673
958.000000,10.504004
959.000000,1.419028
960.000000,-0.345078
961.000000,2.958176
962.000000,2.779046
963.000000,15.508868
964.000000,19.011614
965.000000,15.68432
966.000000,9.241212
967.000000,-3.400751
968.000000,4.312616
969.000000,8.359272
970.000000,14.854281
971.000000,13.310698
972.000000,14.163587
973.000000,20.91235
974.000000,18.386035
975.000000,25.58172
976.000000,20.084649
977.000000,12.333897
978.000000,20.407955
979.000000,17.761057
980.000000,14.011046
981.000000,24.079209
982.000000,24.565062
983.000000,29.900403
984.000000,28.0899
985.000000,41.145191
986.000000,43.251946
987.000000,43.098526
988.000000,65.107912
989.000000,58.9459
990.000000,71.43733
991.000000,91.760607
992.000000,111.961877
993.000000,133.763335
994.000000,151.40315
995.000000,192.287089
996.000000,273.078687
997.000000,368.645015
998.000000,503.647438
999.000000,692.871517
1000.000000,905.363249
1001.000000,997.134123
1002.000000,896.04921
1003.000000,692.09379
1004.000000,499.471159
1005.000000,364.73689
1006.000000,256.548143
1007.000000,197.952717
1008.000000,156.011715
1009.000000,135.608562
1010.000000,107.858096
1011.000000,91.516358
1012.000000,84.70856
1013.000000,65.085064
1014.000000,58.966677
1015.000000,56.197177
1016.000000,65.405168
1017.000000,59.243596
1018.000000,55.517426
1019.000000,52.448192
1020.000000,62.415819
1021.000000,66.021829
1022.000000,85.637151
1023.000000,85.080464
1024.000000,102.528919
1025.000000,120.024772
1026.000000,162.433452
1027.000000,181.668422
1028.000000,259.927905
1029.000000,324.892803
1030.000000,397.147132
1031.000000,434.802789
1032.000000,392.578685
1033.000000,319.212629
1034.000000,240.397635
1035.000000,186.139106
1036.000000,149.45051
1037.000000,113.346982
1038.000000,89.558194
1039.000000,68.950221
1040.000000,59.027869
1041.000000,49.88135
1042.000000,47.580937
1043.000000,28.633656
1044.000000,37.690986
1045.000000,22.248322
1046.000000,17.825157
1047.000000,21.088433
1048.000000,32.327924
1049.000000,11.03538
1050.000000,12.647536
1051.000000,19.787162
1052.000000,19.367125
1053.000000,9.643251
1054.000000,20.222076
1055.000000,12.409971
1056.000000,9.529375
1057.000000,5.591089
1058.000000,3.088579
1059.000000,6.413603
1060.000000,11.834732
1061.000000,15.148689
1062.000000,4.652517
1063.000000,12.361408
1064.000000,1.165543
1065.000000,-1.832486
1066.000000,15.845586
1067.000000,13.972965
1068.000000,13.277663
1069.000000,-6.915678
1070.000000,9.49433
1071.000000,-0.075381
1072.000000,5.625786
1073.000000,10.931339
1074.000000,2.892644
1075.000000,8.46582
1076.000000,6.551913
1077.000000,-8.096569
1078.000000,-3.211717
1079.000000,-2.059819
1080.000000,13.559651
1081.000000,-1.017982
1082.000000,5.903543
1083.000000,9.529306
1084.000000,7.655076
1085.000000,2.40355
1086.000000,20.468399
1087.000000,11.495383
1088.000000,2.772127
1089.000000,7.606551
1090.000000,-9.959863
1091.000000,0.164136
1092.000000,0.650453
1093.000000,8.911136
1094.000000,1.298857
1095.000000,6.170803
1096.000000,7.384118
1097.000000,7.225779
1098.000000,-0.572595
1099.000000,4.250051
1100.000000,10.484667
1101.000000,-2.475743
1102.000000,-3.400151
1103.000000,6.428909
1104.000000,6.006996
1105.000000,2.880496
1106.000000,-5.707961
1107.000000,13.743698
1108.000000,-0.869211
1109.000000,9.428342
1110.000000,6.154532
1111.000000,0.447034
1112.000000,2.556305
1113.000000,2.917652
1114.000000,1.911
1115.000000,-3.988189
1116.000000,-0.329061
1117.000000,7.613414
1118.000000,14.001984
1119.000000,3.107757
1120.000000,11.235623
1121.000000,1.753645
1122.000000,2.088087
1123.000000,9.524929
1124.000000,1.323856
1125.000000,7.529713
1126.000000,9.113555
1127.000000,14.771127
1128.000000,2.11486
1129.000000,2.917285
1130.000000,-1.809294
1131.000000,8.846757
1132.000000,9.382336
1133.000000,12.696737
1134.000000,9.642609
1135.000000,8.54631
1136.000000,3.386633
1137.000000,13.041822
1138.000000,18.507892
1139.000000,11.519759
1140.000000,13.307724
1141.000000,16.69446
1142.000000,21.334143
1143.000000,26.407381
1144.000000,23.403135
1145.000000,35.272205
1146.000000,39.125785
1147.000000,46.463558
1148.000000,53.547891
1149.000000,63.20562
1150.000000,72.95787
1151.000000,82.126701
1152.000000,97.865978
1153.000000,127.396056
1154.000000,140.643466
1155.000000,144.419464
1156.000000,137.401719
1157.000000,126.336846
1158.000000,106.551718
1159.000000,81.402029
1160.000000,74.621883
1161.000000,63.03564
1162.000000,61.97644
1163.000000,50.668818
1164.000000,47.250623
1165.000000,35.603005
1166.000000,34.745258
1167.000000,35.957397
1168.000000,20.076535
1169.000000,31.993593
1170.000000,27.621936
1171.000000,23.519349
1172.000000,31.491251
1173.000000,44.729796
1174.000000,50.266668
1175.000000,25.758301
1176.000000,47.550445
1177.000000,60.805608
1178.000000,62.751657
1179.000000,64.981716
1180.000000,84.812632
1181.000000,110.344787
1182.000000,115.114819
1183.000000,119.787517
1184.000000,112.26903
1185.000000,115.582186
1186.000000,92.006068
1187.000000,67.403661
1188.000000,65.511408
1189.000000,43.227951
1190.000000,45.885235
1191.000000,29.899338
1192.000000,25.891557
1193.000000,36.542788
1194.000000,18.453165
1195.000000,7.191995
1196.000000,10.94671
1197.000000,11.142052
1198.000000,8.453383
1199.000000,8.674391
1200.000000,10.41489
1201.000000,7.77466
1202.000000,5.161654
1203.000000,13.02362
1204.000000,5.628791
1205.000000,3.98179
1206.000000,3.542479
1207.000000,-1.651317
1208.000000,1.82087
1209.000000,18.337991
1210.000000,7.169441
1211.000000,5.200879
1212.000000,2.248776
1213.000000,2.138234
1214.000000,-2.576596
1215.000000,-5.862096
1216.000000,7.50301
1217.000000,5.548165
1218.000000,-2.313274
1219.000000,-0.716431
1220.000000,-5.663921
1221.000000,3.42654
1222.000000,3.965843
1223.000000,3.995357
1224.000000,3.070075
1225.000000,0.816773
1226.000000,3.758239
1227.000000,-1.399287
1228.000000,9.61102
1229.000000,4.691077
1230.000000,1.777879
1231.000000,4.056183
1232.000000,-0.996067
1233.000000,-4.695314
1234.000000,14.904149
1235.000000,2.813863
1236.000000,-4.705293
1237.000000,3.23575
1238.000000,1.696426
1239.000000,3.721858
1240.000000,-2.84839
1241.000000,10.292788
1242.000000,10.133953
1243.000000,11.960674
1244.000000,-3.040883
1245.000000,1.819687
1246.000000,7.929074
1247.000000,0.52999
1248.000000,1.205165
1249.000000,0.921596
1250.000000,2.800748
1251.000000,-2.677416
1252.000000,-3.006572
1253.000000,6.294906
1254.000000,5.630565
1255.000000,4.577647
1256.000000,2.579251
1257.000000,1.988147
1258.000000,-8.215383
1259.000000,5.455796
1260.000000,10.627912
1261.000000,-0.819083
1262.000000,2.753018
1263.000000,12.487061
1264.000000,1.099857
1265.000000,5.186746
1266.000000,-4.68544
1267.000000,7.058561
1268.000000,10.015963
1269.000000,7.732489
1270.000000,-2.907797
1271.000000,4.830121
1272.000000,2.426668
1273.000000,1.28713
1274.000000,-5.111919
1275.000000,9.024361
1276.000000,-1.026743
1277.000000,2.148776
1278.000000,8.728041
1279.000000,-5.50507
1280.000000,6.862227
1281.000000,15.010381
1282.000000,9.457449
1283.000000,0.652597
1284.000000,-7.374194
1285.000000,8.154396
1286.000000,2.707151
1287.000000,9.17177
1288.000000,-17.716364
1289.000000,-2.232967
1290.000000,11.94793
1291.000000,3.326115
1292.000000,11.452978
1293.000000,-5.225518
1294.000000,-3.585669
1295.000000,4.196742
1296.000000,-12.319672
1297.000000,19.917743
1298.000000,5.210443
1299.000000,3.528568
1300.000000,-3.573913
1301.000000,-2.432965
1302.000000,7.650915
1303.000000,0.626535
1304.000000,-0.023122
1305.000000,-5.679557
1306.000000,6.741226
1307.000000,-2.070223
1308.000000,-5.740685
1309.000000,-3.627966
1310.000000,-4.261965
1311.000000,0.260332
1312.000000,0.288134
1313.000000,1.805169
1314.000000,0.03367
1315.000000,0.279885
1316.000000,8.291643
1317.000000,-3.890055
1318.000000,3.13917
1319.000000,6.017664
1320.000000,-4.594954
1321.000000,-5.202586
1322.000000,1.920679
1323.000000,12.236632
1324.000000,4.735243
1325.000000,0.914015
1326.000000,-2.624672
1327.000000,-0.056163
1328.000000,0.58117
1329.000000,16.308065
1330.000000,3.040052
1331.000000,-5.608967
1332.000000,6.640848
1333.000000,12.7138
1334.000000,3.587046
1335.000000,5.351464
1336.000000,9.033472
1337.000000,5.272105
1338.000000,2.106426
1339.000000,2.175532
1340.000000,-0.61725
1341.000000,4.19656
1342.000000,-8.725764
1343.000000,7.808384
1344.000000,-5.75536
1345.000000,3.718876
1346.000000,-9.364843
1347.000000,2.29049
1348.000000,-1.203616
1349.000000,1.591237
1350.000000,8.726485
1351.000000,9.426667
1352.000000,4.455103
1353.000000,1.477693
1354.000000,-4.039316
1355.000000,9.126666
1356.000000,-3.131894
1357.000000,4.139691
1358.000000,5.151116
1359.000000,9.77086
1360.000000,12.272405
1361.000000,1.177448
1362.000000,0.820206
1363.000000,2.82502
1364.000000,6.092517
1365.000000,2.023618
1366.000000,-4.949664
1367.000000,0.211573
1368.000000,0.289269
1369.000000,0.068225
1370.000000,8.95927
1371.000000,3.252926
1372.000000,-4.786298
1373.000000,3.743672
1374.000000,13.692017
1375.000000,1.520813
1376.000000,8.416146
1377.000000,-1.765243
1378.000000,0.450171
1379.000000,-0.256555
1380.000000,-6.943357
1381.000000,11.952553
1382.000000,0.453173
1383.000000,4.925353
1384.000000,10.042935
1385.000000,1.448195
1386.000000,1.40241
1387.000000,-3.787187
1388.000000,1.040597
1389.000000,0.797771
1390.000000,6.251735
1391.000000,4.64326
1392.000000,11.353843
1393.000000,1.923896
1394.000000,2.637822
1395.000000,5.618071
1396.000000,11.806432
1397.000000,0.031424
1398.000000,-0.924042
1399.000000,3.301483
1400.000000,-3.173124
1401.000000,2.083794
1402.000000,17.06987
1403.000000,-4.21899
1404.000000,0.961198
1405.000000,-4.367688
1406.000000,4.695531
1407.000000,-14.152537
1408.000000,0.385296
1409.000000,1.235254
1410.000000,2.204149
1411.000000,6.93105
1412.000000,9.04249
1413.000000,16.151474
1414.000000,-0.637022
1415.000000,13.117342
1416.000000,12.490478
1417.000000,14.824239
1418.000000,4.956179
1419.000000,6.045867
1420.000000,12.720435
1421.000000,22.661384
1422.000000,5.173318
1423.000000,25.148949
1424.000000,11.09242
1425.000000,24.048562
1426.000000,19.561871
1427.000000,12.501249
1428.000000,16.194298
1429.000000,28.341468
1430.000000,32.521142
1431.000000,19.411898
1432.000000,31.045532
1433.000000,21.848505
1434.000000,39.683506
1435.000000,44.792394
1436.000000,35.882018
1437.000000,47.030959
1438.000000,65.074811
1439.000000,62.075488
1440.000000,74.568106
1441.000000,89.496315
1442.000000,100.372011
1443.000000,109.278428
1444.000000,126.156586
1445.000000,150.754249
1446.000000,169.073246
1447.000000,179.072743
1448.000000,204.554238
1449.000000,220.488519
1450.000000,220.114458
1451.000000,227.557725
1452.000000,205.912562
1453.000000,184.017117
1454.000000,156.380347
1455.000000,141.976426
1456.000000,120.42474
1457.000000,116.626163
1458.000000,94.510823
1459.000000,69.54905
1460.000000,74.847219
1461.000000,61.81846
1462.000000,52.720634
1463.000000,47.107854
1464.000000,54.502123
1465.000000,46.583508
1466.000000,38.254606
1467.000000,40.796312
1468.000000,30.847644
1469.000000,25.468441
1470.000000,15.60429
1471.000000,30.444586
1472.000000,18.066755
1473.000000,31.778759
1474.000000,17.451287
1475.000000,15.921386
1476.000000,18.880533
1477.000000,13.71707
1478.000000,10.863676
1479.000000,4.117543
1480.000000,4.10243
1481.000000,8.093899
1482.000000,14.662834
1483.000000,13.006459
1484.000000,21.749268
1485.000000,11.122458
1486.000000,11.025445
1487.000000,1.065891
1488.000000,6.661664
1489.000000,13.240277
1490.000000,5.431098
1491.000000,9.803782
1492.000000,22.917154
1493.000000,4.179756
1494.000000,-1.358804
1495.000000,3.23325
1496.000000,14.437728
1497.000000,9.926172
1498.000000,1.711055
1499.000000,6.002697
1500.000000,9.083387
1501.000000,-3.18078
1502.000000,-11.719117
1503.000000,17.882633
1504.000000,9.761342
1505.000000,3.18107
1506.000000,7.217771
1507.000000,8.517947
1508.000000,7.736822
1509.000000,2.844371
1510.000000,4.495405
1511.000000,0.482935
1512.000000,10.307046
1513.000000,5.208981
1514.000000,0.331615
1515.000000,8.303137
1516.000000,10.992161
1517.000000,13.105765
1518.000000,-4.707092
1519.000000,6.159047
1520.000000,3.262698
1521.000000,3.732389
1522.000000,10.192248
1523.000000,-0.747259
1524.000000,-1.60406
1525.000000,7.265873
1526.000000,2.711162
1527.000000,5.673304
1528.000000,4.720338
1529.000000,7.64586
1530.000000,6.778423
1531.000000,2.565887
1532.000000,2.229528
1533.000000,8.848225
1534.000000,14.440831
1535.000000,7.265498
1536.000000,10.140114
1537.000000,0.844935
1538.000000,4.288305
1539.000000,7.542267
1540.000000,10.900576
1541.000000,7.978097
1542.000000,10.853435
1543.000000,4.192411
1544.000000,14.267473
1545.000000,3.563456
1546.000000,13.672787
1547.000000,7.182564
1548.000000,8.291263
1549.000000,-1.327667
1550.000000,12.320849
1551.000000,13.321755
1552.000000,-0.155714
1553.000000,13.036324
1554.000000,12.112424
1555.000000,9.230087
1556.000000,6.923256
1557.000000,15.415028
1558.000000,20.637445
1559.000000,23.092733
1560.000000,19.470784
1561.000000,13.099429
1562.000000,20.274657
1563.000000,13.391486
1564.000000,25.694726
1565.000000,14.072993
1566.000000,13.781236
1567.000000,40.119949
1568.000000,28.270548
1569.000000,34.516463
1570.000000,35.301304
1571.000000,54.453371
1572.000000,46.983071
1573.000000,56.219316
1574.000000,59.462224
1575.000000,72.372944
1576.000000,76.176193
1577.000000,96.397225
1578.000000,118.592796
1579.000000,141.406653
1580.000000,174.906243
1581.000000,193.48509
1582.000000,213.813641
1583.000000,228.650593
1584.000000,221.082736
1585.000000,203.562276
1586.000000,180.439153
1587.000000,152.560604
1588.000000,153.771776
1589.000000,132.484352
1590.000000,124.441816
1591.000000,121.535902
1592.000000,140.975584
1593.000000,149.481803
1594.000000,157.572385
1595.000000,190.429082
1596.000000,209.505233
1597.000000,266.814149
1598.000000,342.216095
1599.000000,407.162322
1600.000000,508.219302
1601.000000,604.114702
1602.000000,627.306866
1603.000000,597.69049
1604.000000,507.721805
1605.000000,394.609167
1606.000000,320.978009
1607.000000,245.179118
1608.000000,183.491462
1609.000000,174.352399
1610.000000,127.737165
1611.000000,116.880002
1612.000000,87.893664
1613.000000,86.179394
1614.000000,76.725709
1615.000000,57.682812
1616.000000,52.019847
1617.000000,34.245946
1618.000000,40.802658
1619.000000,31.624222
1620.000000,41.15232
1621.000000,46.280615
1622.000000,21.453974
1623.000000,28.094526
1624.000000,19.822285
1625.000000,30.765648
1626.000000,24.000572
1627.000000,4.607039
1628.000000,15.132452
1629.000000,18.126808
1630.000000,24.443629
1631.000000,22.466564
1632.000000,10.29207
1633.000000,21.625059
1634.000000,19.285729
1635.000000,10.598842
1636.000000,6.87034
1637.000000,25.515825
1638.000000,7.967264
1639.000000,1.352487
1640.000000,21.491678
1641.000000,4.543498
1642.000000,1.448497
1643.000000,14.457338
1644.000000,3.748913
1645.000000,2.56035
1646.000000,9.870894
1647.000000,5.536703
1648.000000,11.006863
1649.000000,6.514615
1650.000000,11.06334
1651.000000,-1.786041
1652.000000,4.204499
1653.000000,7.440064
1654.000000,-0.81423
1655.000000,0.858094
1656.000000,7.804678
1657.000000,0.962739
1658.000000,2.357187
1659.000000,15.730257
1660.000000,0.443428
1661.000000,5.209079
1662.000000,1.914106
1663.000000,4.918068
1664.000000,2.259004
1665.000000,-1.144026
1666.000000,3.869475
1667.000000,0.299183
1668.000000,7.608603
1669.000000,4.643046
1670.000000,8.052725
1671.000000,-0.475169
1672.000000,16.074115
1673.000000,15.442402
1674.000000,1.944004
1675.000000,1.799626
1676.000000,3.005383
1677.000000,-6.960717
1678.000000,8.564829
1679.000000,9.253914
1680.000000,4.981118
1681.000000,4.680026
1682.000000,-6.250979
1683.000000,5.564879
1684.000000,7.978561
1685.000000,15.872346
1686.000000,-0.88577
1687.000000,-1.968774
1688.000000,2.662734
1689.000000,4.858193
1690.000000,17.042004
1691.000000,1.02955
1692.000000,-6.273807
1693.000000,4.462842
1694.000000,8.761648
1695.000000,-3.625117
1696.000000,5.165716
1697.000000,-1.66676
1698.000000,4.570422
1699.000000,3.372154
1700.000000,-6.097756
1701.000000,5.9512
1702.000000,10.861966
1703.000000,0.792968
1704.000000,10.316742
1705.000000,6.348043
1706.000000,4.178297
1707.000000,-7.732656
1708.000000,4.816826
1709.000000,1.052404
1710.000000,-4.261988
1711.000000,-5.404028
1712.000000,8.808603
1713.000000,-3.905815
1714.000000,-6.584371
1715.000000,6.342651
1716.000000,-2.972787
1717.000000,8.069522
1718.000000,3.723441
1719.000000,-0.84799
1720.000000,9.868772
1721.000000,-5.847319
1722.000000,7.997193
1723.000000,-9.419671
1724.000000,3.888394
1725.000000,-0.464515
1726.000000,-14.18048
1727.000000,2.304349
1728.000000,-3.050873
1729.000000,-5.611034
1730.000000,-4.211597
1731.000000,12.680267
1732.000000,-0.301453
1733.000000,7.161011
1734.000000,6.026573
1735.000000,-2.524423
1736.000000,5.966708
1737.000000,0.379954
1738.000000,-0.561679
1739.000000,-2.602586
1740.000000,-6.821553
1741.000000,-2.349032
1742.000000,9.169015
1743.000000,-8.753802
1744.000000,3.977675
1745.000000,1.52861
1746.000000,9.519438
1747.000000,6.633425
1748.000000,-5.169956
1749.000000,-9.406568
1750.000000,1.192633
1751.000000,1.554369
1752.000000,5.230168
1753.000000,0.712178
1754.000000,-6.165598
1755.000000,1.210927
1756.000000,-0.029714
1757.000000,12.774109
1758.000000,2.180114
1759.000000,-5.476955
1760.000000,20.851447
1761.000000,6.175202
1762.000000,7.797915
1763.000000,-2.580546
1764.000000,-1.528029
1765.000000,-3.507539
1766.000000,-11.77116
1767.000000,0.839935
1768.000000,1.649904
1769.000000,-1.951898
1770.000000,3.637129
1771.000000,-4.17372
1772.000000,-0.068753
1773.000000,3.558495
1774.000000,-2.906253
1775.000000,15.864816
1776.000000,0.001051
1777.000000,-1.553949
1778.000000,3.580516
1779.000000,9.202902
1780.000000,-0.310373
1781.000000,-3.809138
1782.000000,7.127074
1783.000000,2.071211
1784.000000,3.55304
1785.000000,7.644735
1786.000000,0.627396
1787.000000,4.821719
1788.000000,-0.184712
1789.000000,3.036513
1790.000000,8.06864
1791.000000,5.11027
1792.000000,5.150995
1793.000000,0.278517
1794.000000,-4.30863
1795.000000,-3.59515
1796.000000,10.853622
1797.000000,-3.031077
1798.000000,-2.251097
1799.000000,-2.284543
1800.000000,4.423251
1801.000000,10.046484
1802.000000,-7.858708
1803.000000,-5.056703
1804.000000,-2.783107
1805.000000,-0.446111
1806.000000,2.514963
1807.000000,3.942881
1808.000000,8.28403
1809.000000,5.847595
1810.000000,0.795244
1811.000000,-1.30426
1812.000000,0.631689
1813.000000,8.301477
1814.000000,11.011491
1815.000000,2.806627
1816.000000,-9.164695
1817.000000,2.442899
1818.000000,-10.484726
1819.000000,-4.599978
1820.000000,-8.897081
1821.000000,-0.363428
1822.000000,-0.435919
1823.000000,2.236978
1824.000000,3.522837
1825.000000,-8.175385
1826.000000,-9.867385
1827.000000,-4.852374
1828.000000,-12.080667
1829.000000,1.825154
1830.000000,5.307814
1831.000000,9.354049
1832.000000,-3.393221
1833.000000,-5.084277
1834.000000,3.471125
1835.000000,5.436814
1836.000000,-4.637939
1837.000000,-1.492464
1838.000000,-3.212273
1839.000000,2.299171
1840.000000,9.968074
1841.000000,4.636128
1842.000000,-8.278552
1843.000000,3.926583
1844.000000,5.274746
1845.000000,8.102327
1846.000000,-0.017782
1847.000000,-2.610037
1848.000000,6.891775
1849.000000,-2.718242
1850.000000,-14.132696
1851.000000,-4.392912
1852.000000,9.364057
1853.000000,2.64043
1854.000000,3.860744
1855.000000,-4.708197
1856.000000,-1.534173
1857.000000,4.466232
1858.000000,3.490207
1859.000000,6.414324
1860.000000,-9.194393
1861.000000,-9.533892
1862.000000,-3.385341
1863.000000,10.064851
1864.000000,0.75241
1865.000000,-6.74375
1866.000000,-2.125661
1867.000000,0.300492
1868.000000,9.464364
1869.000000,1.678042
1870.000000,-9.434631
1871.000000,6.885917
1872.000000,-5.186221
1873.000000,3.737473
1874.000000,1.251799
1875.000000,0.130883
1876.000000,-0.61746
1877.000000,1.037802
1878.000000,-0.014255
1879.000000,-3.112643
1880.000000,-5.644291
1881.000000,-10.903189
1882.000000,8.661286
1883.000000,-1.648637
1884.000000,-3.396802
1885.000000,1.853272
1886.000000,-7.623197
1887.000000,3.692869
1888.000000,1.624735
1889.000000,13.634604
1890.000000,5.931442
1891.000000,-4.453012
1892.000000,-5.823128
1893.000000,-9.640117
1894.000000,9.208984
1895.000000,8.539576
1896.000000,1.929412
1897.000000,-4.741136
1898.000000,8.210282
1899.000000,-0.957491
1900.000000,2.961158
1901.000000,-5.517714
1902.000000,12.560763
1903.000000,6.243322
1904.000000,5.011925
1905.000000,0.384419
1906.000000,-4.276279
1907.000000,0.990594
1908.000000,5.244642
1909.000000,-6.26208
1910.000000,-4.381365
1911.000000,-3.991573
1912.000000,3.411186
1913.000000,4.716442
1914.000000,4.837959
1915.000000,1.915006
1916.000000,2.382046
1917.000000,-2.594192
1918.000000,0.215304
1919.000000,0.661593
1920.000000,-1.144485
1921.000000,2.756912
1922.000000,-8.294607
1923.000000,-2.220279
1924.000000,-6.907066
1925.000000,15.818108
1926.000000,6.300061
1927.000000,-7.898391
1928.000000,11.070101
1929.000000,0.491706
1930.000000,-3.79801
1931.000000,-4.694607
1932.000000,0.376005
1933.000000,1.334764
1934.000000,3.248453
1935.000000,12.22646
1936.000000,5.353654
1937.000000,5.838223
1938.000000,-7.049526
1939.000000,1.92185
1940.000000,1.154158
1941.000000,-3.711234
1942.000000,3.221595
1943.000000,6.588894
1944.000000,-4.902949
1945.000000,0.925011
1946.000000,-7.240382
1947.000000,-2.940855
1948.000000,2.873882
1949.000000,2.912797
1950.000000,1.808306
1951.000000,-10.613419
1952.000000,-7.545734
1953.000000,3.681938
1954.000000,-3.772435
1955.000000,-1.053114
1956.000000,3.332927
1957.000000,3.959441
1958.000000,2.731818
1959.000000,4.563737
1960.000000,3.271699
1961.000000,-11.020318
1962.000000,-3.186269
1963.000000,11.266366
1964.000000,-4.132854
1965.000000,-1.771259
1966.000000,6.666146
1967.000000,6.76508
1968.000000,-9.916791
1969.000000,10.842443
1970.000000,10.760953
1971.000000,6.808888
1972.000000,-3.032799
1973.000000,-2.955104
1974.000000,1.263848
1975.000000,-0.696063
1976.000000,8.322517
1977.000000,-5.435486
1978.000000,-1.16056
1979.000000,-7.144414
1980.000000,-4.869736
1981.000000,0.513316
1982.000000,-7.002635
1983.000000,0.923106
1984.000000,-8.174454
1985.000000,-4.9775
1986.000000,0.81369
1987.000000,0.518504
1988.000000,-9.796084
1989.000000,-4.991068
1990.000000,-0.300623
1991.000000,2.495621
1992.000000,8.009639
1993.000000,-1.150228
1994.000000,10.60437
1995.000000,-8.411682
1996.000000,3.179923
1997.000000,10.663058
1998.000000,3.554226
1999.000000,5.859629
2000.000000,-1.644943
