# kind,background_subtracted
# version_label,v1_poly5
# poly_order,5
# iterations_run,9
pixel_index,raman_shift_cm-1,intensity,background_intensity
0,-225.296,2.84817355812865,91.15182644187135
1,-222.228,3.8080291148369696,91.19197088516303
2,-219.160,3.767731526812426,91.23226847318757
3,-216.094,3.727281648685249,91.27271835131475
4,-213.029,2.686680334428729,91.31331966557127
5,-209.965,3.6459284373558916,91.35407156264411
6,-206.902,2.6050268101160725,91.39497318988393
7,-203.840,4.563976304691565,91.43602369530844
8,-200.780,2.5227777723941216,91.47722222760588
9,-197.721,2.481432063861675,91.51856793613833
10,-194.663,3.4399400290548385,91.56005997094516
11,-191.606,3.3983025172535974,91.6016974827464
12,-188.551,3.356520377053826,91.64347962294617
13,-185.497,3.314594456363949,91.68540554363605
14,-182.444,2.2725256024015295,91.72747439759847
15,-179.392,2.230314661689846,91.76968533831015
16,-176.341,2.187962480054523,91.81203751994548
17,-173.292,2.1454699026201354,91.85453009737986
18,-170.243,3.102837773806783,91.89716222619322
19,-167.196,2.0600669373267095,91.93993306267329
20,-164.150,0.017158236180904396,91.9828417638191
21,-161.106,0.9741125126557222,92.02588748734428
22,-158.062,2.9309306083194144,92.06906939168059
23,-155.020,2.887613364018847,92.11238663598115
24,-151.979,1.8441616198759903,92.15583838012401
25,-148.939,1.8005762152845648,92.19942378471544
26,-145.900,1.7568579889067024,92.2431420110933
27,-142.862,0.7130077786694216,92.28699222133058
28,-139.826,1.6690264217613446,92.33097357823866
29,-136.791,2.624914754629245,92.37508524537076
30,-133.757,1.5806736129746497,92.41932638702535
31,-130.724,3.5363038317504447,92.46369616824956
32,-127.693,1.4918062451575196,92.50819375484248
33,-124.662,2.4471816866412723,92.55281831335873
34,-121.633,1.4024309888883408,92.59756901111166
35,-118.605,0.3575549838230643,92.64244501617694
36,-115.578,1.3125545026042147,92.68744549739579
37,-112.553,2.267430375621501,92.7325696243785
38,-109.528,2.2221834324922156,92.77781656750778
39,-106.505,2.1768145020578658,92.82318549794213
40,-103.483,3.1313244123806783,92.86867558761932
41,-100.462,2.0857139907403166,92.91428600925968
42,-97.442,1.0399840636303992,92.9600159363696
43,-94.424,1.9941354567551457,93.00586454324485
44,-91.406,1.9481689950259664,93.05183100497403
45,-88.390,1.9020855025580374,93.09791449744196
46,-85.375,2.855885802666961,93.14411419733304
47,-82.361,1.8095707178652987,93.1904292821347
48,-79.349,2.7631410698592447,93.23685893014076
49,-76.337,1.7165976795451598,93.28340232045484
50,-73.327,1.6699413670062313,93.33005863299377
51,-70.318,2.6231729515090194,93.37682704849098
52,-67.310,0.576293251500104,93.4237067484999
53,-64.304,0.0,93.47069691539733
54,-61.298,2.48220326761313,93.51779673238687
55,-58.294,0.0,93.56500538350235
56,-55.290,0.38767794638886244,93.61232205361114
57,-52.288,1.340254071582379,93.65974592841762
58,-49.288,1.2927238055334414,93.70727619446656
59,-46.288,1.2450879608535104,93.75491203914649
60,-43.289,0.1973473493068525,93.80265265069315
61,-40.292,1.1495027818071435,93.85049721819286
62,-37.296,1.1015550684141289,93.89844493158587
63,-34.301,2.053505018330142,93.94649498166986
64,-31.307,2.005353439896723,93.99464656010328
65,-28.315,2.9571011405912913,94.04289885940871
66,-25.323,10.908748927023638,94.09125107297636
67,-22.333,9.86029760493264,94.13970239506736
68,-19.344,1.8117479791827833,94.18825202081722
69,-16.356,0.7631008537607755,94.23689914623922
70,-13.369,1.714357031772181,94.28564296822782
71,-10.384,0.665517315437981,94.33448268456202
72,-7.399,0.0,94.38341749390877
73,-4.416,0.0,94.43244659582639
74,-1.434,0.5184308092320293,94.48156919076797
75,1.547,0.0,94.53078448008473
76,4.527,0.4199083339705396,94.58009166602946
77,7.506,0.0,94.6294899517599
78,10.483,0.32102145865789566,94.6789785413421
79,13.459,0.0,94.72855663975393
80,16.434,0.22177654711165928,94.77822345288834
81,19.408,0.1720218124431625,94.82797818755684
82,22.381,1.1221799485071102,94.87782005149289
83,25.353,0.0,94.92774825335529
84,28.323,0.0,94.97776200273157
85,31.293,0.9721394898586198,95.02786051014138
86,34.261,0.9219570129600498,95.07804298703995
87,37.228,0.0,95.12830864582139
88,40.193,0.0,95.17865669982218
89,43.158,0.0,95.2290863633245
90,46.122,0.0,95.27959685155966
91,49.084,0.0,95.33018738071151
92,52.045,0.0,95.38085716791981
93,55.005,0.5683945687163572,95.43160543128364
94,57.964,0.0,95.4824313898648
95,60.922,0.0,95.53333426369122
96,63.878,0.0,95.5843132737603
97,66.834,0.0,95.63536764204243
98,69.788,0.3135034085157713,95.68649659148423
99,72.741,2.262300653987907,95.73769934601209
100,75.693,2.2110248694645236,95.78897513053548
101,78.644,3.15967682904963,95.84032317095037
102,81.594,5.10825730585735,95.89174269414265
103,84.542,5.056767072008498,95.9432329279915
104,87.490,3.005206898627179,95.99479310137282
105,90.436,2.953577555837427,96.04642244416257
106,93.381,3.901879812759759,96.09812018724024
107,96.325,3.8501144375077843,96.14988556249222
108,99.268,4.798282197184861,96.20171780281514
109,102.209,5.746383857880602,96.2536161421194
110,105.150,2.6944201846675924,96.30557981533241
111,108.089,1.642391941597893,96.3576080584021
112,111.027,4.590299891699672,96.40970010830033
113,113.964,3.5381447969738247,96.46185520302618
114,116.900,3.485927418390588,96.51407258160941
115,119.835,4.433648515886091,96.56635148411391
116,122.769,2.3813088483589837,96.61869115164102
117,125.701,4.328909173667071,96.67109082633293
118,128.632,5.276450248623846,96.72354975137615
119,131.562,4.223932828995146,96.77606717100485
120,134.492,5.171357669495748,96.82864233050425
121,137.419,4.11872552378594,96.88127447621406
122,140.346,5.066037144468169,96.93396285553183
123,143.272,5.013293283083598,96.9867067169164
124,146.196,2.9604946901087317,97.03950530989127
125,149.120,3.9076421149519973,97.092357885048
126,152.042,0.8547363059504107,97.14526369404959
127,154.963,1.8017780103660783,97.19822198963392
128,157.883,5.748767974382872,97.25123202561713
129,160.802,1.6957069431030192,97.30429305689698
130,163.719,2.6425956605436767,97.35740433945632
131,166.636,0.5894348696335783,97.41056513036642
132,169.551,4.536225312209581,97.46377468779042
133,172.466,2.4829677290133105,97.51703227098669
134,175.379,3.4296628596877383,97.57033714031226
135,178.291,4.376311442773812,97.62368855722619
136,181.202,3.3229142157070157,97.67708578429298
137,184.111,5.269471914814019,97.73052808518598
138,187.020,4.215985275309237,97.78401472469076
139,189.927,2.1624550312914437,97.83754496870856
140,192.834,3.1088819157404117,97.89111808425959
141,195.739,3.055266660513439,97.94473333948656
142,198.643,2.00160999634204,97.99839000365796
143,201.546,0.9479126528284496,98.05208734717155
144,204.448,1.8941753584423395,98.10582464155766
145,207.348,4.840398840517295,98.1596011594827
146,210.248,3.786583825247533,98.21341617475247
147,213.146,2.7327310376844025,98.2672689623156
148,216.044,0.6788412017330785,98.32115879826692
149,218.940,3.6249150401490766,98.37508495985092
150,221.835,3.5709532745349435,98.42904672546506
151,224.729,3.5169566253367606,98.48304337466324
152,227.622,3.4629258118408472,98.53707418815915
153,230.513,2.4088615521702934,98.5911384478297
154,233.404,2.3547645632815772,98.64523543671842
155,236.293,4.300635560961183,98.69936443903882
156,239.182,2.2464752598221622,98.75352474017784
157,242.069,5.192284373300808,98.80771562669919
158,244.955,3.138063613653202,98.8619363863468
159,247.840,4.0838136919518035,98.9161863080482
160,250.724,5.0295353180820825,98.97046468191792
161,253.607,3.9752292007391503,99.02477079926085
162,256.488,1.9208960474242787,99.07910395257572
163,259.369,3.8665365644415886,99.13346343555841
164,262.248,0.8121514568945685,99.18784854310543
165,265.126,1.7577414286827633,99.24225857131724
166,268.004,3.703307182498321,99.29669281750168
167,270.880,1.6488494198225823,99.35115058017742
168,273.754,4.594368840922741,99.40563115907726
169,276.628,2.5398661448483892,99.46013385515161
170,279.501,2.4853420294281534,99.51465797057185
171,282.373,4.430797191266265,99.56920280873373
172,285.243,4.37623232573921,99.62376767426079
173,288.112,3.3216481269922866,99.67835187300771
174,290.981,2.2670452879362273,99.73295471206377
175,293.848,5.212424500243785,99.78757549975622
176,296.714,3.1577864543463647,99.84221354565364
177,299.579,1.1031318394306027,99.8968681605694
178,302.442,2.0484613434349512,99.95153865656505
179,305.305,2.9937756530463275,100.00622434695367
180,308.167,2.939075453696688,100.06092454630331
181,311.027,1.8843614295596183,100.11563857044038
182,313.886,2.82963426354695,100.17036573645305
183,316.745,2.7748946373053798,100.22510536269462
184,319.602,2.7201432312130294,100.27985676878697
185,322.458,1.6653807243760923,100.33461927562391
186,325.313,1.6106077946253947,100.3893922053746
187,328.167,2.5558251185130416,100.44417488148696
188,331.019,6.501033371308949,100.49896662869105
189,333.871,1.446233226997549,100.55376677300245
190,336.722,5.39142535827429,100.60857464172571
191,339.571,1.3366104365423013,100.6633895634577
192,342.419,2.2817891319089654,100.71821086809103
193,345.266,2.2269621131825517,100.77303788681745
194,348.113,2.1721300478687624,100.82786995213124
195,350.958,2.1172936021674076,100.88270639783259
196,353.801,3.0624534409689375,100.93754655903106
197,356.644,2.0076102278510746,100.99238977214893
198,359.486,2.9527646250754316,101.04723537492457
199,362.327,1.8979172935841007,101.1020827064159
200,365.166,2.843068892996243,101.15693110700376
201,368.004,2.788220081604706,101.2117799183953
202,370.842,4.733371516372614,101.26662848362739
203,373.678,1.6785238529299562,101.32147614707004
204,376.513,1.623677745570248,101.37632225442975
205,379.347,3.5688338472470633,101.43116615275294
206,382.180,0.5139928095706807,101.48600719042932
207,385.012,1.4591552828046446,101.54084471719536
208,387.843,1.4043219158624396,101.59567808413756
209,390.672,3.349493356303995,101.650506643696
210,393.501,1.2946702503323593,101.70532974966764
211,396.328,1.2398532427903035,101.7601467572097
212,399.155,3.18504297715684,101.81495702284316
213,401.980,2.1302400955439396,101.86975990445606
214,404.804,1.0754452386930637,101.92455476130694
215,407.627,1.0206590459717546,101.97934095402825
216,410.449,0.0,102.03411784462972
217,413.270,0.9111152034982268,102.08888479650177
218,416.090,1.856358825581097,102.1436411744189
219,418.909,1.8016136554568618,102.19838634454314
220,421.726,3.7468803255726755,102.25311967442732
221,424.543,1.6921594669813516,102.30784053301865
222,427.358,2.637451709338052,102.36254829066195
223,430.173,1.5827576808968473,102.41724231910315
224,432.986,1.5280780085073502,102.47192199149265
225,435.798,1.473413317611275,102.52658668238873
226,438.609,3.4187642322390843,102.58123576776092
227,441.419,1.3641313750065365,102.63586862499346
228,444.228,1.309515367111345,102.69048463288865
229,447.036,3.254916828329769,102.74508317167023
230,449.843,2.2003363770131728,102.79966362298683
231,452.649,1.1457746300846736,102.85422536991533
232,455.453,2.091232203035716,102.90876779696428
233,458.257,1.0367097099226896,102.96329029007731
234,461.059,4.982207763363519,103.01779223663648
235,463.861,0.9277269745342807,103.07227302546572
236,466.661,0.0,103.12673204683419
237,469.460,0.8188313075402505,103.18116869245975
238,472.259,0.0,103.23558235551228
239,475.056,1.710027569382902,103.2899724306171
240,477.852,0.0,103.3443383138584
241,480.647,2.6013205972173807,103.39867940278262
242,483.440,3.547004903598193,103.4529950964018
243,486.233,4.492715204802906,103.5072847951971
244,489.025,2.438452098877974,103.56154790112203
245,491.815,6.384216182394013,103.61578381760599
246,494.605,7.3300080504423875,103.66999194955761
247,497.393,14.275828296631829,103.72417170336817
248,500.181,19.221677513085055,103.77832248691494
249,502.967,24.16755629043533,103.83244370956467
250,505.752,33.11346521782312,103.88653478217688
251,508.537,53.05940488289262,103.94059511710738
252,511.320,51.00537587178846,103.99462412821154
253,514.102,31.95137876915217,104.04862123084783
254,516.883,15.897414158118906,104.1025858418811
255,519.663,6.843482620314035,104.15651737968597
256,522.441,3.7895847358496155,104.21041526415038
257,525.219,4.735721083321195,104.2642789166788
258,527.996,1.6818922398042275,104.31810776019577
259,530.771,1.6280987808507916,104.37190121914921
260,533.546,0.0,104.42565871951386
261,536.319,3.5206203112053345,104.47937968879467
262,539.092,2.4669364439698143,104.53306355603019
263,541.863,2.413290248204021,104.58670975179598
264,544.633,0.35968229179199795,104.640317708208
265,547.403,0.306113141073979,104.69388685892602
266,550.171,0.0,104.74741663915701
267,552.938,2.1990935143414987,104.8009064856585
268,555.704,0.14564416325792706,104.85435583674207
269,558.469,4.092235867723332,104.90776413227667
270,561.233,3.038869186307977,104.96113081369202
271,563.996,0.0,105.01445532398206
272,566.757,1.9322628922916891,105.06773710770831
273,569.518,3.8790243889967257,105.12097561100327
274,572.278,0.8258297184261636,105.17417028157384
275,575.036,0.0,105.22732056870467
276,577.794,0.7195740767383683,105.28042592326163
277,580.550,0.6665142023048674,105.33348579769513
278,583.306,2.613500353956397,105.3864996460436
279,586.060,2.5605330760631944,105.4394669239368
280,588.813,0.5076129114006989,105.4923870885993
281,591.566,1.4547404011461822,105.54525959885382
282,594.317,1.4019160848753387,105.59808391512466
283,597.067,0.3491405005589314,105.65085949944107
284,599.816,2.2964141845593247,105.70358581544068
285,602.564,1.243737671627116,105.75626232837288
286,605.311,1.19111149489774,105.80888850510226
287,608.057,0.138536185888114,105.86146381411189
288,610.802,4.086012274493157,105.91398772550684
289,613.546,3.033540288982408,105.96645971101759
290,616.288,0.9811207559967272,106.01887924400327
291,619.030,0.0,106.07124579945524
292,621.771,0.0,106.12355885400038
293,624.510,0.8241821140954642,106.17581788590454
294,627.249,0.0,106.22802237507588
295,629.986,0.0,106.28017180306833
296,632.723,0.6677343469150117,106.33226565308499
297,635.458,2.6156965900185583,106.38430340998144
298,638.192,0.5637154397307427,106.43628456026926
299,640.926,1.5117914078806791,106.48820859211932
300,643.658,0.0,106.54007499536525
301,646.389,4.408116738493177,106.59188326150682
302,649.119,2.356367116286691,106.64363288371331
303,651.848,3.304676643173053,106.69532335682695
304,654.576,2.253045822633709,106.74695417736629
305,657.304,1.20147515647038,106.79852484352962
306,660.029,2.1499651448016834,106.85003485519832
307,662.754,1.0985162860596631,106.90148371394034
308,665.478,0.0471290769864936,106.9528709230135
309,668.201,0.9958040126310124,107.00419598736899
310,670.923,1.9445415863453093,107.05545841365469
311,673.644,0.8933422897814154,107.10665771021858
312,676.363,0.0,107.1577933871122
313,679.082,0.0,107.20886495609396
314,681.800,0.0,107.2598719306326
315,684.516,0.0,107.31081382591054
316,687.232,0.638309841172628,107.36169015882737
317,689.946,2.587499551996885,107.41250044800312
318,692.660,0.0,107.46324421378173
319,695.372,0.0,107.5139209782345
320,698.084,1.4354697348366585,107.56453026516334
321,700.794,1.3849283998956707,107.61507160010433
322,703.503,1.3344554896690113,107.66554451033099
323,706.212,3.2840514751422063,107.7159485248578
324,708.919,0.0,107.76628317444346
325,711.625,1.1834520084055953,107.8165479915944
326,714.330,0.13325748943185545,107.86674251056814
327,717.034,0.0,107.91686626737668
328,719.737,0.033081200210148154,107.96691879978985
329,722.439,0.0,108.01689964733887
330,725.141,1.9331916486804488,108.06680835131955
331,727.841,0.8833555452041821,108.11664445479582
332,730.539,1.8335924973969213,108.16640750260308
333,733.237,0.0,108.21609704135157
334,735.934,1.734287380570123,108.26571261942988
335,738.630,0.6847462129918114,108.31525378700819
336,741.325,0.0,108.3647200960418
337,744.019,3.5858888997255605,108.41411110027444
338,746.712,1.5365736447582492,108.46342635524175
339,749.403,2.487334581725392,108.51266541827461
340,752.094,1.4381721514974544,108.56182784850255
341,754.784,2.3890867931428375,108.61091320685716
342,757.473,2.340078943924482,108.65992105607552
343,760.160,1.2911490392964708,108.70885096070353
344,762.847,2.2422975129006204,108.75770248709938
345,765.532,1.193524796563139,108.80647520343686
346,768.217,0.14483132029113222,108.85516867970887
347,770.900,3.096217512269277,108.90378248773072
348,773.583,2.0476837988564256,108.95231620114357
349,776.264,0.9992306045821522,109.00076939541785
350,778.945,1.950858352143399,109.0491416478566
351,781.624,0.0,109.09743253759892
352,784.303,0.0,109.14564164562336
353,786.980,3.806231445248727,109.19376855475127
354,789.657,1.7581871503497268,109.24181284965027
355,792.332,0.71022588316238,109.28977411683762
356,795.006,0.6623480553164285,109.33765194468357
357,797.680,2.614554076585165,109.38544592341484
358,800.352,2.5668443548820505,109.43315564511795
359,803.023,0.0,109.48078070374268
360,805.693,0.4716793048946073,109.52832069510539
361,808.363,0.42422478310749057,109.57577521689251
362,811.031,2.3768561313361545,109.62314386866385
363,813.698,1.3295737481439573,109.67042625185604
364,816.364,0.0,109.717621969786
365,819.029,3.23526937234584,109.76473062765416
366,821.694,2.188248167451974,109.81175183254803
367,824.357,3.1413148065544902,109.85868519344551
368,827.019,0.0,109.90553032121832
369,829.680,1.0477131713646486,109.95228682863535
370,832.340,1.001045669633811,109.99895433036619
371,834.999,2.9544675570156897,110.04553244298431
372,837.657,0.9079792150293287,110.09202078497067
373,840.314,0.8615810232829944,110.138418976717
374,842.970,0.8152733594707655,110.18472664052923
375,845.625,1.7690565993690939,110.2309434006309
376,848.279,1.7229311168334789,110.27706888316652
377,850.932,1.676897283794986,110.32310271620501
378,853.584,0.6309554702569216,110.36904452974308
379,856.235,1.585106044291365,110.41489395570864
380,858.885,1.539349372035872,110.46065062796413
381,861.534,3.4936858176899364,110.50631418231006
382,864.182,1.4481157435117211,110.55188425648828
383,866.829,0.0,110.59736049018542
384,869.475,0.35725747496371696,110.64274252503628
385,872.120,0.0,110.68803000462728
386,874.764,1.266777425500237,110.73322257449976
387,877.407,1.2216801178465033,110.7783198821535
388,880.049,1.176678422950019,110.82332157704998
389,882.690,2.1317726893840927,110.86822731061591
390,885.330,4.086963263753489,110.91303673624651
391,887.969,4.042250490690947,110.95774950930905
392,890.607,0.9976347128538947,111.0023652871461
393,893.243,0.9531162709210008,111.046883729079
394,895.879,0.0,111.09130449641128
395,898.514,0.8643727475680123,111.13562725243199
396,901.148,0.0,111.17985166241917
397,903.781,0.0,111.22397739364321
398,906.413,0.7319958846297538,111.26800411537025
399,909.044,0.6880685011344383,111.31193149886556
400,911.674,3.6442407826030063,111.355759217397
401,914.303,3.600513053761645,111.39948694623835
402,916.930,0.0,111.44311436267276
403,919.557,0.0,111.4866411459961
404,922.183,0.0,111.5300669775204
405,924.808,2.4266084594227806,111.57339154057722
406,927.432,4.383385479478946,111.61661452052105
407,930.055,3.3402643952672406,111.65973560473276
408,932.677,4.2972455173770925,111.70275448262291
409,935.298,3.2543291543647968,111.7456708456352
410,937.918,6.211515612750119,111.78848438724988
411,940.536,3.1688051970128868,111.83119480298711
412,943.154,3.1261982095895746,111.87380179041043
413,945.771,4.083694950869997,111.91630504913
414,948.387,4.0412957191937835,111.95870428080622
415,951.002,4.9990008108470505,112.00099918915295
416,953.616,2.9568105200590367,112.04318947994096
417,956.229,3.9147251389986053,112.0852748610014
418,958.841,4.872744957770948,112.12725504222905
419,961.452,1.8308702644141022,112.1691297355859
420,964.062,6.789101344895641,112.21089865510436
421,966.671,2.7474384831091783,112.25256151689082
422,969.279,3.7058819608710394,112.29411803912896
423,971.886,2.664432057916841,112.33556794208316
424,974.492,4.623089051898106,112.3769109481019
425,977.097,3.581853218378825,112.41814678162118
426,979.701,2.5407248308321186,112.45927516916788
427,982.304,1.4997041606367816,112.50029583936322
428,984.906,1.4587914770739303,112.54120852292607
429,987.507,1.4179870473235638,112.58201295267644
430,990.107,4.37729113646121,112.62270886353879
431,992.706,0.0,112.66329599254553
432,995.305,4.296225921159717,112.70377407884028
433,997.902,1.2558571363185678,112.74414286368143
434,1000.498,1.2155979095545746,112.78440209044543
435,1003.093,2.175448495369835,112.82455150463016
436,1005.687,0.13540914614151234,112.86459085385849
437,1008.280,0.0954801121185227,112.90451988788148
438,1010.873,2.055661641418098,112.9443383585819
439,1013.464,0.0,112.98404601997763
440,1016.054,0.0,113.02364262822496
441,1018.643,2.936872058377901,113.0631279416221
442,1021.232,0.0,113.10250172061254
443,1023.819,1.8582362722115846,113.14176372778842
444,1026.405,2.8190862721060768,113.18091372789392
445,1028.991,0.7800485121712484,113.21995148782875
446,1031.575,0.7411232233485521,113.25887677665145
447,1034.158,2.702310634417188,113.29768936558281
448,1036.741,2.6636109719906926,113.33638902800931
449,1039.322,0.6250244605135293,113.37497553948647
450,1041.903,5.586551322257719,113.41344867774228
451,1044.482,1.5481917773194311,113.45180822268057
452,1047.061,3.509946043615571,113.49005395638443
453,1049.638,1.4718143368803993,113.5281856631196
454,1052.215,0.4337968706621069,113.5662031293379
455,1054.790,1.3958938563194465,113.60410614368055
456,1057.365,0.0,113.64189449698164
457,1059.938,3.3204320177284927,113.67956798227151
458,1062.511,3.2828736052198764,113.71712639478012
459,1065.083,2.245430468059496,113.7545695319405
460,1067.653,2.208102806607883,113.79189719339212
461,1070.223,3.1708908190157814,113.82910918098422
462,1072.792,0.0,113.86620529877938
463,1075.360,2.0968146469432725,113.90318535305673
464,1077.927,0.05995084768453296,113.94004915231547
465,1080.492,4.023203492721791,113.97679650727821
466,1083.057,0.9865727691055923,114.01342723089441
467,1085.621,1.9500588616562595,114.04994113834374
468,1088.184,0.0,114.0863380470395
469,1090.746,1.877382223367988,114.12261777663201
470,1093.307,0.8412198509880113,114.15878014901199
471,1095.867,0.0,114.19482498831402
472,1098.426,1.7692478790801118,114.23075212091989
473,1100.984,1.7334386245380529,114.26656137546195
474,1103.541,0.6977474171733888,114.30225258282661
475,1106.097,0.0,114.33782557615771
476,1108.653,1.6267198091401411,114.37328019085986
477,1111.207,3.5913837353981393,114.40861626460186
478,1113.760,4.556166362679804,114.4438336373202
479,1116.312,0.5210678487777329,114.47893215122227
480,1118.864,1.4860883492100925,114.51391165078991
481,1121.414,0.0,114.5487719827828
482,1123.964,1.4164870037582773,114.58351299624172
483,1126.512,3.3818654575078426,114.61813454249216
484,1129.059,1.347363524852483,114.65263647514752
485,1131.606,0.31298134988739434,114.6870186501126
486,1134.152,0.2787190744129475,114.72128092558705
487,1136.696,0.24457683793134777,114.75542316206865
488,1139.240,2.2105547776432104,114.78944522235679
489,1141.782,0.0,114.82334697155582
490,1144.324,4.142871722921484,114.85712827707852
491,1146.865,3.1092109913505936,114.8907890086494
492,1149.405,1.0756709616917846,114.92432903830822
493,1151.944,2.04225175958679,114.95774824041321
494,1154.481,0.008953508355318718,114.99104649164468
495,1157.018,1.9757763289917563,115.02422367100824
496,1159.554,0.9427203401616708,115.05727965983833
497,1162.089,0.0,115.09021434180153
498,1164.623,3.876972397100033,115.12302760289997
499,1167.157,2.844280668525215,115.15571933147478
500,1169.689,1.8117105817905639,115.18828941820944
501,1172.220,0.7792622438667962,115.2207377561332
502,1174.750,1.7469357593755461,115.25306424062445
503,1177.279,3.7147312305858264,115.28526876941417
504,1179.808,3.6826487574107034,115.3173512425893
505,1182.335,4.650688437403943,115.34931156259606
506,1184.861,2.6188503657564866,115.38114963424351
507,1187.387,0.0,115.41286536470685
508,1189.911,2.5555413364692185,115.44445866353078
509,1192.435,3.5240705573670255,115.47592944263297
510,1194.958,4.492722383692495,115.5072776163075
511,1197.479,3.4614968987719124,115.53850310122809
512,1200.000,0.43039418354834424,115.56960581645166
513,1202.520,1.3994143165783441,115.60058568342166
514,1205.039,1.3685573740285406,115.63144262597146
515,1207.556,0.33782342967217005,115.66217657032783
516,1210.073,4.307212554885794,115.6927874451142
517,1212.589,3.2767248186458318,115.72327518135417
518,1215.104,4.246360287525135,115.75363971247486
519,1217.618,2.2161190256896646,115.78388097431034
520,1220.132,4.186001094895019,115.81399890510498
521,1222.644,1.1560065544831275,115.84399344551687
522,1225.155,2.1261354613787375,115.87386453862126
523,1227.665,1.0963878700861045,115.9036121299139
524,1230.175,2.0667638326855524,115.93323616731445
525,1232.683,4.037263398830078,115.96273660116992
526,1235.190,4.007886615742009,115.99211338425799
527,1237.697,1.9786335282094996,116.0213664717905
528,1240.202,0.9495041785832399,116.05049582141676
529,1242.707,0.0,116.07950139322705
530,1245.211,2.8916168502441195,116.10838314975588
531,1247.714,0.0,116.13714105598552
532,1250.215,0.8342249206506409,116.16577507934936
533,1252.716,1.805714810264746,116.19428518973525
534,1255.216,4.777328640511058,116.22267135948894
535,1257.715,0.7490664365824671,116.25093356341753
536,1260.213,0.720928221207231,116.27907177879277
537,1262.710,4.6929140146454955,116.3070859853545
538,1265.206,0.0,116.3349761653141
539,1267.702,1.6372576966421803,116.36274230335782
540,1270.196,3.609615613349817,116.39038438665018
541,1272.689,1.5820975951625655,116.41790240483743
542,1275.182,4.554703649949161,116.44529635005084
543,1277.673,2.527433783089748,116.47256621691025
544,1280.164,1.5002879974726966,116.4997120025273
545,1282.653,5.473266293491008,116.52673370650899
546,1285.142,2.4463686690390745,116.55363133096093
547,1287.630,2.419595119509168,116.58040488049083
548,1290.116,3.392945637788074,116.60705436221193
549,1292.602,3.3664202142537647,116.63357978574624
550,1295.087,3.3400188367718897,116.65998116322811
551,1297.571,4.313741490692436,116.68625850930756
552,1300.054,2.287588158846347,116.71241184115365
553,1302.536,0.261558821542053,116.73844117845795
554,1305.018,3.2356534565621757,116.76434654343782
555,1307.498,1.2098720391600466,116.79012796083995
556,1309.977,5.184214542056324,116.81578545794368
557,1312.455,4.15868093543564,116.84131906456436
558,1314.933,2.1332711869431336,116.86672881305687
559,1317.409,3.1079852616811223,116.89201473831888
560,1319.885,2.082823122205653,116.91717687779435
561,1322.360,4.057784728523117,116.94221527147688
562,1324.834,3.032870038086884,116.96712996191312
563,1327.306,2.0080790057938316,116.99192099420617
564,1329.778,2.983411583981024,117.01658841601898
565,1332.249,1.9588677224222693,117.04113227757773
566,1334.719,3.9344473683247543,117.06555263167525
567,1337.188,2.9101504663256037,117.0898495336744
568,1339.657,1.8859769584884987,117.1140230415115
569,1342.124,2.8619267843003087,117.13807321569969
570,1344.590,5.8379998806676525,117.16200011933235
571,1347.056,1.8141961819135162,117.18580381808648
572,1349.520,2.7905156197738563,117.20948438022614
573,1351.984,3.766958123394204,117.2330418766058
574,1354.446,2.7435236193262824,117.25647638067372
575,1356.908,1.7202120315245253,117.27978796847547
576,1359.369,2.6970232813428225,117.30297671865718
577,1361.829,2.6739572875310103,117.32604271246899
578,1364.287,1.6510139662314742,117.34898603376853
579,1366.746,4.628193230975825,117.37180676902418
580,1369.203,3.605494992681443,117.39450500731856
581,1371.659,0.5829191596480854,117.41708084035191
582,1374.114,4.560465637554515,117.43953436244549
583,1376.568,2.53813432945509,117.46186567054491
584,1379.022,2.515925135776314,117.48407486422369
585,1381.474,2.493837954313534,117.50616204568647
586,1383.926,2.471872680227449,117.52812731977255
587,1386.377,1.4500292060408242,117.54997079395918
588,1388.826,1.4283074216349405,117.57169257836506
589,1391.275,3.406707214246339,117.59329278575366
590,1393.723,1.3852284684633247,117.61477153153668
591,1396.170,2.363871066222643,117.63612893377736
592,1398.616,0.0,117.65736511319398
593,1401.061,4.32151980683679,117.67848019316321
594,1403.506,2.3005257002765376,117.69947429972346
595,1405.949,3.2796524384215786,117.72034756157842
596,1408.391,4.2588998898997374,117.74110011010026
597,1410.833,1.2382679206667717,117.76173207933323
598,1413.273,5.217756394003132,117.78224360599687
599,1415.713,2.197365170510409,117.80263482948959
600,1418.152,1.1770941081080792,117.82290589189192
601,1420.590,0.15694306203000963,117.84305693796999
602,1423.027,3.136911884821103,117.8630881151789
603,1425.463,0.0,117.88299957366611
604,1427.898,3.097208533725137,117.90279146627486
605,1430.332,1.0775360514523982,117.9224639485476
606,1432.765,1.0579828212707127,117.94201717872929
607,1435.198,2.038548682229134,117.96145131777087
608,1437.629,1.019233470667345,117.98076652933266
609,1440.060,2.0000370202122895,117.99996297978771
610,1442.489,2.98095916177472,118.01904083822528
611,1444.918,1.9619997235458584,118.03800027645414
612,1447.346,3.9431585309939408,118.05684146900606
613,1449.773,1.9244354068608658,118.07556459313913
614,1452.199,3.9058301711587973,118.0941698288412
615,1454.624,1.8873426411667253,118.11265735883327
616,1457.048,3.86897263142707,118.13102736857293
617,1459.471,0.0,118.14928004625764
618,1461.894,2.8325844171717307,118.16741558282827
619,1464.315,0.8145658280275967,118.1854341719724
620,1466.736,1.7966639898722292,118.20333601012777
621,1469.156,3.7788787035143656,118.22112129648563
622,1471.574,2.7612097670057665,118.23879023299423
623,1473.992,0.7436569756379185,118.25634302436208
624,1476.409,1.7262201219385247,118.27377987806148
625,1478.825,1.7088989956681786,118.29110100433182
626,1481.240,5.691693383816954,118.30830661618305
627,1483.655,1.6746030706009378,118.32539692939906
628,1486.068,0.6576278374589606,118.34237216254104
629,1488.480,3.640767463049116,118.35923253695088
630,1490.892,3.6240217232453205,118.37597827675468
631,1493.303,1.6073903911340324,118.39260960886597
632,1495.712,2.5908732370107543,118.40912676298925
633,1498.121,0.5744700283766804,118.42552997162332
634,1500.529,1.5581805299353277,118.44181947006467
635,1502.936,1.5420045035890269,118.45799549641097
636,1505.343,0.5259417084356244,118.47405829156438
637,1507.748,1.509991900765101,118.4900080992349
638,1510.152,2.4941548340560757,118.50584516594392
639,1512.556,1.4784302589724803,118.52156974102752
640,1514.958,3.4628179233601344,118.53718207663987
641,1517.360,0.447317572243378,118.55268242775662
642,1519.761,3.431928947821632,118.56807105217837
643,1522.161,0.0,118.583348210534
644,1524.560,3.401485833715938,118.59851416628406
645,1526.958,3.386430814275755,118.61356918572424
646,1529.355,0.37148646201131896,118.62851353798868
647,1531.751,1.3566525049465383,118.64334749505346
648,1534.147,2.341928668260124,118.65807133173988
649,1536.541,1.3273146742819932,118.672685325718
650,1538.935,1.312810242490059,118.68718975750994
651,1541.327,2.2984150895067046,118.7015849104933
652,1543.719,0.2841289290954734,118.71587107090453
653,1546.110,2.2699514721575866,118.73004852784241
654,1548.500,0.2558824267286184,118.74411757327138
655,1550.889,4.241921497975028,118.75807850202497
656,1553.278,1.2280683881908487,118.77193161180915
657,1555.665,3.2143227967941925,118.78567720320581
658,1558.052,3.200684420323938,118.79931557967606
659,1560.437,1.1871529524362927,118.81284704756371
660,1562.822,1.1737280839013806,118.82627191609862
661,1565.206,2.1604095025998333,118.83959049740017
662,1567.589,4.147196893519492,118.85280310648051
663,1569.971,1.1340899387518704,118.86591006124813
664,1572.352,2.1210883174888693,118.87891168251113
665,1574.732,0.10819170601926942,118.89180829398073
666,1577.112,0.09539977772546138,118.90460022227454
667,1579.490,0.08271220307995009,118.91728779692005
668,1581.868,3.070128649641987,118.92987135035801
669,1584.245,1.0576487820542013,118.9423512179458
670,1586.620,2.045272262039134,118.95472773796087
671,1588.995,2.032998748395869,118.96700125160413
672,1591.370,3.020827896996721,118.97917210300328
673,1593.743,2.0087593607836993,118.9912406392163
674,1596.115,3.996792789765152,119.00320721023485
675,1598.486,0.9849278310124703,119.01507216898753
676,1600.857,1.9731641286565207,119.02683587134348
677,1603.227,2.9615013238844057,119.0384986761156
678,1605.596,2.949939054935925,119.05006094506408
679,1607.963,0.0,119.0615230428997
680,1610.330,0.0,119.07288533728729
681,1612.697,2.915851801150893,119.0841481988491
682,1615.062,0.9046879988317755,119.09531200116822
683,1617.426,2.8936228792080243,119.10637712079198
684,1619.790,1.8826560627647382,119.11734393723526
685,1622.152,0.8717871670159667,119.12821283298403
686,1624.514,3.861015806501314,119.13898419349869
687,1626.875,2.8503415927826268,119.14965840721737
688,1629.235,0.839764134440486,119.16023586555951
689,1631.594,0.8292830370708799,119.17071696292912
690,1633.952,0.8188979032817798,119.18110209671822
691,1636.310,0.8086083326897722,119.19139166731023
692,1638.666,2.798413921916577,119.20158607808342
693,1641.022,2.7883142645857646,119.21168573541424
694,1643.377,0.0,119.22169104868071
695,1645.731,1.768397569734077,119.23160243026592
696,1648.084,0.0,119.24142029556131
697,1650.436,0.7488549370298614,119.25114506297014
698,1652.787,0.0,119.26077715391085
699,1655.137,2.7296830071794886,119.27031699282051
700,1657.487,1.7202349928418528,119.27976500715815
701,1659.835,2.7108783725918215,119.28912162740818
702,1662.183,1.701612712916159,119.29838728708384
703,1664.530,0.0,119.30756242273056
704,1666.876,1.6833525260707205,119.31664747392928
705,1669.221,3.674357116699994,119.3256428833
706,1671.565,0.6654509034949143,119.33454909650509
707,1673.909,2.656633437747317,119.34336656225268
708,1676.251,1.6479042676999143,119.35209573230009
709,1678.593,3.6392629385427995,119.3607370614572
710,1680.934,0.0,119.36929100758988
711,1683.274,0.0,119.37775803162336
712,1685.613,4.613861402454319,119.38613859754568
713,1687.951,4.605566827588973,119.39443317241103
714,1690.288,0.5973577736569098,119.40264222634309
715,1692.625,0.5892337674613799,119.41076623253862
716,1694.960,1.581194332729325,119.41880566727068
717,1697.295,3.573238990107882,119.42676100989212
718,1699.629,0.5653672571610855,119.43463274283891
719,1701.962,0.5575786483663592,119.44242135163364
720,1704.294,2.5498726751112173,119.45012732488878
721,1706.625,3.542248845689784,119.45775115431022
722,1708.956,0.0,119.46529333470055
723,1711.285,0.5272456360374349,119.47275436396257
724,1713.614,1.5198652568974609,119.48013474310254
725,1715.942,0.0,119.48743497623379
726,1718.269,3.505344429420134,119.49465557057987
727,1720.595,1.4982029635218623,119.50179703647814
728,1722.920,3.491140112616904,119.5088598873831
729,1725.244,3.484155360130245,119.51584463986975
730,1727.568,0.4772481863628997,119.5227518136371
731,1729.890,2.47041806848857,119.52958193151143
732,1732.212,2.46366448055025,119.53633551944975
733,1734.533,0.4569868934567438,119.54301310654326
734,1736.853,2.450384774979355,119.54961522502064
735,1739.172,2.4438575897484895,119.55614241025151
736,1741.491,3.4374047992501744,119.56259520074983
737,1743.808,1.4310258618227465,119.56897413817725
738,1746.125,0.0,119.57527976734659
739,1748.440,0.0,119.58151263622516
740,1750.755,3.4123267040617975,119.5876732959382
741,1753.069,0.4062376992277592,119.59376230077224
742,1755.383,2.4002197918214137,119.59978020817859
743,1757.695,2.3942724212234197,119.60572757877658
744,1760.006,1.3883950236428575,119.61160497635714
745,1762.317,3.3825870321139604,119.61741296788604
746,1764.627,3.37684787649259,119.62315212350741
747,1766.936,2.3711769834529406,119.62882301654706
748,1769.244,4.365573776484098,119.6344262235159
749,1771.551,1.3600376758866304,119.63996232411337
750,1773.857,0.0,119.64543190123075
751,1776.163,1.3491644590452978,119.6508355409547
752,1778.467,1.3438261674294836,119.65617383257052
753,1780.771,2.3385526314343963,119.6614473685656
754,1783.074,3.333343255367126,119.66665674463287
755,1785.376,3.3281974403259085,119.67180255967409
756,1787.677,0.32311458419661676,119.67688541580338
757,1789.978,0.31809408164949105,119.68190591835051
758,1792.277,3.313135324135729,119.68686467586427
759,1794.576,0.30823769988393224,119.69176230011607
760,1796.874,0.303400593896896,119.6965994061031
761,1799.171,1.2986233879481546,119.70137661205185
762,1801.467,1.2939054605785003,119.7060945394215
763,1803.762,2.2892461870926866,119.71075381290731
764,1806.057,2.284644939556003,119.715355060444
765,1808.350,2.280101086790836,119.71989891320916
766,1810.643,1.2756139943733018,119.7243860056267
767,1812.935,2.2711830246298916,119.72881697537011
768,1815.226,2.2668075366339906,119.73319246336601
769,1817.516,0.262486886202538,119.73751311379746
770,1819.805,0.2582204258925884,119.74177957410741
771,1822.094,0.0,119.74599249500204
772,1824.381,3.24984746954577,119.75015253045423
773,1826.668,0.24573966229316113,119.75426033770684
774,1828.954,2.2416834227237246,119.75831657727628
775,1831.239,0.23767808704427296,119.76232191295573
776,1833.524,0.23372298818129877,119.7662770118187
777,1835.807,1.2298174557777344,119.77018254422227
778,1838.090,0.22596081618937092,119.77403918381063
779,1840.371,1.2221523924815898,119.77784760751841
780,1842.652,0.0,119.78160849557405
781,1844.932,1.2146774684967596,119.78532253150324
782,1847.212,2.211009597867644,119.78899040213236
783,1849.490,0.0,119.79261279759174
784,1851.768,2.203809588680741,119.79619041131926
785,1854.044,0.0,119.7997239400635
786,1856.320,2.1967859161125887,119.80321408388741
787,1858.595,1.1933384538285168,119.80666154617148
788,1860.869,2.1899329663827274,119.81006703361727
789,1863.143,0.0,119.81343125625074
790,1865.415,3.183245072574323,119.81675492742568
791,1867.687,2.1799612361728435,119.82003876382716
792,1869.958,3.176716514525225,119.82328348547478
793,1872.228,3.1735101842737663,119.82648981572623
794,1874.497,0.17034151871941106,119.82965848128059
795,1876.765,4.167209787818223,119.83279021218178
796,1879.033,0.16411425817813097,119.83588574182187
797,1881.299,0.16105419305537794,119.83894580694462
798,1883.565,1.1580288523512081,119.84197114764879
799,1885.830,0.0,119.8449625073915
800,1888.094,0.0,119.8479206329917
801,1890.357,1.1491537253664177,119.85084627463358
802,1892.620,3.1462598141301044,119.8537401858699
803,1894.881,2.143396876374595,119.8566031236254
804,1897.142,3.1405641517997083,119.85943584820029
805,1899.402,2.137760876726503,119.8622391232735
806,1901.661,1.1349862840937988,119.8650137159062
807,1903.920,1.1322396034548348,119.86776039654517
808,1906.177,2.1295200609738885,119.87047993902611
809,1908.434,1.1268268794228078,119.87317312057719
810,1910.690,1.1241592781776575,119.87584072182234
811,1912.944,0.0,119.87848352678466
812,1915.199,1.1188976771101409,119.88110232288986
813,1917.452,3.116302099030392,119.88369790096961
814,1919.704,1.1137289447350298,119.88627105526497
815,1921.956,4.1111774165702,119.8888225834298
816,1924.207,3.1086467134659017,119.8913532865341
817,1926.457,2.106136030932504,119.8938639690675
818,1928.706,0.10364456105750719,119.89635543894249
819,1930.954,4.101171492501891,119.89882850749811
820,1933.202,4.098716010496986,119.90128398950301
821,1935.449,0.09627729684089559,119.9037227031591
822,1937.694,0.09385452989519649,119.9061454701048
823,1939.939,4.091446884581458,119.90855311541854
824,1942.184,4.089053532377918,119.91094646762208
825,1944.427,4.08667364131604,119.91332635868396
826,1946.670,2.084306375977121,119.91569362402288
827,1948.911,2.0819508974889516,119.91804910251105
828,1951.152,1.0796063635222595,119.92039363647774
829,1953.392,3.07727192828753,119.92272807171247
830,1955.632,0.07494674253145206,119.92505325746855
831,1957.870,0.0,119.92737004646644
832,1960.108,3.0703207051028443,119.92967929489716
833,1962.344,3.068018137574356,119.93198186242564
834,1964.580,3.0657213878057945,119.9342786121942
835,1966.815,1.0634295891741203,119.93657041082588
836,1969.050,3.061141871572147,119.93885812842785
837,1971.283,1.058857361405174,119.94114263859483
838,1973.516,4.056575181587547,119.94342481841245
839,1975.748,2.054294451539249,119.94570554846075
840,1977.979,4.052014287182573,119.94798571281743
841,1980.209,1.049733800938668,119.95026619906133
842,1982.438,2.047452101724147,119.95254789827585
843,1984.667,3.0451682949477004,119.9548317050523
844,1986.895,2.0428814825067008,119.9571185174933
845,1989.122,0.040590762783779155,119.95940923721622
846,1991.348,4.038295230643442,119.96170476935656
847,1993.573,1.035993977428717,119.96400602257128
848,1995.798,4.033686090957673,119.96631390904233
849,1998.021,0.0,119.96862934447995
850,2000.244,1.0290467518739348,119.97095324812607
851,2002.466,3.026713457242238,119.97328654275776
852,2004.687,3.0243698453094083,119.97563015469059
853,2006.908,0.022014986217925525,119.97798501378207
854,2009.127,3.0196479465650725,119.98035205343493
855,2011.346,5.01726778939927,119.98273221060073
856,2013.564,4.014873574216978,119.98512642578302
857,2015.781,2.012464356959086,119.98753564304091
858,2017.997,1.0100391900075891,119.98996080999241
859,2020.213,1.0075971221822044,119.9924028778178
860,2022.428,0.005137198736917981,119.99486280126308
861,2024.641,2.0026584613566456,119.99734153864335
862,2026.855,1.0001599481538364,119.99984005184616
863,2029.067,2.9976406936650193,120.00235930633498
864,2031.278,1.995099728847407,120.0049002711526
865,2033.489,2.9925360810755848,120.00746391892442
866,2035.699,5.989948774138014,120.01005122586199
867,2037.908,1.987336828233694,120.0126631717663
868,2040.116,2.9846992599687354,120.01530074003126
869,2042.323,2.982035082352951,120.01796491764705
870,2044.530,3.979343304796487,120.02065669520351
871,2046.736,0.9766229331064693,120.02337706689353
872,2048.941,0.973872969483466,120.02612703051653
873,2051.145,1.971092412518189,120.02890758748181
874,2053.348,0.0,120.03171974281184
875,2055.551,5.96543549485412,120.03456450514588
876,2057.752,1.9625571132568211,120.03744288674318
877,2059.953,1.9596440965135002,120.0403559034865
878,2062.153,1.9566954251146171,120.04330457488538
879,2064.353,1.9537100759202701,120.04628992407973
880,2066.551,2.9506870221569557,120.04931297784304
881,2068.749,0.9476252334140867,120.05237476658591
882,2070.946,1.944523675640653,120.05547632435935
883,2073.142,2.941381311141754,120.05861868885825
884,2075.337,3.938197098575273,120.06180290142473
885,2077.532,3.9349699929484245,120.06503000705158
886,2079.725,1.9316989456143574,120.06830105438564
887,2081.918,1.9283829042688438,120.07161709573116
888,2084.110,2.9250208129467126,120.07497918705329
889,2086.302,2.921611612018637,120.07838838798136
890,2088.492,1.918154238187583,120.08184576181242
891,2090.682,0.0,120.08535237551446
892,2092.871,3.9110907002700515,120.08890929972995
893,2095.059,2.9074823912207535,120.09251760877925
894,2097.246,3.903821619336128,120.09617838066387
895,2099.432,2.90010730293001,120.09989269706999
896,2101.618,0.8963383566281777,120.10366164337182
897,2103.803,1.892513691365025,120.10748630863498
898,2105.987,2.8886322143800953,120.1113677856199
899,2108.170,4.884692829214671,120.11530717078533
900,2110.353,0.88069443570852,120.11930556429148
901,2112.534,7.8766359299962545,120.12336407000375
902,2114.715,2.87251620450418,120.12748379549582
903,2116.895,2.86833414794674,120.13166585205326
904,2119.074,0.864088645323136,120.13591135467686
905,2121.253,5.859778577914028,120.14022142208597
906,2123.430,0.8554028232780126,120.14459717672199
907,2125.607,0.8509602552482676,120.14903974475173
908,2127.783,0.0,120.15355025607077
909,2129.959,1.8418701556930728,120.15812984430693
910,2132.133,2.8372203531763773,120.16277964682362
911,2134.307,4.832499195276725,120.16750080472328
912,2136.480,0.8277055371493134,120.17229446285069
913,2138.652,1.8228382302035442,120.17716176979646
914,2140.823,4.817896122099583,120.18210387790042
915,2142.994,1.8128780567450633,120.18712194325494
916,2145.163,0.8077828742915472,120.19221712570845
917,2147.332,3.8026094111313142,120.19739058886869
918,2149.500,5.797356499893766,120.20264350010623
919,2151.668,2.7920229694421153,120.20797703055788
920,2153.834,3.786607644870088,120.21339235512991
921,2156.000,0.0,120.21889065250167
922,2158.165,1.7755268948711205,120.22447310512888
923,2160.329,0.7698591007529956,120.230140899247
924,2162.492,0.7641047751253041,120.2358952248747
925,2164.655,2.7582627241827993,120.2417372758172
926,2166.817,1.7523317503302849,120.24766824966972
927,2168.978,3.74631065217919,120.25368934782081
928,2171.138,0.7401982245441445,120.25980177545586
929,2173.298,0.7339932584396536,120.26600674156035
930,2175.456,3.727694541076616,120.27230545892338
931,2177.614,3.7213008558590275,120.27869914414097
932,2179.771,1.7148109823804134,120.28518901761959
933,2181.927,1.7082236964206885,120.29177630357931
934,2184.083,1.7015377699424619,120.29846223005754
935,2186.238,0.6947519710878964,120.3052480289121
936,2188.391,2.6878650641751136,120.31213493582489
937,2190.545,0.0,120.31912419030503
938,2192.697,0.6737829643074917,120.32621703569251
939,2194.848,0.0,120.3334147191614
940,2196.999,3.6592815082766634,120.34071849172334
941,2199.149,3.6518703917691084,120.34812960823089
942,2201.298,1.644350672618998,120.355649327381
943,2203.447,1.6367210882816465,120.36327891171835
944,2205.594,2.6289803723612835,120.37101962763872
945,2207.741,2.6211272546075435,120.37887274539246
946,2209.887,0.6131604609121553,120.38683953908784
947,2212.033,2.6050787133055167,120.39492128669448
948,2214.177,0.5968807299532415,120.40311927004676
949,2216.321,0.0,120.4114347748471
950,2218.464,1.5801309093304496,120.41986909066955
951,2220.606,3.5715764890369996,120.428423510963
952,2222.747,3.5629006669452252,120.43709933305477
953,2224.888,2.554102141846201,120.4458978581538
954,2227.028,3.5451796086458103,120.45482039135419
955,2229.167,2.536131758361435,120.46386824163856
956,2231.305,1.5269572781185303,120.47304272188147
957,2233.442,2.517654851147256,120.48234514885274
958,2235.579,3.508223156778996,120.491776843221
959,2237.715,2.498660870443146,120.50133912955685
960,2239.850,1.4889666636634615,120.51103333633654
961,2241.984,5.47913920405486,120.52086079594514
962,2244.118,2.4691771553199544,120.53082284468005
963,2246.251,0.0,120.54092082275437
964,2248.383,3.44884392569962,120.55115607430038
965,2250.514,0.4384700526272951,120.5615299473727
966,2252.645,1.4279562060479805,120.57204379395202
967,2254.774,1.4173010300518172,120.58269896994818
968,2256.903,0.4065031647961632,120.59349683520384
969,2259.031,1.3955612465023535,120.60443875349765
970,2261.159,4.3844739074521755,120.61552609254782
971,2263.285,2.3732397759845583,120.62676022401544
972,2265.411,0.0,120.63814252350785
973,2267.536,1.350325629417867,120.64967437058213
974,2269.660,1.3386428512516062,120.6613571487484
975,2271.784,0.3268077545267545,120.67319224547325
976,2273.907,0.3148189478167751,120.68518105218322
977,2276.029,2.302675035731937,120.69732496426806
978,2278.150,1.2903746189157346,120.70962538108427
979,2280.270,2.2779162940417166,120.72208370595828
980,2282.390,2.2652986538097934,120.7347013461902
981,2284.509,0.2525202869431382,120.74747971305686
982,2286.627,2.239579778184634,120.76042022181537
983,2288.744,4.226475708293435,120.77352429170656
984,2290.861,2.2132066540416986,120.7867933459583
985,2292.976,2.1997711882110593,120.80022881178894
986,2295.091,2.1861678795893056,120.8138321204107
987,2297.206,2.1723952929670247,120.82760470703298
988,2299.319,1.1584519891340648,120.84154801086594
989,2301.432,3.1443365248762802,120.85566347512372
990,2303.544,0.13004745297202192,120.86995254702798
991,2305.655,1.1155833221888116,120.88441667781119
992,2307.765,1.1009426772799316,120.89905732272007
993,2309.875,0.0,120.91387594101903
994,2311.984,0.07112600400655822,120.92887399599344
995,2314.092,2.0559470450467643,120.94405295495324
996,2316.199,3.040585710763935,120.95941428923607
997,2318.306,1.025040525789052,120.97495947421095
998,2320.411,1.0093100107185649,120.99068998928144
999,2322.516,0.0,121.00660731788916
1000,2324.621,0.9772870524827653,121.02271294751723
1001,2326.724,1.960991630306495,121.0390083696935
1002,2328.827,0.0,121.05549507999413
1003,2330.929,0.0,121.0721745780469
1004,2333.030,3.9109516324654408,121.08904836753456
1005,2335.131,0.0,121.10611795619837
1006,2337.230,0.8766151441586629,121.12338485584134
1007,2339.329,1.8591494176682346,121.14085058233177
1008,2341.427,1.8414833443935095,121.15851665560649
1009,2343.525,2.823615400325508,121.17638459967449
1010,2345.621,2.8055440573799615,121.19445594262004
1011,2347.717,2.7872677833937303,121.21273221660627
1012,2349.812,2.7687850421214364,121.23121495787856
1013,2351.907,1.7500942932321095,121.24990570676789
1014,2354.000,0.7311939923058333,121.26880600769417
1015,2356.093,1.712082590830164,121.28791740916984
1016,2358.185,0.6927585361969335,121.30724146380307
1017,2360.276,0.673220271698753,121.32677972830125
1018,2362.367,1.6534662365256452,121.34653376347435
1019,2364.457,1.633494865761591,121.36650513423841
1020,2366.546,1.6133045903812047,121.3866954096188
1021,2368.634,2.5928938372462937,121.4071061627537
1022,2370.722,0.0,121.42773897089751
1023,2372.808,5.551404584575792,121.44859541542421
