pixel_index,raman_shift_cm-1,intensity
0,-227.31574622172553,0.037215143026740616
1,-224.2405461063096,0.03799463666414768
2,-221.16656530588116,0.03729349444443311
3,-218.09380322238567,0.03571458313383854
4,-215.02225925812846,0.033860769498605614
5,-211.95193281580956,0.03233492030497595
6,-208.8828232984824,0.03312248685895976
7,-205.81493010959298,0.0362595846942614
8,-202.74825265294717,0.03988353168464429
9,-199.68279033272597,0.041088389971567524
10,-196.6185425534856,0.04282705829879583
11,-193.55550872016818,0.04592260552005461
12,-190.49368823806063,0.045169599197817906
13,-187.4330805128337,0.04335127324649746
14,-184.37368495054403,0.04016802312779358
15,-181.3155009576018,0.035251656426108426
16,-178.25852794079236,0.03355855495534117
17,-175.20276530728256,0.03238854294345287
18,-172.14821246458195,0.030016112331444033
19,-169.0948688206034,0.02842671251731995
20,-166.0427337836154,0.0289740636007437
21,-162.9918067622485,0.03019256854155022
22,-159.94208716551498,0.031428853373784496
23,-156.89357440278485,0.029614533657019573
24,-153.84626788381195,0.028547218342311338
25,-150.80016701869704,0.029078853411302424
26,-147.75527121792905,0.028556190333136066
27,-144.71157989235468,0.027809515541284052
28,-141.66909245318928,0.028842326640498638
29,-138.62780831202116,0.030936270886480554
30,-135.5877268807942,0.030835249113898167
31,-132.5488475718297,0.032470434956435756
32,-129.5111697978109,0.03415963707770459
33,-126.47469297177904,0.03466467936869631
34,-123.43941650716766,0.03368234475464916
35,-120.40533981774,0.03215482495552436
36,-117.3724623176474,0.030125451215612487
37,-114.34078342140555,0.02944971488095571
38,-111.3103025438835,0.029221548264575778
39,-108.2810191003255,0.028430197009974515
40,-105.25293250632706,0.027743501270117675
41,-102.22604217786534,0.029832784991606135
42,-99.20034753126876,0.031795715848008846
43,-96.17584798322356,0.03427847434494627
44,-93.15254295079977,0.03636416242706839
45,-90.13043185141,0.03522986479058284
46,-87.10951410283553,0.03364076168991703
47,-84.08978912322627,0.03187843518393692
48,-81.07125633108336,0.028654169011322936
49,-78.05391514526579,0.025256701777203867
50,-75.0377649850185,0.023393518159015893
51,-72.02280526991817,0.024169252604599234
52,-69.00903541992099,0.025558772683421854
53,-65.99645485533225,0.028287675118521427
54,-62.98506299682368,0.03114305046200426
55,-59.97485926543351,0.029955496674059532
56,-56.96584308253604,0.027363847033148217
57,-53.95801386989373,0.025808391255881778
58,-50.9513710496073,0.022560069460147037
59,-47.94591404414612,0.016008884741868307
60,-44.94164227632647,0.0
61,-41.93855516934197,0.018992718513109404
62,-38.936652146726644,0.08770453448837193
63,-35.935932632381004,0.14758318883542898
64,-32.93639605055033,0.18508441776460163
65,-29.938041825861536,0.20242108762997885
66,-26.94086938328198,0.1990011871995594
67,-23.944878148128133,0.17522181251092167
68,-20.950067546080756,0.1339564378140623
69,-17.956437003184902,0.07643604143344199
70,-14.963985945826066,0.016161586864120583
71,-11.9727138007562,0.0020866780903417395
72,-8.982619995078542,0.02150093298697965
73,-5.9937039562411,0.022342657334531935
74,-3.0059651120670217,0.021953727529915642
75,-0.019402890717723498,0.021810593192769394
76,2.9659832792854233,0.02441851990789262
77,5.950193969071933,0.028199997832142634
78,8.933229749411367,0.0340033570077441
79,11.915091190730678,0.03687945860946432
80,14.895778863088186,0.03657922868307747
81,17.875293336206116,0.03289330186822067
82,20.853635179444563,0.02996943898855238
83,23.83080496181668,0.027829306872120922
84,26.806803251975662,0.02557405261577254
85,29.78163061823861,0.022676640957851477
86,32.755287628549645,0.024075396267814804
87,35.72777485052981,0.02588970371570399
88,38.69909285142284,0.026397657173981067
89,41.669242198142875,0.02540433005573122
90,44.63822345723107,0.022779773539481737
91,47.60603719490769,0.023577827725299507
92,50.572683977024354,0.026834661116546945
93,53.538164369087895,0.02701633287245725
94,56.50247893625388,0.027519747478451657
95,59.465628243326584,0.028622872209868346
96,62.427612854776356,0.029459341999982253
97,65.3884333347136,0.029852278951840543
98,68.34809024690607,0.027697128666185292
99,71.30658415476161,0.028618091723710142
100,74.26391562135628,0.030405927006081596
101,77.22008520941702,0.03399198971681875
102,80.17509348131301,0.03436938084854184
103,83.1289409990838,0.03590245219807074
104,86.0816283244025,0.03711115825650117
105,89.0331560186126,0.03539639034414759
106,91.98352464270853,0.03348361406709122
107,94.93273475732903,0.03010576664318667
108,97.88078692278113,0.028028022204958494
109,100.82768169902486,0.0294235343316735
110,103.77341964566038,0.03153074929377539
111,106.71800132197119,0.03303567553365045
112,109.66142728687433,0.03440760259241668
113,112.60369809895512,0.03852361051093067
114,115.54481431644108,0.03785349253679385
115,118.48477649722793,0.03601796402535417
116,121.4235851988688,0.033515193251899195
117,124.36124097857208,0.03017913032394938
118,127.29774439320784,0.028305664065182742
119,130.23309599928837,0.027346097052142665
120,133.1672963530029,0.027257115115678635
121,136.1003460101872,0.028428589722881908
122,139.03224552634305,0.02942740239773247
123,141.96299545662538,0.029712075179250563
124,144.8925963558551,0.030401675259590984
125,147.82104877849537,0.03045656096297038
126,150.74835327869712,0.02972151136823749
127,153.67451041025348,0.028604446906782377
128,156.59952072660843,0.02727864567798099
129,159.5233847808894,0.028032775933632483
130,162.4461031258747,0.02635810006782697
131,165.36767631399573,0.027301235220105642
132,168.28810489735204,0.02755914387430922
133,171.2073894277093,0.0283555791283149
134,174.12553045648843,0.030484718180705958
135,177.04252853476984,0.03224992032149176
136,179.95838421330876,0.029373479909375128
137,182.8730980425069,0.029143749728048236
138,185.78667057244292,0.03079543814435014
139,188.69910235284848,0.03174387347093966
140,191.61039393312575,0.03150533465428094
141,194.52054586233635,0.03324208031217044
142,197.42955868921018,0.03178476381592532
143,200.3374329621302,0.0318370628094544
144,203.24416922916063,0.03092982146888755
145,206.14976803800784,0.031228971017677108
146,209.05422993607687,0.029077704679359866
147,211.9575554704019,0.032038725537886524
148,214.85974518770274,0.03448784158556939
149,217.76079963435873,0.03603879797873497
150,220.66071935642827,0.03990078121603435
151,223.55950489960554,0.04106688874329166
152,226.4571568092919,0.03925916196083222
153,229.3536756305223,0.03983466633677653
154,232.24906190800857,0.03946148388617184
155,235.14331618613517,0.04005646343344535
156,238.03643900895253,0.03865950461050086
157,240.92843092017503,0.03775781731049468
158,243.81929246318967,0.03708427222041725
159,246.70902418104941,0.035776109616304154
160,249.5976266164669,0.03727715766353218
161,252.48510031184455,0.03782953201958041
162,255.37144580922927,0.03712639445222215
163,258.25666365036005,0.038181997126537914
164,261.1407543766332,0.04012636027354442
165,264.02371852911114,0.043035292871927096
166,266.90555664853974,0.041031910195524116
167,269.78626927532224,0.04202907260757407
168,272.6658569495366,0.0424096807339087
169,275.54432021093976,0.04362851785005822
170,278.42165959894623,0.04524517969110123
171,281.2978756526474,0.046884239795828855
172,284.1729689108136,0.047072867848406905
173,287.0469399118771,0.048078070121950145
174,289.91978919394245,0.047481227393556105
175,292.79151729479787,0.04846986546970016
176,295.66212475189104,0.04472308374215289
177,298.5316121023509,0.04379636383830633
178,301.3999798829789,0.04294258716751775
179,304.26722863023844,0.04391615660618064
180,307.13335888028035,0.03925544897267293
181,309.9983711689347,0.03811151306576087
182,312.862266031676,0.038802144971325975
183,315.72504400368587,0.03418700076415701
184,318.5867056198035,0.0343051598062214
185,321.4472514145514,0.03744914887301158
186,324.3066819221246,0.03727640758157781
187,327.16499767637555,0.03807186495340978
188,330.0221992108706,0.037875355958522
189,332.87828705881594,0.03683127610169852
190,335.73326175311433,0.03358231037604169
191,338.58712382633246,0.03397285618013284
192,341.4398738107245,0.03283717403791746
193,344.2915122382219,0.028702432617776778
194,347.1420396404155,0.031188964634767436
195,349.99145654859234,0.033990308106801766
196,352.8397634937146,0.03238112885457319
197,355.6869610064125,0.032375488415603726
198,358.53304961700826,0.030998844774466235
199,361.37802985549035,0.028828778706126927
200,364.221902251524,0.027168457009871326
201,367.06466733447314,0.02538615026590518
202,369.90632563335896,0.023362732104714366
203,372.7468776768927,0.023401306218189123
204,375.58632399345817,0.024429737590009066
205,378.42466511113116,0.027891978170068266
206,381.2619015576579,0.027889482061142962
207,384.0980338604659,0.03038216217391313
208,386.9330625466639,0.03157964299381394
209,389.7669881430398,0.03303778262120723
210,392.59981117607987,0.03343175413738429
211,395.43153217192145,0.03124179701514359
212,398.26215165640264,0.02905619518499718
213,401.0916701550362,0.02871237730675609
214,403.9200881930335,0.0265896320400799
215,406.7474062952633,0.02906661817741378
216,409.57362498628873,0.0290571386139667
217,412.39874479036916,0.029311921736637755
218,415.2227662314171,0.029877895081350914
219,418.04568983304586,0.030646761268366633
220,420.86751611856727,0.031214212646421165
221,423.6882456109506,0.029367391184321225
222,426.50787883285506,0.02801224997160709
223,429.3264163066383,0.02836170790821306
224,432.1438585543221,0.026300499610543194
225,434.960206097631,0.026348194840307034
226,437.77545945796436,0.02606451289696998
227,440.5896191564114,0.024373708037447085
228,443.4026857137469,0.02264392387380933
229,446.21465965042273,0.019048559364453103
230,449.02554148658913,0.017352718992541386
231,451.83533174207116,0.015513208796487928
232,454.64403093639464,0.017201276291627033
233,457.45163958875804,0.01906334067650127
234,460.25815821804747,0.018132078377825853
235,463.0635873428498,0.01841445574392556
236,465.8679274814246,0.021928394701440708
237,468.6711791517277,0.024555019569644735
238,471.4733428713941,0.02466266259712583
239,474.2744191577595,0.024879315497605393
240,477.07440852783446,0.026468434964803524
241,479.87331149833017,0.024470042943985342
242,482.67112858564565,0.02498122663337211
243,485.46786030584593,0.03546721807436086
244,488.2635071747207,0.05506886386081486
245,491.0580697077256,0.07162447337396025
246,493.85154842001947,0.1068294291887742
247,496.64394382643775,0.22323935607409678
248,499.4352564415081,0.45506148384616774
249,502.2254867794633,0.7181025577453577
250,505.0146353542152,0.9148813512905554
251,507.8027026793677,1.0
252,510.5896892682103,0.9770864322457582
253,513.3755956337354,0.8618183589110983
254,516.1604222886189,0.6602712075861457
255,518.944169745233,0.3998909009282176
256,521.7268385156399,0.1578205923021187
257,524.5084291115982,0.023116042109695676
258,527.2889420445542,0.008823357913926166
259,530.0683778256422,0.03012477530261383
260,532.8467369656968,0.039496209704393694
261,535.624019975256,0.0367102364397832
262,538.4002273645278,0.033874393936227536
263,541.1753596434302,0.03232433590986178
264,543.9494173215703,0.027890647639355347
265,546.7224009082522,0.028648630487900652
266,549.4943109124722,0.028013859348982803
267,552.2651478429225,0.026083798691473165
268,555.0349122079856,0.02511101187649393
269,557.803604515749,0.026557498320634355
270,560.5712252739836,0.02504453306130398
271,563.3377749901633,0.02375602867567933
272,566.1032541714583,0.022110791912704566
273,568.8676633247287,0.020751379135488513
274,571.6310029565399,0.02059830751848605
275,574.3932735731471,0.024821050034297163
276,577.1544756805018,0.02545981673568867
277,579.9146097842608,0.024052414376982266
278,582.6736763897685,0.024122084203661198
279,585.4316760020703,0.020485034644631667
280,588.1886091259055,0.019332208913517477
281,590.944476265723,0.019862210848531195
282,593.6992779256617,0.020176240467724774
283,596.4530146095525,0.02159912143974191
284,599.2056868209359,0.02369405552283994
285,601.9572950630505,0.026179469337761066
286,604.7078398388212,0.024839019276832984
287,607.457321650884,0.024481064034812827
288,610.2057410015777,0.025314973987808416
289,612.9530983929382,0.02234828107857817
290,615.6993943266863,0.022771865364788178
291,618.4446293042569,0.023600352552784795
292,621.1888038267941,0.02381936331969001
293,623.9319183951172,0.024165310577038072
294,626.6739735097718,0.02464541127364181
295,629.4149696709893,0.02383014973398122
296,632.1549073787063,0.020459674671276244
297,634.8937871325662,0.018768373556136624
298,637.6316094319009,0.017471125906232496
299,640.3683747757639,0.016871158833248634
300,643.1040836628906,0.01589633480142634
301,645.83873659173,0.017203523259616518
302,648.572334060436,0.0189228029597438
303,651.3048765668635,0.02244397511817283
304,654.036364608557,0.02810636558819648
305,656.7667986827862,0.02899343954545655
306,659.49617928651,0.027242243519715045
307,662.2245069163951,0.02652402342257309
308,664.9517820688086,0.023976140674171555
309,667.6780052398382,0.023948498776259455
310,670.4031769252483,0.02175185937569217
311,673.1272976205302,0.022443662612631317
312,675.8503678208735,0.020876215233101195
313,678.5723880211691,0.01968472725215477
314,681.2933587160169,0.02152967784035394
315,684.0132803997241,0.016696874337167728
316,686.7321535662966,0.0158174129802663
317,689.449978709465,0.015664057115331233
318,692.1667563226345,0.014673725185565778
319,694.8824868989412,0.017449012248795488
320,697.5971709312248,0.02035115519503439
321,700.3108089120273,0.0233440520706191
322,703.0234013335958,0.022272726773958446
323,705.7349486878982,0.021382396113154088
324,708.4454514665896,0.021568307386383725
325,711.1549101610372,0.020790874688787223
326,713.8633252623365,0.02067815112950863
327,716.5706972612671,0.018807903408368572
328,719.2770266483328,0.019118508411676224
329,721.9823139137361,0.018942260919957217
330,724.6865595473911,0.01961842353571739
331,727.3897640389278,0.020222863512137482
332,730.091927877677,0.019181669527964254
333,732.7930515526812,0.020021692005597426
334,735.4931355526921,0.01994526997496031
335,738.1921803661777,0.023811299906845704
336,740.8901864813018,0.025230289294494904
337,743.5871543859537,0.026382602947106953
338,746.2830845677333,0.0272501881825553
339,748.9779775139444,0.027179653269283583
340,751.6718337115908,0.026113236822848114
341,754.3646536474143,0.025202487563814595
342,757.0564378078467,0.021512568996933993
343,759.7471866790354,0.01954860921361352
344,762.4369007468482,0.01683783646667648
345,765.125580496869,0.020939338102077654
346,767.8132264143673,0.023283253475703463
347,770.4998389843499,0.023180092003985152
348,773.1854186915333,0.023409458670366652
349,775.8699660203347,0.022895605623080646
350,778.5534814549089,0.02289115820454924
351,781.2359654790898,0.02421916592275683
352,783.917418576449,0.023641562238107615
353,786.5978412302717,0.023779117353040568
354,789.2772339235482,0.022956843162448243
355,791.9555971389893,0.021900322374812726
356,794.6329313590107,0.021797202454172503
357,797.3092370657572,0.018940132323512892
358,799.9845147410763,0.019444246907351
359,802.658764866538,0.019259256434970045
360,805.3319879234265,0.020273125259256952
361,808.0041843927348,0.021886609771505285
362,810.6753547551851,0.023143088148946507
363,813.3454994911963,0.023667129396124115
364,816.014619080931,0.02279090216053865
365,818.6827140042396,0.02204138269202309
366,821.3497847407019,0.025627688768146365
367,824.0158317696154,0.02665855431223594
368,826.6808555700022,0.029682425906379723
369,829.3448566205832,0.02841810734831633
370,832.0078353998144,0.02686895319797557
371,834.6697923858533,0.025742496727451512
372,837.3307280565875,0.02581124906488666
373,839.9906428896214,0.024977866000366212
374,842.6495373622706,0.023253173785430768
375,845.3074119515796,0.023470925556920142
376,847.9642671343048,0.026916235533622383
377,850.6201033869204,0.026152745612990788
378,853.2749211856233,0.02700680022126482
379,855.9287210063281,0.02628726122756869
380,858.5815033246681,0.025434467731864932
381,861.2332686159965,0.02612701097603277
382,863.8840173553998,0.02645887044152963
383,866.533750017663,0.023621555378849943
384,869.1824670772983,0.022203221060556062
385,871.8301690085464,0.022247182672436507
386,874.4768562853685,0.02327332266715632
387,877.122529381433,0.024862891474692197
388,879.7671887701437,0.027167500713284568
389,882.4108349246226,0.029605956174659973
390,885.0534683177099,0.03139852020147562
391,887.6950894219659,0.03267153525134694
392,890.3356987096929,0.031944946771273
393,892.9752966528788,0.029160993296151044
394,895.6138837232621,0.02782847571999272
395,898.2514603922973,0.025359106052482136
396,900.8880271311635,0.026387968042492143
397,903.5235844107623,0.030434944167181163
398,906.1581327017088,0.03158704611048358
399,908.7916724743496,0.033400003232976205
400,911.4242041987665,0.034700600883183816
401,914.0557283447444,0.03399434501048669
402,916.6862453818034,0.03563474867076742
403,919.3157557791818,0.037549736872202796
404,921.9442600058559,0.041981042335435405
405,924.5717585305152,0.04704430388463037
406,927.1982518215764,0.05650101411900954
407,929.8237403471783,0.06385699392625584
408,932.4482245751933,0.07037208843116231
409,935.071704973214,0.07523407111043146
410,937.6941820085508,0.0775260288984197
411,940.3156561482631,0.07848975752895661
412,942.9361278591127,0.0821827598643161
413,945.5555976075996,0.08458001537447227
414,948.1740658599476,0.08791242718222665
415,950.7915330821105,0.08850152333682362
416,953.4079997397591,0.086567503294755
417,956.0234662983092,0.08710282910439271
418,958.6379332228836,0.08753726227599794
419,961.2514009783488,0.0874628830011856
420,963.8638700292922,0.08386543744748765
421,966.4753408400298,0.08329685624682802
422,969.0858138746003,0.08343959259763814
423,971.6952895967839,0.08392182552449796
424,974.3037684700772,0.08038642551396243
425,976.9112509577164,0.0755444099154321
426,979.5177375226515,0.06998779598015147
427,982.1232286275853,0.06910974259980916
428,984.7277247349169,0.06633304351634044
429,987.3312263068051,0.06121368017468313
430,989.9337338051283,0.055271409251340095
431,992.5352476914902,0.05069381540142685
432,995.135768427234,0.04570844390940896
433,997.7352964734166,0.041975836829232865
434,1000.333832290839,0.034821195193951736
435,1002.9313763400423,0.033471371496775176
436,1005.5279290812789,0.03163073024911678
437,1008.1234909745389,0.03327374720944377
438,1010.7180624795523,0.03331770689622863
439,1013.3116440557646,0.03518477330153655
440,1015.9042361623642,0.03658627879766428
441,1018.4958392582761,0.03503140243298225
442,1021.0864538021439,0.03458486702877643
443,1023.6760802523554,0.03393267283222045
444,1026.2647190670293,0.03305315747095034
445,1028.8523707040067,0.033967851186134816
446,1031.4390356208733,0.03277085974411092
447,1034.024714274941,0.03180138292484149
448,1036.609407123264,0.02768056912746238
449,1039.1931146226143,0.026714877289071324
450,1041.775837229517,0.023669977029677755
451,1044.3575754002177,0.021957202800253806
452,1046.938329590701,0.022861669194435386
453,1049.518100256679,0.02430408179039938
454,1052.096887853612,0.026013696520417524
455,1054.6746928366872,0.030185317999799118
456,1057.251515660827,0.033894939697789304
457,1059.8273567806807,0.03502716842101979
458,1062.4022166506527,0.0329286127615221
459,1064.9760957248634,0.036544554707957665
460,1067.5489944571834,0.03852527375098604
461,1070.1209133012062,0.03869027291370316
462,1072.691852710267,0.03844740283743496
463,1075.2618131374497,0.03789412739684563
464,1077.830795035554,0.03538433798869579
465,1080.3987988571257,0.03621733692501411
466,1082.9658250544526,0.03361737482489025
467,1085.5318740795522,0.03109325308101952
468,1088.0969463841825,0.027594493484896558
469,1090.6610424198343,0.028969100291565984
470,1093.2241626377413,0.02606602251199942
471,1095.7863074888794,0.025325284894898544
472,1098.3474774239476,0.02554118439487725
473,1100.907672893399,0.02614696690172122
474,1103.4668943474182,0.024521856068371227
475,1106.0251422359254,0.02530454610458916
476,1108.5824170085868,0.023423151535704942
477,1111.1387191148044,0.023563295046030854
478,1113.6940490037089,0.024364048777269217
479,1116.2484071241945,0.02450419357277124
480,1118.801793924878,0.0241245120631475
481,1121.3542098541077,0.02570137985086054
482,1123.9056553599974,0.025668231877003723
483,1126.4561308903742,0.02542569925100353
484,1129.0056368928274,0.02410379799056515
485,1131.554173814677,0.023897333032956807
486,1134.1017421029787,0.02216747876517695
487,1136.648342204543,0.02381645084434206
488,1139.1939745659029,0.025884144279068867
489,1141.7386396333466,0.02774243716950247
490,1144.2823378529079,0.028066500609010798
491,1146.8250696703483,0.029155826154769086
492,1149.3668355311747,0.028909460525452485
493,1151.9076358806412,0.02740320865166098
494,1154.4474711637477,0.027579120933189694
495,1156.9863418252248,0.026957206628994715
496,1159.5242483095526,0.026631257129206092
497,1162.0611910609584,0.027575937766112994
498,1164.5971705233978,0.02787800914265163
499,1167.1321871405864,0.027808209835956648
500,1169.666241355974,0.02824734831293195
501,1172.1993336127543,0.030166480076722485
502,1174.731464353867,0.02699561938552626
503,1177.2626340219986,0.02729379147890554
504,1179.7928430595643,0.027100954552246072
505,1182.3220919087514,0.026301590002295174
506,1184.8503810114635,0.028473087428261212
507,1187.3777108093743,0.030399040536775834
508,1189.9040817438777,0.0319639307649097
509,1192.429494256131,0.03403051729472125
510,1194.953948787023,0.03478302767351281
511,1197.4774457772014,0.033044638386491604
512,1199.99998566705,0.029028330089802858
513,1202.5215688967048,0.02930047388624209
514,1205.0421959060438,0.027179177887655077
515,1207.5618671346833,0.025202186109289624
516,1210.0805830220045,0.02677722388397886
517,1212.5983440071288,0.02984665683400673
518,1215.115150528911,0.03197020321743322
519,1217.6310030259694,0.033530508191991486
520,1220.1459019366537,0.03178766992714821
521,1222.6598476990807,0.02830115479160702
522,1225.1728407510973,0.02656893522661968
523,1227.6848815303067,0.02609645538175633
524,1230.1959704740568,0.025746600615909655
525,1232.706108019446,0.024353377255067758
526,1235.2152946033204,0.028212415517442142
527,1237.723530662278,0.030908954889278185
528,1240.2308166326493,0.031147046027046706
529,1242.7371529505306,0.030511424582295603
530,1245.2425400517668,0.02973489432241379
531,1247.7469783719387,0.02769117035184325
532,1250.2504683463922,0.02938715548616104
533,1252.7530104102132,0.031880794752994504
534,1255.2546049982363,0.031269804868188956
535,1257.7552525450487,0.030831955727926266
536,1260.254953484993,0.03166825904405804
537,1262.7537082521571,0.03155863609006042
538,1265.251517280372,0.028799221127278014
539,1267.7483810032272,0.026285136734254033
540,1270.2442998540675,0.024131897190466572
541,1272.7392742659842,0.02284488393093818
542,1275.2333046718145,0.024503386490584693
543,1277.7263915041528,0.025566109815265234
544,1280.2185351953442,0.025654014559035453
545,1282.7097361774847,0.027294015538324504
546,1285.1999948824164,0.027428541789922982
547,1287.6893117417512,0.028645876137246618
548,1290.1776871868349,0.02866818192878563
549,1292.6651216487653,0.029257079286899253
550,1295.1516155584115,0.02995050169822128
551,1297.637169346377,0.029773779573455887
552,1300.121783443023,0.028708861785014417
553,1302.605458278472,0.029455937559798716
554,1305.0881942825863,0.030376119265500982
555,1307.5699918849896,0.029104933219320214
556,1310.0508515150673,0.027100769656964403
557,1312.5307736019336,0.02853664928787452
558,1315.0097585744877,0.031246641928478928
559,1317.4878068613607,0.03291320241239119
560,1319.9649188909445,0.03560118103569972
561,1322.4410950913928,0.03748036658968649
562,1324.9163358906012,0.03683967395252055
563,1327.3906417162286,0.03909031308912455
564,1329.8640129956875,0.03986432654750743
565,1332.3364501561466,0.03850832436671734
566,1334.8079536245239,0.038188170623784795
567,1337.2785238275003,0.037864218131381244
568,1339.7481611915146,0.037226015666085306
569,1342.2168661427488,0.03503537262258458
570,1344.6846391071517,0.03506100325892685
571,1347.1514805104287,0.034313924753032264
572,1349.6173907780358,0.03149457857365498
573,1352.0823703351884,0.0318697796138036
574,1354.5464196068613,0.032876511050925504
575,1357.0095390177862,0.035348654032231655
576,1359.471728992448,0.03614922070120163
577,1361.9329899550821,0.03486668331858649
578,1364.3933223296979,0.03607114984228387
579,1366.8527265400603,0.033965150222595365
580,1369.311203009674,0.033718032685238326
581,1371.7687521618243,0.03214227112515431
582,1374.2253744195389,0.02895990348203661
583,1376.6810702056155,0.027585875901683016
584,1379.1358399425956,0.028038236593934247
585,1381.5896840527914,0.02819798427648858
586,1384.0426029582804,0.026646434584141
587,1386.4945970808847,0.027015126586747568
588,1388.945666842183,0.028748137495153692
589,1391.3958126635268,0.028448568247273064
590,1393.845034966027,0.031672024499063214
591,1396.2933341705443,0.03322027663998932
592,1398.7407106977041,0.03208255695299357
593,1401.1871649678947,0.031720740207815463
594,1403.6326974012532,0.03212038585812311
595,1406.0773084176976,0.033552233968252375
596,1408.5209984368921,0.03467701772616747
597,1410.9637678782603,0.03664989805833517
598,1413.4056171609984,0.03725440712216427
599,1415.8465467040462,0.03694899886000639
600,1418.286556926125,0.03867933519093925
601,1420.7256482457083,0.03757929572393291
602,1423.1638210810186,0.03389796136013361
603,1425.6010758500613,0.030025072408425904
604,1428.0374129706013,0.030595715132362065
605,1430.4728328601432,0.035570180011697296
606,1432.9073359359875,0.037382155809494326
607,1435.3409226151707,0.038619926356247045
608,1437.7735933145054,0.036088746253905186
609,1440.2053484505595,0.034272086855462236
610,1442.636188439669,0.03303999170600296
611,1445.0661136979331,0.03134920449366537
612,1447.4951246412127,0.029383828439816316
613,1449.923221685126,0.026768435239838746
614,1452.3504052450721,0.027665216933130603
615,1454.7766757361985,0.030482215378121978
616,1457.2020335734248,0.03074678747078178
617,1459.6264791714216,0.03130351876552063
618,1462.0500129446514,0.03031858915231102
619,1464.4726353073095,0.03199028956932957
620,1466.894346673379,0.032582392693527286
621,1469.3151474565939,0.03260028130993602
622,1471.73503807046,0.033383220715895244
623,1474.1540189282493,0.03201081673202093
624,1476.572090442997,0.031605615870011046
625,1478.989253027507,0.030871670404055605
626,1481.4055070943373,0.030043622139779822
627,1483.8208530558277,0.029977012420469514
628,1486.2352913240788,0.031364937965767246
629,1488.6488223109445,0.03179238803464855
630,1491.0614464280704,0.032165442357754
631,1493.473164086846,0.031296449745786346
632,1495.88397569844,0.03303354292182491
633,1498.2938816737865,0.0325503107577619
634,1500.702882423579,0.03401977529656211
635,1503.110978358284,0.03258303651818676
636,1505.518169888139,0.0315467450793902
637,1507.9244574231466,0.03064737941763215
638,1510.3298413730697,0.03183427499734091
639,1512.7343221474528,0.031125732936932462
640,1515.1379001555952,0.03256120979456224
641,1517.5405758065751,0.03323114136077585
642,1519.9423495092278,0.034806902341742885
643,1522.3432216721696,0.03387354523476597
644,1524.7431927037824,0.03249953168473343
645,1527.1422630122079,0.03124800300801543
646,1529.5404330053661,0.03319457766505712
647,1531.9377030909454,0.03564989429306882
648,1534.3340736764019,0.03706531392081548
649,1536.7295451689552,0.03748054520366832
650,1539.1241179756087,0.03791718442775442
651,1541.5177925031267,0.0372092400554063
652,1543.9105691580435,0.037064185785872124
653,1546.3024483466622,0.03469158370086856
654,1548.6934304750596,0.031109420279333992
655,1551.083515949083,0.03075784913816926
656,1553.472705174354,0.03188246824073168
657,1555.8609985562603,0.033660224848214654
658,1558.2483964999574,0.0347879520769076
659,1560.6348994103773,0.03548946269403142
660,1563.0205076922225,0.03495253365904693
661,1565.4052217499698,0.03487741907563723
662,1567.7890419878572,0.03615575973818907
663,1570.1719688099151,0.035459245655080456
664,1572.5540026199199,0.033141645399523745
665,1574.9351438214374,0.03243019278175753
666,1577.3153928178062,0.029852182628671006
667,1579.6947500121262,0.03236746566689297
668,1582.0732158072847,0.03347825654297496
669,1584.4507906059262,0.035393802719757686
670,1586.8274748104782,0.034078257673652836
671,1589.2032688231473,0.03405119269840713
672,1591.5781730458864,0.03320082784208017
673,1593.9521878804574,0.029848568882648367
674,1596.3253137283791,0.03029365846699875
675,1598.6975509909282,0.03176370848918924
676,1601.06890006919,0.03254763585463585
677,1603.4393613639959,0.036183124356302165
678,1605.8089352759632,0.036731920370427135
679,1608.1776222054834,0.03681479797154764
680,1610.545422552714,0.035493188658058616
681,1612.912336717608,0.034052210598465096
682,1615.2783650998635,0.03248103472683282
683,1617.6435080989827,0.031108160803059778
684,1620.007766114219,0.03407051298444248
685,1622.3711395446217,0.036563340388879324
686,1624.7336287889989,0.03700190594044881
687,1627.095234245945,0.03611179637561922
688,1629.4559563138303,0.03497236678041174
689,1631.8157953907958,0.0343092039285636
690,1634.174751874763,0.03445802747225162
691,1636.5328261634193,0.03330705781327785
692,1638.8900186542467,0.033935524146180625
693,1641.246329744492,0.033498841081705075
694,1643.6017598311794,0.033758631313038315
695,1645.9563093111142,0.03587005755614415
696,1648.3099785808774,0.03498144068185494
697,1650.6627680368192,0.03338866581657736
698,1653.0146780750808,0.03372333703163496
699,1655.3657090915783,0.034873611894914426
700,1657.7158614819975,0.035168116449136366
701,1660.0651356418057,0.03438303900768068
702,1662.413531966253,0.034373859316940585
703,1664.761050850362,0.03285191383688674
704,1667.1076926889384,0.033939687573794536
705,1669.4534578765627,0.033395571442977626
706,1671.7983468075913,0.03288733145709314
707,1674.142359876171,0.031335614261404236
708,1676.4854974762227,0.03284124565110742
709,1678.8277600014376,0.03479428279533436
710,1681.1691478452922,0.036566607511160906
711,1683.5096614010504,0.03720160246984636
712,1685.8493010617442,0.03804936427408433
713,1688.1880672201887,0.036868158022062024
714,1690.5259602689803,0.03457850452326895
715,1692.8629806005022,0.0328192909104088
716,1695.1991286069017,0.03323301421570117
717,1697.5344046801247,0.03358515937355016
718,1699.8688092118844,0.033142921802880955
719,1702.2023425936886,0.0359782484560226
720,1704.535005216802,0.03701564803296444
721,1706.8667974722853,0.04124758715974267
722,1709.197719750998,0.04247229172401093
723,1711.527772443554,0.04102548199212281
724,1713.8569559403552,0.038246425146891284
725,1716.1852706315908,0.040105865619967464
726,1718.512716907233,0.03887865962166766
727,1720.8392951570265,0.03808083258983629
728,1723.1650057705099,0.03619984584848805
729,1725.4898491369902,0.03697914737094934
730,1727.813825645574,0.03613741984667362
731,1730.1369356851367,0.038107598543192414
732,1732.4591796443433,0.03631609179783159
733,1734.780557911637,0.035163345986748966
734,1737.1010708752515,0.03421978682325468
735,1739.4207189231943,0.03624336489832709
736,1741.7395024432606,0.03524167945254854
737,1744.0574218230356,0.03550327062717399
738,1746.3744774498784,0.035537259216580644
739,1748.6906697109318,0.03537252590416161
740,1751.005998993137,0.03484662770256546
741,1753.3204656832,0.03301738736246466
742,1755.6340701676197,0.032263718106465854
743,1757.9468128326826,0.03343755354313756
744,1760.2586940644637,0.03502996517269141
745,1762.569714248807,0.03772322223686014
746,1764.8798737713548,0.03556824273147639
747,1767.1891730175255,0.0348714904204299
748,1769.497612372534,0.034073498544401046
749,1771.8051922213717,0.03182417345621826
750,1774.1119129488113,0.029729914006862222
751,1776.417774939428,0.028400791929573278
752,1778.7227785775626,0.027876517789314652
753,1781.0269242473612,0.03014974775125583
754,1783.3302123327417,0.03326031838296901
755,1785.6326432174121,0.036248003287285176
756,1787.9342172848699,0.03714541930645586
757,1790.2349349183958,0.03825567243850615
758,1792.534796501062,0.03940549038326557
759,1794.83380241572,0.03958049860262506
760,1797.1319530450128,0.03855688649986603
761,1799.4292487713753,0.03701331372840816
762,1801.7256899770175,0.03434332234958294
763,1804.0212770439532,0.032694793590768864
764,1806.3160103539603,0.031367412645516804
765,1808.6098902886285,0.02995326508067616
766,1810.9029172293278,0.029282625639451304
767,1813.1950915572138,0.030478169438318846
768,1815.4864136532253,0.03269879638717312
769,1817.7768838980994,0.03394824451712774
770,1820.066502672352,0.03398465400826516
771,1822.3552703562955,0.03458047861642071
772,1824.6431873300312,0.03565630319955261
773,1826.9302539734465,0.03402099527394461
774,1829.2164706662115,0.03165999162429635
775,1831.5018377877993,0.030259108936318575
776,1833.7863557174637,0.030164898089527537
777,1836.0700248342441,0.03285019283088101
778,1838.3528455169842,0.034766482554811996
779,1840.6348181443052,0.03560331986589656
780,1842.9159430946086,0.036743291541763486
781,1845.1962207461183,0.036832694634734785
782,1847.4756514768221,0.03828293202268081
783,1849.7542356644947,0.03517019153920012
784,1852.0319736867293,0.03241113346179061
785,1854.3088659208804,0.03155800906115328
786,1856.5849127441113,0.030120002986760017
787,1858.8601145333646,0.03208603617121717
788,1861.1344716653894,0.03151424713271602
789,1863.407984516697,0.0325415619575126
790,1865.6806534636332,0.03285765941268997
791,1867.952478882297,0.034213334326810306
792,1870.223461148603,0.03498775275966923
793,1872.4936006382381,0.034112392570738684
794,1874.7628977267007,0.03405641494639611
795,1877.031352789276,0.03290297576350476
796,1879.2989662010225,0.03244979839125851
797,1881.5657383368184,0.031437037070713054
798,1883.8316695713222,0.029853864861569348
799,1886.096760278981,0.03190579576476326
800,1888.3610108340463,0.032394603982062134
801,1890.6244216105433,0.03251155297493574
802,1892.8869929823209,0.03137583456990167
803,1895.148725322988,0.03145300023105383
804,1897.4096190059702,0.031114996467959993
805,1899.6696744044802,0.03187797609577394
806,1901.928891891514,0.032557901013196305
807,1904.1872718398786,0.031140460523028452
808,1906.444814622169,0.03287803425308796
809,1908.7015206107671,0.035081263807596
810,1910.957390177854,0.036194293419511796
811,1913.2124236954105,0.034542141268585694
812,1915.4666215352029,0.036824749304326304
813,1917.7199840688027,0.03781140302740999
814,1919.972511667564,0.035928197335668786
815,1922.2242047026443,0.03644556138327041
816,1924.4750635449966,0.03495583357440525
817,1926.725088565364,0.031625071466007876
818,1928.9742801342877,0.03116778260124298
819,1931.2226386221093,0.030504741617521768
820,1933.4701643989563,0.030874140759069704
821,1935.7168578347625,0.03138073265902426
822,1937.9627192992496,0.03387999923465494
823,1940.2077491619418,0.03424584972312528
824,1942.451947792149,0.031875437164227596
825,1944.695315558994,0.03225578373998969
826,1946.9378528313835,0.031343826000297184
827,1949.1795599780214,0.029973449645507036
828,1951.4204373674158,0.03113724918783386
829,1953.6604853678741,0.031315593962882894
830,1955.899704347481,0.03264914661798839
831,1958.1380946741451,0.032224736518642286
832,1960.3756567155476,0.03140329206576847
833,1962.6123908391855,0.032343525362281945
834,1964.8482974123494,0.032251391895167805
835,1967.0833768021243,0.03275856118574382
836,1969.317629375391,0.03270265493414656
837,1971.5510554988357,0.03291033924857297
838,1973.783655538938,0.033208343237084846
839,1976.0154298619782,0.0313910330622513
840,1978.2463788340353,0.029310281066234064
841,1980.4765028209815,0.02831257627809446
842,1982.7058021884948,0.028426801205028076
843,1984.934277302051,0.03129545514567209
844,1987.1619285269198,0.03352525352117458
845,1989.3887562281802,0.033560341161600324
846,1991.6147607706969,0.03433916466872904
847,1993.8399425191499,0.032147160111153004
848,1996.0643018380044,0.02988306543372061
849,1998.2878390915373,0.03128311097311974
850,2000.5105546438126,0.031185170595723823
851,2002.732448858715,0.030874365521416768
852,2004.9535220998987,0.029910293903152783
853,2007.1737747308448,0.03320239744531514
854,2009.3932071148236,0.03417708663761313
855,2011.611819614917,0.03427831752674245
856,2013.8296125939908,0.03547347891036075
857,2016.0465864147207,0.03470861523204618
858,2018.2627414395863,0.035445606026349705
859,2020.4780780308583,0.0378902182473628
860,2022.6925965506214,0.036490458785765505
861,2024.9062973607518,0.03334367223445099
862,2027.119180822935,0.031529090814954586
863,2029.3312472986531,0.03163151904400998
864,2031.542497149194,0.029073631727920865
865,2033.7529307356433,0.029400209810612893
866,2035.962548418888,0.029777500618910994
867,2038.1713505596188,0.03147257622973275
868,2040.3793375183388,0.033514382560941795
869,2042.586509655342,0.03627474125164702
870,2044.7928673307179,0.03640729660147793
871,2046.9984109043821,0.034088936711618244
872,2049.203140736034,0.033767038836824394
873,2051.4070571851826,0.036239390629925594
874,2053.6101606111406,0.03632220706247504
875,2055.8124513730286,0.03684202890066795
876,2058.0139298297586,0.03612026552882108
877,2060.2145963400512,0.03678130441304758
878,2062.414451262436,0.03689386330454286
879,2064.6134949552475,0.03582260722343535
880,2066.8117277766155,0.030921497528945508
881,2069.009150084478,0.02643575828718199
882,2071.205762236583,0.026018593107898332
883,2073.401564590472,0.029088815288371487
884,2075.596557503498,0.027932113428395938
885,2077.7907413328217,0.02967439663744749
886,2079.9841164354,0.03078520554198754
887,2082.1766831680047,0.03134757159281675
888,2084.3684418872044,0.030455418882172756
889,2086.559392949375,0.02992452173742689
890,2088.7495367107003,0.029209792374791408
891,2090.938873527172,0.029044040874461306
892,2093.127403754577,0.03179896327336233
893,2095.3151277485167,0.03151826032361783
894,2097.502045864403,0.03233524998588221
895,2099.6881584574407,0.0349899621641831
896,2101.8734658826493,0.03472457812501872
897,2104.057968494854,0.03464359981091905
898,2106.241666648683,0.033429425043299314
899,2108.4245606985783,0.03171739724083261
900,2110.6066509987763,0.03173120744572057
901,2112.787937903341,0.033228998041807595
902,2114.9684217661147,0.03474877167462618
903,2117.148102940775,0.032312443998308904
904,2119.326981780787,0.03394839464788335
905,2121.505058639431,0.03437537229296238
906,2123.6823338697977,0.03362587034395805
907,2125.8588078247794,0.0322449853181524
908,2128.03448085708,0.03175970136027668
909,2130.2093533192083,0.030260395986923014
910,2132.383425563491,0.03060609943528329
911,2134.556697942038,0.03147920972416707
912,2136.7291708068074,0.03179315726675169
913,2138.9008445095233,0.03146491938909229
914,2141.0717194017484,0.03306834579500152
915,2143.241795834843,0.03424618885589985
916,2145.4110741599725,0.03658680081211473
917,2147.579554728125,0.0372853088297597
918,2149.7472378900807,0.039518412787048124
919,2151.914123996435,0.038694348820480735
920,2154.0802133975985,0.03881286968936237
921,2156.2455064437945,0.036621477383896615
922,2158.4100034850358,0.0350441801763726
923,2160.5737048711644,0.03174538984203741
924,2162.7366109518307,0.029645504801591924
925,2164.8987220764816,0.029957449811540415
926,2167.060038594387,0.03176071001468791
927,2169.2205608546183,0.031293794278273626
928,2171.380289206072,0.03207634131534209
929,2173.5392239974403,0.030852243352071776
930,2175.697365577227,0.03306881554592122
931,2177.854714293754,0.031340246370667665
932,2180.011270495152,0.03178889874614091
933,2182.167034529361,0.03249793078047865
934,2184.322006744128,0.03456475117085595
935,2186.476187487018,0.03544078889176495
936,2188.629577105415,0.034682033512885194
937,2190.782175946497,0.034620473051615565
938,2192.933984357258,0.033176821045902916
939,2195.0850026845164,0.030134489606635537
940,2197.2352312748862,0.030810838321131812
941,2199.384670474804,0.028487883777771054
942,2201.533320630516,0.029822251416368677
943,2203.6811820880826,0.03231229877715628
944,2205.8282551933753,0.033839030792784955
945,2207.974540292068,0.03418585965887715
946,2210.1200377296677,0.03523353840409546
947,2212.264747851484,0.03546592211808394
948,2214.408671002627,0.03312500388228856
949,2216.551807528045,0.031015666284757524
950,2218.694157772479,0.030069263725940886
951,2220.8357220804946,0.02891404658825884
952,2222.9765007964616,0.029737607862731875
953,2225.1164942645737,0.030240458561005237
954,2227.255702828832,0.029552622555894758
955,2229.394126833054,0.030576449303464415
956,2231.5317666208734,0.034124167216336994
957,2233.668622535726,0.03517443714159175
958,2235.804694920877,0.03639135643514316
959,2237.9399841193963,0.03652952142179095
960,2240.0744904741755,0.03550230021774565
961,2242.208214327916,0.035926861767673623
962,2244.3411560231343,0.03431606638096724
963,2246.473315902161,0.03216801994175024
964,2248.604694307149,0.031998814769254876
965,2250.7352915800593,0.03137539644422772
966,2252.8651080626587,0.03373437694935418
967,2254.994144096556,0.03431071881287454
968,2257.1224000231477,0.033728936801517305
969,2259.249876183662,0.03416940437520279
970,2261.376572919144,0.03352034658406429
971,2263.5024905704404,0.03458664631509778
972,2265.6276294782256,0.03326026449190803
973,2267.751989982994,0.03294532426195111
974,2269.8755724250464,0.03415443416274011
975,2271.9983771444986,0.03234636944609487
976,2274.120404481292,0.03308396209371677
977,2276.2416547751823,0.0341074321299718
978,2278.3621283657358,0.03363350387474804
979,2280.4818255923446,0.036910949708211696
980,2282.600746794212,0.03677777139393677
981,2284.718892310352,0.03758027110611926
982,2286.836262479614,0.03744492619338599
983,2288.952857640648,0.03562088698579933
984,2291.0686781319323,0.03264603131750264
985,2293.1837242917545,0.03277641439106284
986,2295.2979964582287,0.03374503658542403
987,2297.4114949692753,0.03578654577524177
988,2299.5242201626465,0.03788657104692432
989,2301.6361723758982,0.039142647808361776
990,2303.747351946417,0.03791950565180291
991,2305.857759211402,0.039606702467550256
992,2307.96739450787,0.03937422325208659
993,2310.076258172657,0.037763555834978986
994,2312.1843505424245,0.036879266500075794
995,2314.2916719536433,0.037930671073680686
996,2316.3982227426027,0.0364270834096917
997,2318.5040032454262,0.03532500172842104
998,2320.6090137980336,0.033888016073539994
999,2322.713254736188,0.03237243375626209
1000,2324.8167263954483,0.03076021114967313
1001,2326.919429111215,0.030661360937622343
1002,2329.0213632186947,0.027993113593222048
1003,2331.122529052913,0.02964312774129231
1004,2333.2229269487266,0.03062977352848076
1005,2335.322557240804,0.028592194667203766
1006,2337.42142026363,0.02889468006744803
1007,2339.51951635152,0.029136664775781293
1008,2341.616845838606,0.03071878846781926
1009,2343.7134090588374,0.033886528934398946
1010,2345.809206345992,0.036004678998084974
1011,2347.9042380336514,0.03644151540837841
1012,2349.9985044552395,0.03559052111026633
1013,2352.092005943984,0.03685220987352293
1014,2354.1847428329497,0.03481176625431021
1015,2356.276715455004,0.03273613845193112
1016,2358.3679241428576,0.033567385394072155
1017,2360.458369229021,0.0318798620297537
1018,2362.548051045841,0.03322557122108936
1019,2364.636969925484,0.03477076245852718
1020,2366.725126199934,0.03534945022707437
1021,2368.8125202009987,0.03415663709270542
1022,2370.899152260302,0.030387325621394887
1023,2372.985022709303,0.023236518379117294
