# kind,background_subtracted
# version_label,v3
# poly_order,3
# iterations_run,9
pixel_index,raman_shift_cm-1,intensity,background_intensity
0,200.000,37.110084045954466,235.88107195404552
1,201.000,38.23559146931305,236.64333053068694
2,202.000,44.57484683167445,237.40682016832557
3,203.000,50.28633386130855,238.17153813869146
4,204.000,32.418975286485136,238.93748171351484
5,205.000,31.895594835474128,239.70464816452585
6,206.000,40.528189236545415,240.47303476345456
7,207.000,31.25825121796882,241.2426387820312
8,208.000,29.10773450801412,242.0134574919859
9,209.000,44.17176983495128,242.78548816504875
10,210.000,32.95449692705003,243.55872807294995
11,211.000,38.75447251258038,244.33317448741963
12,212.000,36.99984831981209,245.10882468018792
13,213.000,33.87396707701501,245.88567592298497
14,214.000,32.685909512459034,246.66372548754094
15,215.000,40.52926435441401,247.442970645586
16,216.000,39.15190833114977,248.22340866885023
17,217.000,26.877417170936184,249.0050368290638
18,218.000,30.715399602043107,249.78785239795687
19,219.000,29.705711352740394,250.5718526472596
20,220.000,32.1533501512979,251.35703484870209
21,221.000,50.61530772598553,252.1433962740145
22,222.000,30.231849805072983,252.930934194927
23,223.000,37.96827511683031,253.7196458831697
24,224.000,27.025199389527188,254.50952861047278
25,225.000,38.65435535143362,255.30057964856636
26,226.000,22.326108730819385,256.0927962691806
27,227.000,28.73729625595439,256.8861757440456
28,228.000,28.366021655108398,257.6807153448916
29,229.000,37.04386665655136,258.47641234344866
30,230.000,22.05130798855305,259.27326401144694
31,231.000,37.95174137938341,260.0712676206166
32,232.000,35.70614155731221,260.8704204426878
33,233.000,18.0526352506094,261.6707197493906
34,234.000,22.54232918754468,262.47216281245534
35,235.000,24.74541809638805,263.27474690361197
36,236.000,25.36934570540933,264.07846929459066
37,237.000,40.82779274287833,264.88332725712166
38,238.000,44.502524937065004,265.689318062935
39,239.000,36.0193550162391,266.4964389837609
40,240.000,47.69945770867048,267.3046872913295
41,241.000,27.232570742629093,268.1140602573709
42,242.000,35.48345784638468,268.9245551536153
43,243.000,35.28710674820718,269.73616925179283
44,244.000,34.501682176366444,270.5488998236336
45,245.000,34.36763685913229,271.36274414086773
46,246.000,30.762603524774477,272.1776994752255
47,247.000,25.36792890156312,272.9937630984369
48,248.000,32.56445571776783,273.81093228223216
49,249.000,34.12300170165861,274.6292042983414
50,250.000,36.4753085815052,275.4485764184948
51,251.000,30.344510085577554,276.26904591442246
52,252.000,33.19377094214548,277.0906100578545
53,253.000,37.9640068794788,277.9132661205212
54,254.000,31.26989662584748,278.73701137415253
55,255.000,34.115631909521255,279.56184309047876
56,256.000,28.30042545876995,280.38775854123
57,257.000,30.663883001863667,281.21475499813636
58,258.000,35.67992926707194,282.04282973292806
59,259.000,29.217416982664872,282.87198001733515
60,260.000,33.439426876912194,283.7022031230878
61,261.000,27.15657367808376,284.53349632191623
62,262.000,25.488499114449496,285.3658568855505
63,263.000,27.801208914279187,286.1992820857208
64,264.000,29.5838058058427,287.0337691941573
65,265.000,25.473407517409953,287.86931548259
66,266.000,31.371907777250726,288.7059182227493
67,267.000,26.61779231363488,289.5435746863651
68,268.000,34.37004585483231,290.38228214516766
69,269.000,35.41053112911288,291.2220378708871
70,270.000,23.45501186474644,292.06283913525357
71,271.000,23.564827790002767,292.90468320999724
72,272.000,28.467523633151757,293.7475673668482
73,273.000,32.31817212246335,294.5914888775367
74,274.000,30.937008986207275,295.4364450137927
75,275.000,31.904180952653462,296.28243304734656
76,276.000,28.43653775007175,297.12945024992825
77,277.000,26.112132106731963,297.97749389326805
78,278.000,16.62665975090397,298.826561249096
79,279.000,31.07615641085772,299.6766495891423
80,280.000,40.85105281486295,300.52775618513704
81,281.000,30.129021691189507,301.3798783088105
82,282.000,27.289449768107374,302.23301323189264
83,283.000,28.547499773886273,303.08715822611373
84,284.000,26.234556436796083,303.94231056320393
85,285.000,25.2360794851067,304.7984675148933
86,286.000,24.29229064708801,305.655626352912
87,287.000,28.3425676510098,306.5137843489902
88,288.000,25.012406225141888,307.3729387748581
89,289.000,13.10020909775426,308.23308690224576
90,290.000,34.12907299711668,309.0942260028833
91,291.000,29.609291651499063,309.95635334850095
92,292.000,17.085257789171123,310.81946621082886
93,293.000,37.16990713840295,311.68356186159707
94,294.000,7.161464427464125,312.5486375725359
95,295.000,28.978584384624753,313.41469061537526
96,296.000,14.626983738154536,314.28171826184547
97,297.000,31.891582216323343,315.14971778367664
98,298.000,37.98562154740108,316.0186864525989
99,299.000,18.28824045965763,316.8886215403424
100,300.000,20.784280681362702,317.75952031863727
101,301.000,35.7476219407863,318.6313800592137
102,302.000,30.179698966198202,319.5041980338018
103,303.000,19.28037148586833,320.3779715141317
104,304.000,31.118884228066463,321.2526977719335
105,305.000,28.83053092106252,322.1283740789375
106,306.000,22.061800293126282,323.0049977068737
107,307.000,22.877131072527675,323.88256592747234
108,308.000,25.53955398753652,324.7610760124635
109,309.000,28.257150766422626,325.64052523357736
110,310.000,15.050413137455962,326.52091086254404
111,311.000,19.65231782890629,327.4022301710937
112,312.000,19.067673569043507,328.2844804309565
113,313.000,37.066323086137515,329.1676589138625
114,314.000,21.549150108458036,330.05176289154196
115,315.000,15.165883364275032,330.93678963572495
116,316.000,18.60473758185833,331.8227364181417
117,317.000,14.353854489477726,332.70960051052225
118,318.000,15.033261815403193,333.59737918459683
119,319.000,22.533650287904493,334.4860697120955
120,320.000,27.9712596352515,335.3756693647485
121,321.000,17.345875585714055,336.26617541428595
122,322.000,22.852949867562074,337.15758513243793
123,323.000,23.079727209065368,338.0498957909346
124,324.000,23.91341433849385,338.94310466150614
125,325.000,20.329105984117234,339.83720901588276
126,326.000,20.95882987420555,340.73220612579445
127,327.000,28.140593737028553,341.62809326297145
128,328.000,30.503038300856076,342.5248676991439
129,329.000,22.452940293958022,343.422526706042
130,330.000,12.686951444604233,344.32106755539576
131,331.000,27.851892481064567,345.22048751893544
132,332.000,18.67632013160886,346.12078386839113
133,333.000,27.10988812450705,347.02195387549295
134,334.000,12.945408188028864,347.9239948119711
135,335.000,10.977317050444242,348.82690394955574
136,336.000,16.836232440023025,349.730678559977
137,337.000,15.535910085035027,350.63531591496496
138,338.000,14.559592713750249,351.5408132862498
139,339.000,31.829789054438265,352.4471679455617
140,340.000,21.9499648353692,353.3543771646308
141,341.000,19.069223784812777,354.2624382151872
142,342.000,25.001572631038925,355.17134836896105
143,343.000,30.236505102317437,356.08110489768256
144,344.000,25.865885926918168,356.99170507308185
145,345.000,25.067887833110944,357.90314616688903
146,346.000,18.094422549165756,358.81542545083425
147,347.000,33.393771803352365,359.72854019664766
148,348.000,18.52590532394055,360.64248767605943
149,349.000,12.44276283920027,361.5572651607997
150,350.000,20.435238077401493,362.47286992259853
151,351.000,19.582920766813743,363.38929923318625
152,352.000,12.21266563570714,364.30655036429283
153,353.000,20.44832941235154,365.2246205876485
154,354.000,20.040777825016676,366.1435071749833
155,355.000,14.99115560197248,367.06320739802754
156,356.000,20.379903471488717,367.9837185285113
157,357.000,19.918443161835285,368.90503783816473
158,358.000,15.356096401282173,369.82716259871785
159,359.000,19.66569391809901,370.75009008190096
160,360.000,23.01747944055586,371.67381755944416
161,361.000,7.12878469692248,372.5983423030775
162,362.000,21.656429415468665,373.52366158453134
163,363.000,15.203632324464365,374.44977267553566
164,364.000,12.023358152179412,375.3766728478206
165,365.000,16.53540962688362,376.30435937311637
166,366.000,11.16528447684692,377.2328295231531
167,367.000,15.64931243033908,378.16208056966093
168,368.000,21.70908121563002,379.09210978437
169,369.000,7.524375560989483,380.0229144390105
170,370.000,2.245774194687499,380.9544918053125
171,371.000,23.642909844993824,381.88683915500616
172,372.000,18.43305224017837,382.81995375982166
173,373.000,18.240761108510924,383.7538328914891
174,374.000,28.37763417826136,384.6884738217386
175,375.000,11.138237177699466,385.62387382230054
176,376.000,12.555686835095287,386.56003016490473
177,377.000,13.175525878718474,387.4969401212815
178,378.000,15.152270036839013,388.43460096316096
179,379.000,14.504891037726736,389.3730099622733
180,380.000,13.915280609651404,390.3121643903486
181,381.000,10.479668480882992,391.25206151911704
182,382.000,25.379182379691315,392.1926986203087
183,383.000,16.205497034346138,393.13407296565384
184,384.000,14.162147173117546,394.0761818268825
185,385.000,21.689387524275105,395.0190224757249
186,386.000,5.719087816088802,395.96259218391117
187,387.000,20.880043776828643,396.90688822317134
188,388.000,7.19921313476425,397.8519078652358
189,389.000,15.566743618165617,398.7976483818344
190,390.000,9.069262955302463,399.74410704469756
191,391.000,18.4814348744448,400.6912811255552
192,392.000,7.161898103862427,401.63916789613756
193,393.000,16.807774371825133,402.58776462817485
194,394.000,10.977041406602837,403.5370685933972
195,395.000,18.81526493646544,404.48707706353457
196,396.000,10.234065689682666,405.43778731031733
197,397.000,8.104778394524487,406.3891966054755
198,398.000,20.06322777926073,407.3413022207393
199,399.000,4.599439572161202,408.2941014278388
200,400.000,14.946066501495807,409.2475914985042
201,401.000,15.082175295534398,410.2017697044656
202,402.000,12.768740682546706,411.15663331745327
203,403.000,17.214165390802805,412.1121796091972
204,404.000,12.211904148572444,413.06840585142754
205,405.000,13.597537684125427,414.02530931587455
206,406.000,16.51655872573167,414.9828872742683
207,407.000,14.46538000166106,415.94113699833895
208,408.000,14.019999240183381,416.9000557598166
209,409.000,17.365035169568444,417.85964083043154
210,410.000,4.332642518086288,418.8198894819137
211,411.000,6.011323014006564,419.78079898599344
212,412.000,11.673685385599299,420.7423666144007
213,413.000,19.016147361134188,421.7045896388658
214,414.000,8.093105668881208,422.6674653311188
215,415.000,11.416897037110118,423.6309909628899
216,416.000,17.139294194090894,424.5951638059091
217,417.000,19.91454386809329,425.55998113190674
218,418.000,15.953490787387182,426.5254402126128
219,419.000,15.555796680242452,427.4915383197575
220,420.000,15.431950274928909,428.4582727250711
221,421.000,1.8751202997165706,429.42564070028345
222,422.000,7.612409482875023,430.393639517125
223,423.000,13.139476552674239,431.36226644732574
224,424.000,3.6702722373842107,432.3315187626158
225,425.000,0.0,433.3013937347254
226,426.000,1.4925423646153035,434.2718886353847
227,427.000,16.85640126367622,435.2430007363238
228,428.000,2.5143906907272253,436.2147273092728
229,429.000,15.24855137403813,437.18706562596185
230,430.000,20.734129041878873,438.1600129581211
231,431.000,1.0790984225191664,439.13356657748085
232,432.000,9.095439244228942,440.1077237557711
233,433.000,4.994113235278007,441.082481764722
234,434.000,5.462317123936316,442.0578378760637
235,435.000,5.244523638473652,443.0337893615264
236,436.000,0.0,444.0103334928401
237,437.000,11.120522458264873,444.9874675417351
238,438.000,3.9096062200584925,445.9651887799415
239,439.000,11.102628520810583,446.94349447918944
240,440.000,8.34803008879095,447.9223819112091
241,441.000,6.745068652269424,448.90184834773055
242,442.000,6.622310939516012,449.881891060484
243,443.000,7.090405678800494,450.86250732119953
244,444.000,6.576776598392712,451.8436944016073
245,445.000,12.494149426562501,452.8254495734375
246,446.000,10.63501689157971,453.8077701084203
247,447.000,10.974662721714196,454.7906532782858
248,448.000,11.022948645235942,455.7740963547641
249,449.000,11.65651539041454,456.75809660958544
250,450.000,15.5565986855201,457.7426513144799
251,451.000,16.90667425882242,458.7277577411776
252,452.000,11.19149383859127,459.7134131614087
253,453.000,14.084756153096635,460.6996148469034
254,454.000,2.877611930608225,461.68636006939175
255,455.000,6.324935899395939,462.67364610060406
256,456.000,12.448615787729636,463.6614702122704
257,457.000,2.493162323879176,464.6498296761208
258,458.000,9.16775823611448,465.63872176388554
259,459.000,11.11906025270531,466.6281437472947
260,460.000,2.616084101921615,467.6180928980784
261,461.000,0.0,468.60856648796687
262,462.000,5.107581211309821,469.59956178869015
263,463.000,0.0,470.5910760719786
264,464.000,7.377539390437903,471.5831066095621
265,465.000,4.2288773268290925,472.5756506731709
266,466.000,0.0,473.56870553453524
267,467.000,0.0,474.56226846538516
268,468.000,20.91058826254931,475.5563367374507
269,469.000,0.9217663775377787,476.5509076224622
270,470.000,5.804996607850228,477.5459783921498
271,471.000,9.7173956817565,478.5415463182435
272,472.000,8.419244327526485,479.53760867247354
273,473.000,7.725021273429888,480.5341627265701
274,474.000,5.015744247736734,481.53120575226325
275,475.000,8.978435978716846,482.5287350212832
276,476.000,4.105264194640085,483.5267478053599
277,477.000,7.711072623776261,484.52524137622373
278,478.000,11.900057994395183,485.5242130056048
279,479.000,5.793038034766823,486.52365996523315
280,480.000,3.4358704731609464,487.52357952683906
281,481.000,0.0,488.5239689621525
282,482.000,1.667927457096198,489.5248255429038
283,483.000,4.757038459177011,490.526146540823
284,484.000,6.8208427723598675,491.52792922764013
285,485.000,0.0,492.5301708750856
286,486.000,4.331566245110594,493.5328687548894
287,487.000,0.0,494.53602013878174
288,488.000,0.0,495.53962229849265
289,489.000,5.356503494247534,496.54367250575245
290,490.000,8.577480967708937,497.5481680322911
291,491.000,1.2961208501611736,498.5531061498388
292,492.000,2.1878678698742533,499.55848413012575
293,493.000,6.599354755117929,500.5642992448821
294,494.000,5.482062234162072,501.57054876583794
295,495.000,20.446039035276556,502.5772299647235
296,496.000,11.261013886731234,503.5843401132688
297,497.000,0.0,504.5918764832041
298,498.000,19.34312765374051,505.59983634625945
299,499.000,0.0,506.608216974165
300,500.000,0.0,507.61701563865097
301,501.000,0.0,508.62622961144746
302,502.000,5.450779835715309,509.6358561642847
303,503.000,0.0,510.64589256889263
304,504.000,0.0834909029983919,511.6563360970016
305,505.000,10.335847979658297,512.6671840203417
306,506.000,0.0,513.678433610643
307,507.000,0.0,514.6900821396357
308,508.000,5.085207120950031,515.70212687905
309,509.000,0.0,516.7145651006159
310,510.000,5.398440923936278,517.7273940760638
311,511.000,6.152404922876485,518.7406110771235
312,512.000,2.8495686244747276,519.7542133755253
313,513.000,10.031575757000496,520.7681982429995
314,514.000,0.0,521.7825629512761
315,515.000,0.0,522.7973047720852
316,516.000,0.0,523.812420977157
317,517.000,5.994684161778309,524.8279088382217
318,518.000,9.655655372990623,525.8437656270094
319,519.000,0.0,526.8599886152502
320,520.000,9.711898925325727,527.8765750746743
321,521.000,0.0,528.8935222770119
322,522.000,0.0,529.9108274939929
323,523.000,12.227920002652354,530.9284879973477
324,524.000,8.668802941193576,531.9465010588065
325,525.000,3.6807980499008863,532.9648639500991
326,526.000,10.274908057044058,533.9835739429559
327,527.000,0.0,535.0026283091072
328,528.000,4.719598679717251,536.0220243202828
329,529.000,4.9090307517871,537.0417592482129
330,530.000,6.272625635372378,538.0618303646277
331,531.000,0.0,539.0822349412575
332,532.000,7.803895750167726,540.1029702498323
333,533.000,0.0,541.1240335620823
334,534.000,0.0,542.1454221497377
335,535.000,12.60666571547165,543.1671332845284
336,536.000,0.7658997618152625,544.1891642381847
337,537.000,0.0,545.2115122824368
338,538.000,0.0,546.2341746890147
339,539.000,10.366452270351147,547.2571487296489
340,540.000,11.783951323930978,548.280431676069
341,541.000,7.648558199994341,549.3040208000057
342,542.000,0.0,550.3279133731886
343,543.000,2.134263332651699,551.3521066673483
344,544.000,2.8075330457852488,552.3765979542147
345,545.000,0.0,553.401384505518
346,546.000,3.7280844070116927,554.4264635929883
347,547.000,0.0,555.4518324883559
348,548.000,6.192762536649184,556.4774884633508
349,549.000,3.822512210296736,557.5034287897032
350,550.000,0.0,558.5296507391432
351,551.000,0.0,559.5561515834011
352,552.000,5.760830405793172,560.5829285942068
353,553.000,13.505751956709446,561.6099790432905
354,554.000,0.0,562.6373002023826
355,555.000,11.655972656787071,563.664889343213
356,556.000,17.055833262488136,564.6927437375118
357,557.000,0.0,565.7208606570093
358,558.000,0.0,566.7492373734356
359,559.000,5.363381841479054,567.777871158521
360,560.000,2.8227757160047986,568.8067592839952
361,561.000,0.0,569.8358990215888
362,562.000,7.676889356968331,570.8652876430317
363,563.000,2.8465385799457863,571.8949224200542
364,564.000,6.5525913756137015,572.9248006243863
365,565.000,4.362941472241687,573.9549195277583
366,566.000,0.0,574.9852764019001
367,567.000,2.745107481457808,576.0158685185422
368,568.000,7.309113850585618,577.0466931494144
369,569.000,0.0,578.077747566247
370,570.000,0.0,579.1090290407701
371,571.000,4.632939155285953,580.140534844714
372,572.000,0.0,581.1722622498087
373,573.000,0.0,582.2042085277842
374,574.000,1.9745260496289347,583.2363709503711
375,575.000,8.473305210700914,584.268746789299
376,576.000,0.0,585.3013333162984
377,577.000,9.069479196900602,586.3341278030994
378,578.000,0.0,587.3671275214319
379,579.000,0.0,588.4003297430265
380,580.000,6.271173260387059,589.433731739613
381,581.000,0.0,590.4673307829216
382,582.000,0.0,591.5011241446824
383,583.000,2.0386039033742236,592.5351090966258
384,584.000,0.0,593.5692829104815
385,585.000,0.0,594.60364285798
386,586.000,3.2400757891484773,595.6381862108515
387,587.000,0.0,596.6729102408259
388,588.000,4.97102478036652,597.7078122196335
389,589.000,13.679248580995704,598.7428894190043
390,590.000,0.0,599.7781391106687
391,591.000,0.0,600.8135585663565
392,592.000,0.0,601.8491450577981
393,593.000,0.0,602.8848958567235
394,594.000,8.759423765137058,603.920808234863
395,595.000,0.2853245360533947,604.9568794639466
396,596.000,0.0,605.9931068157046
397,597.000,1.3971244381330052,607.029487561867
398,598.000,11.909010025836096,608.0660189741639
399,599.000,4.780091675674498,609.1026983243255
400,600.000,6.166060115917844,610.1395228840821
401,601.000,3.0488310748362437,611.1764899251638
402,602.000,15.091707280699438,612.2135967193005
403,603.000,9.204865461777217,613.2508405382227
404,604.000,7.407260346339626,614.2882186536604
405,605.000,28.52616966265657,615.3257283373434
406,606.000,8.132521138997618,616.3633668610024
407,607.000,14.217073503632719,617.4011314963673
408,608.000,23.92116548483193,618.4390195151681
409,609.000,30.4045808108649,619.4770281891351
410,610.000,25.179227210001386,620.5151547899986
411,611.000,41.81963241051153,621.5533965894884
412,612.000,48.255296140664996,622.591750859335
413,613.000,55.38583512873163,623.6302148712683
414,614.000,58.14880610298144,624.6687858970186
415,615.000,80.55163079168426,625.7074612083157
416,616.000,89.63381992310974,626.7462380768902
417,617.000,126.27639722552806,627.7851137744719
418,618.000,144.3813274272087,628.8240855727913
419,619.000,171.54680225642176,629.8631507435782
420,620.000,172.8902744414371,630.9023065585629
421,621.000,162.05552371052443,631.9415502894756
422,622.000,136.84707079195357,632.9808792080464
423,623.000,113.42951341399475,634.0202905860052
424,624.000,95.96845230491749,635.0597816950825
425,625.000,83.39498019299162,636.0993498070084
426,626.000,59.837374806487105,637.1389921935129
427,627.000,46.707664873673934,638.1787061263261
428,628.000,37.73008912282171,639.2184888771783
429,629.000,43.12215628220042,640.2583377177996
430,630.000,30.472518080079794,641.2982499199202
431,631.000,21.710539244729944,642.3382227552701
432,632.000,26.47252750442044,643.3782534955795
433,633.000,12.803896587421264,644.4183394125787
434,634.000,2.8270102220024,645.4584777779976
435,635.000,17.296567136433623,646.4986658635664
436,636.000,16.106743058984534,647.5389009410154
437,637.000,0.45044171792528687,648.5791802820747
438,638.000,7.387407841525601,649.6195011584743
439,639.000,0.0,650.6598608419445
440,640.000,3.8596283957846254,651.7002566042154
441,641.000,0.0,652.740685717017
442,642.000,7.237092547920383,653.7811454520796
443,643.000,3.352401918866576,654.8216330811334
444,644.000,12.3387801240915,655.8621458759085
445,645.000,11.174706891865071,656.902681108135
446,646.000,3.295069950456991,657.943236049543
447,647.000,1.2819520281373116,658.9838079718627
448,648.000,9.774618853175866,660.0243941468241
449,649.000,2.3444291538422704,661.0649918461577
450,650.000,1.12214965840667,662.1055983415933
451,651.000,0.0,663.1462109048613
452,652.000,1.5114501923083026,664.1868268076917
453,653.000,0.0,665.2274433218147
454,654.000,5.0903052810397185,666.2680577189603
455,655.000,0.5552447291412363,667.3086672708588
456,656.000,4.326383750759646,668.3492692492404
457,657.000,0.0,669.3898609258349
458,658.000,0.07270042762706908,670.430439572373
459,659.000,2.3673085394156033,671.4710024605844
460,660.000,0.0,672.5115468621993
461,661.000,0.0,673.552070048948
462,662.000,10.431656707439402,674.5925692925606
463,663.000,0.0,675.6330418647673
464,664.000,0.0,676.673485037298
465,665.000,0.0,677.7138960818831
466,666.000,0.0,678.7542722702526
467,667.000,0.5327061258633421,679.7946108741367
468,668.000,0.0,680.8349091652657
469,669.000,3.172436584630532,681.8751644153695
470,670.000,6.88368510382179,682.9153738961783
471,671.000,3.3964521205778055,683.9555348794222
472,672.000,4.302981363168442,684.9956446368316
473,673.000,0.0,686.0357004401362
474,674.000,0.0,687.0756995610666
475,675.000,0.0,688.1156392713528
476,676.000,5.725168157275107,689.1555168427249
477,677.000,0.0,690.195329546913
478,678.000,0.0,691.2350746556473
479,679.000,9.235919559342051,692.274749440658
480,680.000,0.0,693.314351173675
481,681.000,0.0,694.3538771264288
482,682.000,0.0,695.3933245706493
483,683.000,0.0,696.4326907780667
484,684.000,0.0,697.4719730204113
485,685.000,0.0,698.5111685694129
486,686.000,0.0,699.550274696802
487,687.000,0.0,700.5892886743086
488,688.000,0.0,701.6282077736629
489,689.000,7.245239733405242,702.6670292665948
490,690.000,0.0,703.7057504248347
491,691.000,14.633033479887104,704.7443685201129
492,692.000,0.0,705.782880824159
493,693.000,5.147223391296393,706.8212846087036
494,694.000,0.0,707.8595771454767
495,695.000,0.0,708.8977557062086
496,696.000,11.543056437370865,709.9358175626292
497,697.000,0.0,710.9737599864686
498,698.000,8.476033750542683,712.0115802494573
499,699.000,6.040463376674779,713.0492756233252
500,700.000,0.0,714.0868433798025
501,701.000,0.0,715.1242807906192
502,702.000,2.7697168724942003,716.1615851275058
503,703.000,0.0,717.198753662192
504,704.000,7.933633333591729,718.2357836664082
505,705.000,1.056806588115478,719.2726724118845
506,706.000,0.0,720.3094171703511
507,707.000,0.0,721.3460152135381
508,708.000,0.0,722.3824638131757
509,709.000,3.8969657590060933,723.418760240994
510,710.000,0.0,724.454901768723
511,711.000,0.0,725.4908856680931
512,712.000,0.611001789165698,726.5267092108343
513,713.000,13.038096331323345,727.5623696686766
514,714.000,0.0,728.5978643133506
515,715.000,0.0,729.6331904165859
516,716.000,1.4343867498868121,730.6683452501131
517,717.000,4.221434914337806,731.7033260856622
518,718.000,1.6846598050368584,732.7381301949631
519,719.000,0.0,733.7727548497462
520,720.000,0.7488256782584131,734.8071973217416
521,721.000,10.503013117320506,735.8414548826795
522,722.000,0.7548861957102417,736.8755248042897
523,723.000,1.8281286416970488,737.9094043583029
524,724.000,0.0,738.9430908164488
525,725.000,4.4832665495421224,739.9765814504578
526,726.000,0.0,741.00987353206
527,727.000,5.510762667014433,742.0429643329855
528,728.000,0.0,743.0758511249644
529,729.000,0.0,744.1085311797268
530,730.000,11.128013230996885,745.1410017690031
531,731.000,10.781803835476808,746.1732601645232
532,732.000,6.589781361982659,747.2053036380173
533,733.000,0.0,748.2371294612155
534,734.000,9.53270309415177,749.2687349058482
535,735.000,0.0,750.3001172436452
536,736.000,5.101531253663211,751.3312737463368
537,737.000,8.846377314346682,752.3622016856533
538,738.000,0.0,753.3928983333245
539,739.000,0.7714810389189779,754.423360961081
540,740.000,1.0996741593476145,755.4535868406524
541,741.000,0.0,756.4835732437693
542,742.000,3.8410225578383006,757.5133174421617
543,743.000,0.0,758.5428167075597
544,744.000,4.925310688306581,759.5720683116934
545,745.000,7.466973473707071,760.6010695262929
546,746.000,9.827226376911199,761.6298176230888
547,747.000,2.6930751261894557,762.6583098738106
548,748.000,0.0,763.6865435501888
549,749.000,1.9005150760465312,764.7145159239535
550,750.000,2.4068417331649243,765.742224266835
551,751.000,0.2821211494368754,766.7696658505631
552,752.000,6.7751650531319,767.7968379468681
553,753.000,9.239202172519754,768.8237378274803
554,754.000,0.7949912358704978,769.8503627641295
555,755.000,0.0,770.8767100285463
556,756.000,6.808814107539547,771.9027768924605
557,757.000,7.877416372397647,772.9285606276023
558,758.000,0.0,773.9540585057019
559,759.000,2.53878920151044,774.9792677984896
560,760.000,0.0,776.0041857776953
561,761.000,0.0,777.0288097150492
562,762.000,0.7161421177185048,778.0531368822815
563,763.000,0.7896604488777257,779.0771645511222
564,764.000,20.25681700669827,780.1008899933017
565,765.000,0.0,781.12431048055
566,766.000,0.12312571540269346,782.1474232845973
567,767.000,8.029560322826455,783.1702256771736
568,768.000,9.14114006999091,784.1927149300091
569,769.000,1.0010326851659102,785.2148883148341
570,770.000,6.1349158966214645,786.2367431033786
571,771.000,5.625776432627163,787.2582765673728
572,772.000,21.04372902145326,788.2794859785467
573,773.000,9.893611391369177,789.3003686086308
574,774.000,6.652377270645161,790.3209217293548
575,775.000,4.118700387550916,791.3411426124491
576,776.000,5.062904470356102,792.3610285296439
577,777.000,5.950390247330802,793.3805767526692
578,778.000,3.6027424467447418,794.3997845532552
579,779.000,11.705802796868056,795.418649203132
580,780.000,5.718070025970064,796.43716797403
581,781.000,16.88707086232114,797.4553381376788
582,782.000,25.281630034190925,798.473156965809
583,783.000,25.989466269849345,799.4906217301507
584,784.000,15.253461297566218,800.5077297024338
585,785.000,34.844220845611176,801.5244781543888
586,786.000,37.74652164225438,802.5408643577456
587,787.000,47.51463141576551,803.5568855842345
588,788.000,44.5615158944147,804.5725391055853
589,789.000,49.566415806471355,805.5878221935286
590,790.000,55.87161288020582,806.6027321197942
591,791.000,78.21467284388768,807.6172661561124
592,792.000,75.30101242578655,808.6314215742134
593,793.000,82.95278235417288,809.6451956458271
594,794.000,101.98385135731598,810.658585642684
595,795.000,91.17394216348612,811.6715888365139
596,796.000,85.04334550095257,812.6842024990474
597,797.000,91.55451409798604,813.696423902014
598,798.000,75.25943368285573,814.7082503171442
599,799.000,74.93307698383148,815.7196790161685
600,800.000,60.66297172918371,816.7307072708163
601,801.000,49.70437264718146,817.7413323528185
602,802.000,37.57623546609534,818.7515515339046
603,803.000,23.874284914194845,819.7613620858051
604,804.000,34.96809971975006,820.77076128025
605,805.000,33.389626611030394,821.7797463889696
606,806.000,22.87033431630607,822.7883146836939
607,807.000,27.494752563846873,823.7964634361531
608,808.000,18.982720081922707,824.8041899180773
609,809.000,18.088843598803237,825.8114914011968
610,810.000,12.988380842758374,826.8183651572416
611,811.000,21.274153542058116,827.8248084579419
612,812.000,7.365166424972131,828.8308185750278
613,813.000,0.0,829.8363927802294
614,814.000,17.58157665472288,830.8415283452771
615,815.000,14.48885045809925,831.8462225419007
616,816.000,0.0,832.8504726418305
617,817.000,5.567589083203302,833.8542759167967
618,818.000,5.763032361470664,834.8576296385294
619,819.000,10.309988921241256,835.8605310787588
620,820.000,4.661488490785132,836.8629775092148
621,821.000,16.621465798372242,837.8649662016278
622,822.000,2.8552225722719413,838.8664944277281
623,823.000,8.757369540754667,839.8675594592453
624,824.000,0.20605443208989982,840.8681585679101
625,825.000,10.386446974547766,841.8682890254522
626,826.000,4.567981896397782,842.8679481036022
627,827.000,10.67946292591023,843.8671330740898
628,828.000,0.0,844.8658412086455
629,829.000,0.0,845.8640697789991
630,830.000,3.746986943118941,846.861816056881
631,831.000,8.22803768597862,847.8590773140214
632,832.000,6.511225177849838,848.8558508221502
633,833.000,9.688413147002166,849.8521338529978
634,834.000,10.16673132170581,850.8479236782941
635,835.000,4.493844430230524,851.8432175697694
636,836.000,9.331902200846116,852.8380127991538
637,837.000,4.331862361822687,853.8323066381773
638,838.000,0.0,854.8260963585705
639,839.000,15.897221767936912,855.819379232063
640,840.000,1.0865034696146267,856.8121525303853
641,841.000,10.748262474732655,857.8044135252674
642,842.000,5.663781511560501,858.7961594884395
643,843.000,1.6677503083684542,859.7873876916316
644,844.000,7.990576593425999,860.778095406574
645,845.000,0.0,861.7682799049969
646,846.000,11.412973541369638,862.7579384586304
647,847.000,0.0,863.7470683392045
648,848.000,4.717081181550611,864.7356668184494
649,849.000,0.0,865.7237311680954
650,850.000,0.0,866.7112586598724
651,851.000,16.22535243448897,867.698246565511
652,852.000,17.33916384325937,868.6846921567407
653,853.000,0.617095294708065,869.6705927052919
654,854.000,3.3071665171048608,870.6559454828952
655,855.000,8.421164238719939,871.6407477612801
656,856.000,4.742565187822947,872.6249968121771
657,857.000,3.2998820926840153,873.608689907316
658,858.000,11.489868681572489,874.5918243184275
659,859.000,6.886063682758731,875.5743973172413
660,860.000,0.0,876.5564061754877
661,861.000,1.5438978351030528,877.5378481648969
662,862.000,8.201251442801095,878.5187205571989
663,863.000,0.0,879.499020624124
664,864.000,17.16719136259792,880.4787456374021
665,865.000,0.0,881.4578928687637
666,866.000,6.037571410061446,882.4364595899385
667,867.000,0.0,883.4144430726571
668,868.000,2.952110411350418,884.3918405886495
669,869.000,16.891940590354352,885.3686494096456
670,870.000,10.23952119262401,886.344866807376
671,871.000,11.423478946429668,887.3204900535703
672,872.000,0.9017385800409556,888.2955164199591
673,873.000,6.127085821727633,889.2699431782723
674,874.000,16.081446399759784,890.2437676002402
675,875.000,5.413539042407251,891.2169869575928
676,876.000,7.9959634779397675,892.1895985220602
677,877.000,5.752086434627245,893.1615995653727
678,878.000,10.846534640739378,894.1329873592606
679,879.000,15.531675824546369,895.1037591754537
680,880.000,17.846640714317914,896.0739122856821
681,881.000,6.691999038323615,897.0434439616764
682,882.000,5.73248852483357,898.0123514751664
683,883.000,10.378106902117906,898.9806320978821
684,884.000,0.0,899.9482831015542
685,885.000,0.0,900.9153017579123
686,886.000,2.6263596613131313,901.8816853386869
687,887.000,1.1549768843919992,902.847431115608
688,888.000,9.430881639594418,903.8125363604056
689,889.000,3.2858396551899887,904.7769983448101
690,890.000,12.627076659448562,905.7408143405514
691,891.000,14.153345380640076,906.70398161936
692,892.000,0.0,907.6664974529656
693,893.000,0.0,908.6283591130987
694,894.000,3.9849801285106423,909.5895638714893
695,895.000,0.0,910.5501089998676
696,896.000,9.536852230036402,911.5099917699636
697,897.000,1.662619546492465,912.4692094535076
698,898.000,3.65791467777035,913.4277593222297
699,899.000,0.9613043521400186,914.38563864786
700,900.000,5.443487297871229,915.3428447021288
701,901.000,3.059274243233972,916.299374756766
702,902.000,15.655695916498075,917.255226083502
703,903.000,9.956563045933308,918.2103959540667
704,904.000,0.8629343598096284,919.1648816401904
705,905.000,12.04503558639692,920.1186804136031
706,906.000,2.4987684539647717,921.0717895460352
707,907.000,6.355135690783186,922.0242063092168
708,908.000,12.11476502512221,922.9759279748778
709,909.000,6.019964185251524,923.9269518147485
710,910.000,17.099934899440996,924.877275100559
711,911.000,11.152389895960368,925.8268951040396
712,912.000,0.0,926.7758090969203
713,913.000,0.0,927.7240143509312
714,914.000,6.924837862197478,928.6715081378026
715,915.000,10.32412727073563,929.6182877292644
716,916.000,10.204247602952933,930.5643503970471
717,917.000,3.970631587119442,931.5096934128806
718,918.000,7.681299951505025,932.454314048495
719,919.000,0.0,933.3982095756205
720,920.000,1.2322297340125488,934.3413772659875
721,921.000,18.632124608674303,935.2838143913257
722,922.000,1.414537776634461,936.2255182233655
723,923.000,0.21133696616277575,937.1664860338373
724,924.000,12.571041905529455,938.1067150944706
725,925.000,7.493176323003809,939.0462026769962
726,926.000,4.069482946856283,939.9849460531437
727,927.000,21.15404950535617,940.9229424946438
728,928.000,5.107774726773982,941.8601892732261
729,929.000,4.884983339378778,942.7966836606212
730,930.000,17.261532071441252,943.7324229285588
731,931.000,12.071427651230579,944.6674043487694
732,932.000,7.844585807016983,945.601625192983
733,933.000,13.87757626707014,946.5350827329298
734,934.000,8.651764759660068,947.46777424034
735,935.000,8.081071013056658,948.3996969869434
736,936.000,14.503481755529378,949.3308482444706
737,937.000,15.314759715348487,950.2612252846515
738,938.000,9.970110620783771,951.1908253792162
739,939.000,13.854903200104786,952.1196457998952
740,940.000,23.65005018158172,953.0476838184182
741,941.000,13.076391293484335,953.9749367065157
742,942.000,11.680959264082503,954.9014017359175
743,943.000,9.25738282164616,955.8270761783539
744,944.000,14.522006694444826,956.7519573055552
745,945.000,6.785617610748773,957.6760423892513
746,946.000,5.775502298827519,958.5993287011725
747,947.000,5.714298486951179,959.5218135130489
748,948.000,15.638104903389262,960.4434940966107
749,949.000,2.76631727641211,961.3643677235879
750,950.000,12.25130033428934,962.2844316657107
751,951.000,11.370358805290607,963.2036831947094
752,952.000,7.917530417686066,964.122119582314
753,953.000,17.54529689974538,965.0397381002546
754,954.000,24.655640979738564,965.9565360202614
755,955.000,4.269617385935248,966.8725106140647
756,956.000,10.094589846605686,967.7876591533943
757,957.000,15.616097090019252,968.7019789099808
758,958.000,11.583494844446136,969.6154671555539
759,959.000,25.197463838155954,970.5281211618441
760,960.000,15.61762979941875,971.4399382005812
761,961.000,18.590089456504415,972.3509155434956
762,962.000,19.140218537682472,973.2610504623175
763,963.000,23.58308977122317,974.1703402287768
764,964.000,14.403731885396155,975.0787821146039
765,965.000,21.214839608471493,975.9863733915286
766,966.000,17.371069668718633,976.8931113312814
767,967.000,24.146091794407653,977.7989932055923
768,968.000,26.691280713808737,978.7040162861913
769,969.000,25.30430215519118,979.6081778448088
770,970.000,22.164379846825113,980.5114751531748
771,971.000,25.721944516980443,981.4139054830196
772,972.000,32.61245689392683,982.3154661060731
773,973.000,14.86111070593438,983.2161542940656
774,974.000,25.260620681272712,984.1159673187273
775,975.000,24.757710548211776,985.0149024517882
776,976.000,15.456008035021569,985.9129569649784
777,977.000,24.16876986997181,986.8101281300281
778,978.000,24.299966781332273,987.7064132186678
779,979.000,30.69912849737284,988.6018095026271
780,980.000,34.73355374636333,989.4963142536366
781,981.000,25.964979256573997,990.389924743426
782,982.000,33.74466575627412,991.2826382437258
783,983.000,33.90551897373393,992.174452026266
784,984.000,43.26185763722344,993.0653633627766
785,985.000,42.312917475011886,993.9553695249882
786,986.000,50.26962221536962,994.8444677846304
787,987.000,52.81997258656611,995.7326554134338
788,988.000,68.40633431687183,996.6199296831282
789,989.000,79.99324113455589,997.506287865444
790,990.000,80.05193476788872,998.3917272321112
791,991.000,98.81507394514006,999.27624505486
792,992.000,107.13246639457941,1000.1598386054205
793,993.000,135.3653188444771,1001.0425051555228
794,994.000,164.0523570231029,1001.9242419768972
795,995.000,206.1439626587262,1002.8050463412737
796,996.000,282.6871244796173,1003.6849155203827
797,997.000,374.641151214046,1004.563846785954
798,998.000,513.3932665902821,1005.4418374097179
799,999.000,706.4067353365955,1006.3188846634044
800,1000.000,908.877445181256,1007.194985818744
801,1001.000,1011.6226508525333,1008.0701381474667
802,1002.000,906.6595400786978,1008.9443389213022
803,1003.000,717.8463835880185,1009.8175854119814
804,1004.000,518.321002108766,1010.6898748912339
805,1005.000,375.57570036921004,1011.56120463079
806,1006.000,289.76621509762015,1012.4315719023799
807,1007.000,222.37204702226643,1013.3009739777336
808,1008.000,169.3234398714185,1014.1694081285816
809,1009.000,150.9338323733465,1015.0368716266536
810,1010.000,120.33286925632024,1015.9033617436799
811,1011.000,108.37407924860929,1016.7688757513907
812,1012.000,100.56020107848383,1017.6334109215162
813,1013.000,90.1829484742135,1018.4969645257864
814,1014.000,66.08742316406847,1019.3595338359316
815,1015.000,69.5323138763182,1020.2211161236818
816,1016.000,81.9215043392328,1021.0817086607672
817,1017.000,65.76157428108195,1021.941308718918
818,1018.000,69.53764743013585,1022.7999135698642
819,1019.000,78.29322151466374,1023.6575204853362
820,1020.000,73.38888226293625,1024.5141267370639
821,1021.000,79.88082240322228,1025.3697295967777
822,1022.000,86.98276966379308,1026.224326336207
823,1023.000,102.70114777291701,1027.077914227083
824,1024.000,119.11976545886455,1027.9304905411354
825,1025.000,130.96752344990568,1028.7820525500942
826,1026.000,163.50293247431046,1029.6325975256896
827,1027.000,200.5489522603482,1030.482122739652
828,1028.000,253.41617853628895,1031.3306254637112
829,1029.000,338.94301603040253,1032.1781029695974
830,1030.000,401.84346947095923,1033.0245525290409
831,1031.000,441.742741586228,1033.869971413772
832,1032.000,406.29207310447964,1034.7143568955203
833,1033.000,338.50971875398363,1035.5577062460163
834,1034.000,259.0839432630096,1036.4000167369904
835,1035.000,208.085309359828,1037.241285640172
836,1036.000,153.7048517727078,1038.0815102272923
837,1037.000,123.82999622991974,1038.9206877700803
838,1038.000,96.13693645973285,1039.758815540267
839,1039.000,85.96787919041776,1040.5958908095822
840,1040.000,83.65228615024375,1041.4319108497562
841,1041.000,61.4938860674813,1042.2668729325187
842,1042.000,60.53065867039959,1043.1007743296004
843,1043.000,52.726382687268824,1043.9336123127312
844,1044.000,44.40293284635868,1044.7653841536412
845,1045.000,39.2085948759393,1045.5960871240607
846,1046.000,42.4843625042804,1046.4257184957196
847,1047.000,30.20009045965162,1047.2542755403483
848,1048.000,22.72044947032282,1048.0817555296771
849,1049.000,41.61740026456437,1048.9081557354357
850,1050.000,33.0823725706457,1049.7334734293543
851,1051.000,40.0983771168369,1050.5577058831632
852,1052.000,27.870641631407352,1051.3808503685927
853,1053.000,26.58375684262751,1052.2029041573726
854,1054.000,30.513436478766607,1053.0238645212335
855,1055.000,29.415988268095134,1053.8437287319048
856,1056.000,30.552192938882627,1054.6624940611173
857,1057.000,22.406289219399014,1055.480157780601
858,1058.000,21.912576837913775,1056.2967171620862
859,1059.000,17.898362522697653,1057.1121694773024
860,1060.000,23.38673900201934,1057.9265119979807
861,1061.000,27.361446004149684,1058.7397419958504
862,1062.000,19.671352257357967,1059.551856742642
863,1063.000,14.070345489914416,1060.3628535100856
864,1064.000,35.77080643008844,1061.1727295699116
865,1065.000,17.257423806150427,1061.9814821938496
866,1066.000,30.236279346369884,1062.7891086536301
867,1067.000,24.468959779016586,1063.5956062209834
868,1068.000,12.484771832360593,1064.4009721676393
869,1069.000,17.74530423467172,1065.2052037653282
870,1070.000,28.203253714219954,1066.00829828578
871,1071.000,31.517522999275116,1066.810253000725
872,1072.000,17.61883581810639,1067.6110651818935
873,1073.000,12.404144898984896,1068.4107321010151
874,1074.000,20.70949897017931,1069.2092510298207
875,1075.000,23.03715675996,1070.00661924004
876,1076.000,19.926062996596784,1070.8028340034032
877,1077.000,13.21087740835992,1071.5978925916402
878,1078.000,14.817935723518303,1072.3917922764817
879,1079.000,27.728626670342464,1073.1845303296575
880,1080.000,16.58698297710248,1073.9761040228975
881,1081.000,18.526502372067625,1074.7665106279323
882,1082.000,17.01005058350802,1075.555747416492
883,1083.000,6.2847943396934625,1076.3438116603065
884,1084.000,26.71370636889378,1077.1307006311063
885,1085.000,17.257462399379165,1077.916411600621
886,1086.000,23.897442159418915,1078.700941840581
887,1087.000,14.997736377283445,1079.4842886227166
888,1088.000,19.891654781242096,1080.266449218758
889,1089.000,18.699751099564992,1081.047420900435
890,1090.000,28.367738060521788,1081.8272009394782
891,1091.000,16.369296392382694,1082.6057866076173
892,1092.000,27.86156482341744,1083.3831751765827
893,1093.000,15.674851081895667,1084.1593639181044
894,1094.000,22.708645896087546,1084.9343501039125
895,1095.000,15.587634994262544,1085.7081310057374
896,1096.000,22.031884104691017,1086.480703895309
897,1097.000,19.552361955642027,1087.252066044358
898,1098.000,18.40177927538639,1088.0222147246136
899,1099.000,28.16993979219319,1088.7911472078067
900,1100.000,26.71792523433305,1089.5588607656669
901,1101.000,21.65422633007529,1090.3253526699248
902,1102.000,13.555568807689724,1091.0906201923103
903,1103.000,18.80648539544609,1091.8546606045538
904,1104.000,10.330399821614947,1092.6174711783851
905,1105.000,21.036323814465277,1093.3790491855348
906,1106.000,10.130399102267575,1094.1393918977324
907,1107.000,23.08790141329132,1094.8984965867087
908,1108.000,26.148489475806855,1095.6563605241931
909,1109.000,20.116308018083373,1096.4129809819167
910,1110.000,13.55627476839095,1097.168355231609
911,1111.000,23.029524455000228,1097.9224805449999
912,1112.000,25.861747806179437,1098.6753541938206
913,1113.000,28.000765550199958,1099.4269734498
914,1114.000,20.677688415330977,1100.177335584669
915,1115.000,25.493937129842607,1100.9264378701573
916,1116.000,12.180925422004293,1101.6742775779958
917,1117.000,24.377421020086103,1102.420851979914
918,1118.000,13.481004652358024,1103.166158347642
919,1119.000,26.006252047089674,1103.9101939529103
920,1120.000,27.2802509325511,1104.652956067449
921,1121.000,13.075105037012008,1105.394441962988
922,1122.000,24.756739088742506,1106.1346489112575
923,1123.000,26.887663816012264,1106.8735741839878
924,1124.000,34.30920294709108,1107.6112150529088
925,1125.000,37.191560210249236,1108.3475687897508
926,1126.000,20.008967333755436,1109.0826326662445
927,1127.000,32.757519045881054,1109.8164039541189
928,1128.000,15.415519074894974,1110.548879925105
929,1129.000,14.423800149067574,1111.2800578509325
930,1130.000,19.07677699666806,1112.009935003332
931,1131.000,25.41622034596662,1112.7385086540335
932,1132.000,31.26775192523337,1113.4657760747666
933,1133.000,25.03458646273816,1114.191734537262
934,1134.000,28.283474686750196,1114.9163813132498
935,1135.000,25.990920325539946,1115.6397136744602
936,1136.000,34.67741410737699,1116.361728892623
937,1137.000,22.717235760531366,1117.0824242394685
938,1138.000,36.350417013273045,1117.801796986727
939,1139.000,34.72921659387157,1118.5198444061284
940,1140.000,37.632689230596725,1119.2365637694033
941,1141.000,33.468227651718735,1119.9519523482813
942,1142.000,46.851404585507,1120.666007414493
943,1143.000,40.33978076023186,1121.3787262397682
944,1144.000,32.954044904162856,1122.0901060958372
945,1145.000,41.70133374557008,1122.8001442544298
946,1146.000,56.907595012723505,1123.5088379872766
947,1147.000,60.01698643389227,1124.2161845661078
948,1148.000,68.44991273734695,1124.922181262653
949,1149.000,80.6564316513568,1125.6268253486433
950,1150.000,95.04213490419215,1126.3301140958079
951,1151.000,106.48845322412285,1127.0320447758772
952,1152.000,124.39996333941849,1127.7326146605815
953,1153.000,138.57733497834943,1128.4318210216506
954,1154.000,145.70969186918478,1129.1296611308153
955,1155.000,153.57952474019498,1129.826132259805
956,1156.000,152.4516543196496,1130.5212316803504
957,1157.000,138.16182533581832,1131.2149566641817
958,1158.000,131.27144751697142,1131.9073044830286
959,1159.000,95.99482459137835,1132.5982724086216
960,1160.000,90.13716928730969,1133.2878577126903
961,1161.000,85.15278733303467,1133.9760576669653
962,1162.000,68.05857245682319,1134.6628695431768
963,1163.000,64.57849438694507,1135.348290613055
964,1164.000,58.5536158516702,1136.0323181483298
965,1165.000,48.42387057926885,1136.714949420731
966,1166.000,51.50384729801044,1137.3961817019895
967,1167.000,50.67440073616467,1138.0760122638353
968,1168.000,32.3742496220018,1138.7544383779982
969,1169.000,46.05217368379181,1139.4314573162083
970,1170.000,64.17267764980397,1140.107066350196
971,1171.000,51.94000924830857,1140.7812627516914
972,1172.000,42.30787520757531,1141.4540437924247
973,1173.000,41.20465025587396,1142.125406744126
974,1174.000,66.76965712147489,1142.7953488785251
975,1175.000,53.165187532647224,1143.4638674673529
976,1176.000,62.243525217661045,1144.130959782339
977,1177.000,62.194401904786446,1144.7966230952136
978,1178.000,79.26290032229326,1145.4608546777067
979,1179.000,101.37226719845103,1146.123651801549
980,1180.000,108.02831326153023,1146.7850117384698
981,1181.000,119.51808123979981,1147.4449317602002
982,1182.000,135.5955258615304,1148.1034091384695
983,1183.000,151.4881828549917,1148.7604411450084
984,1184.000,139.35273794845307,1149.416025051547
985,1185.000,117.42795387018464,1150.0701581298154
986,1186.000,99.69483434845688,1150.7228376515432
987,1187.000,81.83440411153856,1151.3740608884614
988,1188.000,83.57967688770032,1152.0238251122996
989,1189.000,64.93427240521191,1152.672127594788
990,1190.000,48.62593139234309,1153.318965607657
991,1191.000,47.164090577363595,1153.9643364226365
992,1192.000,41.55496268854313,1154.6082373114568
993,1193.000,38.13062645415221,1155.2506655458478
994,1194.000,43.21228060246017,1155.8916183975398
995,1195.000,23.164834861736836,1156.5310931382633
996,1196.000,31.56014696025204,1157.1690870397479
997,1197.000,27.852615626276247,1157.8055973737237
998,1198.000,30.57671858807862,1158.4406214119215
999,1199.000,28.326128573929054,1159.0741564260709
1000,1200.000,32.09323331209794,1159.706199687902
1001,1201.000,29.194307530854758,1160.3367484691453
1002,1202.000,27.22153795846907,1160.9658000415309
1003,1203.000,26.349892323211407,1161.5933516767886
1004,1204.000,33.29404035335119,1162.2194006466489
1005,1205.000,25.938666777158232,1162.8439442228419
1006,1206.000,31.77346932290243,1163.4669796770975
1007,1207.000,18.32573171885406,1164.088504281146
1008,1208.000,15.878188693282254,1164.7085153067178
1009,1209.000,19.36633897445745,1165.3270100255424
1010,1210.000,25.70721329064918,1165.9439857093507
1011,1211.000,29.101920370128028,1166.559439629872
1012,1212.000,12.298736941162588,1167.1733690588374
1013,1213.000,9.797279732023753,1167.7857712679763
1014,1214.000,25.78484647098071,1168.3966435290192
1015,1215.000,21.412502886303855,1169.0059831136962
1016,1216.000,6.262538706262831,1169.6137872937372
1017,1217.000,16.80551465912731,1170.2200533408727
1018,1218.000,24.9272704731668,1170.8247785268331
1019,1219.000,18.173475876652446,1171.4279601233475
1020,1220.000,15.447463597852902,1172.0295954021472
1021,1221.000,11.484015365038658,1172.6296816349613
1022,1222.000,14.118249906478923,1173.228216093521
1023,1223.000,8.177762950444276,1173.8251960495556
1024,1224.000,22.54249222520457,1174.4206187747955
1025,1225.000,14.068931459028818,1175.0144815409712
1026,1226.000,23.433931380187687,1175.6067816198124
1027,1227.000,13.372708716950456,1176.1975162830495
1028,1228.000,18.443808197587487,1176.7866828024125
1029,1229.000,12.366937550368448,1177.3742784496314
1030,1230.000,26.511030503563234,1177.9603004964367
1031,1231.000,20.140892785441565,1178.5447462145585
1032,1232.000,29.757831124273252,1179.1276128757268
1033,1233.000,20.657017248328657,1179.7088977516714
1034,1234.000,18.769930885876647,1180.2885981141233
1035,1235.000,15.032762765188409,1180.8667112348116
1036,1236.000,15.690640614532185,1181.4432343854678
1037,1237.000,13.316888162179339,1182.0181648378207
1038,1238.000,24.84138013639904,1182.591499863601
1039,1239.000,26.060939265460775,1183.1632367345392
1040,1240.000,19.165578277635404,1183.7333727223645
1041,1241.000,11.58229790119185,1184.3019050988082
1042,1242.000,23.767690864400493,1184.8688311355995
1043,1243.000,31.40041089553074,1185.4341481044692
1044,1244.000,27.476675722853088,1185.997853277147
1045,1245.000,16.965852074636587,1186.5599439253633
1046,1246.000,15.036338679152095,1187.120417320848
1047,1247.000,11.453779264668356,1187.6792707353316
1048,1248.000,16.123812559455928,1188.236501440544
1049,1249.000,21.403092291784787,1188.7921067082152
1050,1250.000,23.43132618992422,1189.3460838100757
1051,1251.000,19.065295982144562,1189.8984300178554
1052,1252.000,18.922683396715456,1190.4491426032846
1053,1253.000,25.948791161906456,1190.9982188380936
1054,1254.000,17.896740005987795,1191.5456559940121
1055,1255.000,11.660125657229628,1192.0914513427704
1056,1256.000,6.6667528439013495,1192.6356021560987
1057,1257.000,19.329511294272834,1193.1781057057271
1058,1258.000,16.93826073661421,1193.7189592633858
1059,1259.000,12.080997899194927,1194.258160100805
1060,1260.000,13.640675510284836,1194.7957054897151
1061,1261.000,13.075920298154415,1195.3315927018457
1062,1262.000,9.757707991072948,1195.865819008927
1063,1263.000,21.54448731731054,1196.3983816826894
1064,1264.000,25.90243600513668,1196.9292779948632
1065,1265.000,10.3975827828217,1197.4585052171783
1066,1266.000,22.922493378635863,1197.9860606213642
1067,1267.000,25.50165252084753,1198.5119414791525
1068,1268.000,4.852648937727736,1199.0361450622722
1069,1269.000,10.210593357546259,1199.5586686424538
1070,1270.000,25.861776508572575,1200.0795094914274
1071,1271.000,3.8056331190764467,1200.5986648809235
1072,1272.000,14.355669917328441,1201.1161320826716
1073,1273.000,0.0,1201.6319083684023
1074,1274.000,8.895630990154359,1202.1459910098456
1075,1275.000,22.234888721268362,1202.6583772787317
1076,1276.000,13.782853553209407,1203.1690644467906
1077,1277.000,7.368901214247444,1203.6780497857526
1078,1278.000,20.918183432652313,1204.1853305673476
1079,1279.000,18.733028936693927,1204.690904063306
1080,1280.000,9.696708454641794,1205.1947675453582
1081,1281.000,15.356653714766253,1205.6969182852338
1082,1282.000,15.504089445336604,1206.1973535546633
1083,1283.000,8.69253737462327,1206.6960706253767
1084,1284.000,10.680536230895996,1207.193066769104
1085,1285.000,11.770411742424358,1207.6883392575755
1086,1286.000,27.513296637478106,1208.1818853625218
1087,1287.000,13.363189644328031,1208.673702355672
1088,1288.000,13.897659491242848,1209.1637875087572
1089,1289.000,12.348182906492639,1209.6521380935073
1090,1290.000,11.980294618347898,1210.1387513816521
1091,1291.000,11.316275355078005,1210.623624644922
1092,1292.000,30.344600844952765,1211.1067551550473
1093,1293.000,14.173691816242126,1211.5881401837578
1094,1294.000,8.677308997216187,1212.0677770027837
1095,1295.000,11.479171116144471,1212.5456628838556
1096,1296.000,16.811377901296964,1213.021795098703
1097,1297.000,6.527090080943481,1213.4961709190566
1098,1298.000,23.723531383353702,1213.9687876166463
1099,1299.000,18.23122453679821,1214.4396424632018
1100,1300.000,24.54519226954585,1214.9087327304542
1101,1301.000,13.032384309866984,1215.376055690133
1102,1302.000,8.977945386031479,1215.8416086139684
1103,1303.000,20.963504226309396,1216.3053887736905
1104,1304.000,7.40087255897015,1216.7673934410298
1105,1305.000,22.536078112283803,1217.2276198877162
1106,1306.000,7.528663614520383,1217.6860653854797
1107,1307.000,12.475984793949237,1218.1427272060507
1108,1308.000,6.8394963788407495,1218.5976026211592
1109,1309.000,10.749464097464397,1219.0506889025355
1110,1310.000,10.75836067809064,1219.5019833219094
1111,1311.000,15.444362848988476,1219.9514831510114
1112,1312.000,7.773061338428306,1220.3991856615717
1113,1313.000,9.41833687467988,1220.8450881253202
1114,1314.000,9.244171186012863,1221.2891878139872
1115,1315.000,16.71463900069739,1221.7314819993026
1116,1316.000,20.645648047003533,1222.1719679529965
1117,1317.000,21.177061053200532,1222.6106429467995
1118,1318.000,6.50616374755873,1223.0475042524413
1119,1319.000,14.113760858347177,1223.4825491416527
1120,1320.000,10.538563113836972,1223.915774886163
1121,1321.000,13.165844242296998,1224.347178757703
1122,1322.000,20.606003971997552,1224.7767580280024
1123,1323.000,13.2439830312087,1225.2045099687914
1124,1324.000,11.662102148199438,1225.6304318518005
1125,1325.000,17.565316051240416,1226.0545209487595
1126,1326.000,16.995139468601337,1226.4767745313986
1127,1327.000,19.30042912855197,1226.897189871448
1128,1328.000,9.053866759361881,1227.3157642406381
1129,1329.000,14.782813089301271,1227.7324949106987
1130,1330.000,24.489935846640037,1228.14737915336
1131,1331.000,16.342356759648283,1228.5604142403517
1132,1332.000,24.937672556594862,1228.9715974434052
1133,1333.000,3.7907849657503903,1229.3809260342496
1134,1334.000,5.705547715384682,1229.7883972846153
1135,1335.000,20.90021153376756,1230.1940084662324
1136,1336.000,4.579147149169103,1230.5977568508308
1137,1337.000,12.607592289858758,1230.9996397101413
1138,1338.000,4.52335868410637,1231.3996543158937
1139,1339.000,20.315156060181607,1231.7977979398183
1140,1340.000,7.8540191463550855,1232.1940678536448
1141,1341.000,15.042588670896293,1232.5884613291037
1142,1342.000,5.473939362075043,1232.980975637925
1143,1343.000,9.22390494816068,1233.3716080518393
1144,1344.000,16.473644157424133,1233.7603558425758
1145,1345.000,27.97004871813442,1234.1472162818657
1146,1346.000,20.156585358561642,1234.5321866414383
1147,1347.000,12.443218806975437,1234.9152641930245
1148,1348.000,16.432988791646267,1235.2964462083537
1149,1349.000,19.009349040843745,1235.6757299591563
1150,1350.000,14.334159282836936,1236.053112717163
1151,1351.000,1.4029192458967827,1236.4285917541033
1152,1352.000,25.186467658292713,1236.8021643417073
1153,1353.000,26.842761248294437,1237.1738277517056
1154,1354.000,7.010094744171738,1237.5435792558283
1155,1355.000,18.65849187419508,1237.9114161258049
1156,1356.000,18.593471366633594,1238.2773356333664
1157,1357.000,18.548869949758,1238.641335050242
1158,1358.000,18.12028835183719,1239.003411648163
1159,1359.000,8.248442301141267,1239.3635626988587
1160,1360.000,17.522790525940536,1239.7217854740595
1161,1361.000,16.397485754504487,1240.0780772454955
1162,1362.000,4.392994715103214,1240.4324352848969
1163,1363.000,6.4130271360061215,1240.7848568639938
1164,1364.000,21.687075745483526,1241.1353392545166
1165,1365.000,6.2994142718050625,1241.483879728195
1166,1366.000,5.382095443240814,1241.8304755567592
1167,1367.000,8.89658098806035,1242.1751240119397
1168,1368.000,11.68430163453354,1242.5178223654664
1169,1369.000,8.534865110930468,1242.8585678890695
1170,1370.000,9.141298145520523,1243.1973578544794
1171,1371.000,4.581867466574522,1243.5341895334254
1172,1372.000,15.110360802361356,1243.8690601976386
1173,1373.000,25.96350288115127,1244.2019671188486
1174,1374.000,17.344585431214,1244.532907568786
1175,1375.000,15.87240418081933,1244.8618788191807
1176,1376.000,16.238895858237584,1245.1888781417624
1177,1377.000,11.24114619173838,1245.5139028082617
1178,1378.000,17.683079909590788,1245.8369500904091
1179,1379.000,2.244813740065865,1246.1580172599342
1180,1380.000,15.69245341143278,1246.4771015885672
1181,1381.000,11.790665651961717,1246.7942003480382
1182,1382.000,20.631136189922245,1247.1093108100777
1183,1383.000,7.102446753584445,1247.4224302464156
1184,1384.000,12.776100071218252,1247.7335559287817
1185,1385.000,21.158806871092793,1248.0426851289071
1186,1386.000,9.60184488147911,1248.3498151185208
1187,1387.000,8.57651183064604,1248.654943169354
1188,1388.000,10.086394446863778,1248.9580665531362
1189,1389.000,16.244838458402455,1249.2591825415975
1190,1390.000,23.634051593531694,1249.5582884064684
1191,1391.000,8.076393580521199,1249.8553814194788
1192,1392.000,0.0,1250.150458852359
1193,1393.000,13.381919023161117,1250.4435179768388
1194,1394.000,7.682609935350911,1250.734556064649
1195,1395.000,19.00304761248094,1251.0235703875192
1196,1396.000,8.948470782820323,1251.3105582171797
1197,1397.000,5.563071174639163,1251.5955168253608
1198,1398.000,8.700172516207658,1251.8784434837924
1199,1399.000,10.28417853579549,1252.1593354642046
1200,1400.000,10.794562961672227,1252.4381900383278
1201,1401.000,10.20502852210825,1252.7150044778919
1202,1402.000,9.866208945372364,1252.9897760546276
1203,1403.000,14.406820959736024,1253.262502040264
1204,1404.000,4.953664293467682,1253.5331797065323
1205,1405.000,7.698659674837927,1253.801806325162
1206,1406.000,16.99006883211632,1254.0683791678837
1207,1407.000,15.855231493572774,1254.3328955064271
1208,1408.000,19.379272387477386,1254.5953526125227
1209,1409.000,11.897763242099472,1254.8557477579004
1210,1410.000,14.416475785709508,1255.1140782142904
1211,1411.000,19.130727746576895,1255.370341253423
1212,1412.000,13.73411485297197,1255.624534147028
1213,1413.000,20.87401783316386,1255.876654166836
1214,1414.000,19.27246841542319,1256.1266985845768
1215,1415.000,2.2119323280189747,1256.374664671981
1216,1416.000,26.280951299221897,1256.6205497007782
1217,1417.000,11.029493057301579,1256.8643509426984
1218,1418.000,20.229186330527682,1257.1060656694724
1219,1419.000,23.737215847169864,1257.34569115283
1220,1420.000,19.26474333549868,1257.5832246645014
1221,1421.000,10.024867523783087,1257.818663476217
1222,1422.000,18.156092140293822,1258.0520048597061
1223,1423.000,23.011188913300202,1258.2832460866998
1224,1424.000,21.744667571072114,1258.5123844289278
1225,1425.000,20.99537484187954,1258.7394171581204
1226,1426.000,30.651783453992266,1258.9643415460077
1227,1427.000,23.390383135680622,1259.1871548643194
1228,1428.000,32.5610566152136,1259.4078543847863
1229,1429.000,34.12995162086145,1259.6264373791385
1230,1430.000,37.00060388089423,1259.8429011191058
1231,1431.000,33.39968212358144,1260.0572428764185
1232,1432.000,31.769427077193313,1260.2694599228066
1233,1433.000,34.39299346999951,1260.4795495300004
1234,1434.000,32.938127030269925,1260.68750896973
1235,1435.000,37.80535248627439,1260.8933355137256
1236,1436.000,39.02818456628256,1261.0970264337175
1237,1437.000,42.512262998564665,1261.2985790014354
1238,1438.000,58.02576551139009,1261.49799048861
1239,1439.000,74.77387083302938,1261.6952581669707
1240,1440.000,76.34997269175187,1261.8903793082482
1241,1441.000,87.57592181582754,1262.0833511841724
1242,1442.000,103.78346393352581,1262.274171066474
1243,1443.000,118.02813477311724,1262.4628362268827
1244,1444.000,129.91318506287166,1262.6493439371284
1245,1445.000,143.2608865310583,1262.8336914689417
1246,1446.000,174.39467890594733,1263.0158760940526
1247,1447.000,178.78105691580913,1263.1958950841909
1248,1448.000,208.86100928891256,1263.3737457110874
1249,1449.000,217.72195875352804,1263.5494252464719
1250,1450.000,226.48102603792563,1263.7229309620743
1251,1451.000,209.54637887037507,1263.8942601296249
1252,1452.000,197.95854697914592,1264.063410020854
1253,1453.000,188.57681809250812,1264.2303779074919
1254,1454.000,171.57250993873208,1264.395161061268
1255,1455.000,150.06591824608654,1264.5577567539135
1256,1456.000,138.17425374284198,1264.718162257158
1257,1457.000,118.90533015726874,1264.8763748427314
1258,1458.000,96.98989521763565,1265.0323917823644
1259,1459.000,83.88507265221347,1265.1862103477865
1260,1460.000,73.81361218927168,1265.3378278107284
1261,1461.000,70.64501355708035,1265.4872414429196
1262,1462.000,53.623635483908856,1265.6344485160912
1263,1463.000,50.72066969802722,1265.7794463019727
1264,1464.000,33.49833592770574,1265.9222320722943
1265,1465.000,47.70842390121402,1266.062803098786
1266,1466.000,45.15342834682133,1266.2011566531787
1267,1467.000,31.019227992798733,1266.3372900072013
1268,1468.000,21.037881567414843,1266.4712004325852
1269,1469.000,30.71154979894004,1266.60288520106
1270,1470.000,39.80643541564427,1266.7323415843557
1271,1471.000,24.013082145797398,1266.8595668542025
1272,1472.000,20.214809717669596,1266.9845582823305
1273,1473.000,29.202698859529846,1267.10731314047
1274,1474.000,11.48354129964855,1267.2278287003514
1275,1475.000,25.22060076629532,1267.3461022337046
1276,1476.000,26.604053987740144,1267.4621310122598
1277,1477.000,24.654051692253688,1267.5759123077464
1278,1478.000,7.888697608104394,1267.6874433918956
1279,1479.000,11.037436463562472,1267.7967215364374
1280,1480.000,18.694410986898447,1267.9037440131015
1281,1481.000,16.18919590638211,1268.0085080936178
1282,1482.000,21.308974950282618,1268.1110110497175
1283,1483.000,10.637693846870434,1268.2112501531296
1284,1484.000,13.791086324414664,1268.3092226755853
1285,1485.000,17.32494311118603,1268.404925888814
1286,1486.000,7.572459935454162,1268.4983570645459
1287,1487.000,15.499389525488596,1268.5895134745115
1288,1488.000,4.593437609559487,1268.6783923904404
1289,1489.000,14.065225915936708,1268.7649910840632
1290,1490.000,17.349767172890097,1268.84930682711
1291,1491.000,11.478665108688801,1268.9313368913113
1292,1492.000,9.954750451603786,1269.0110785483962
1293,1493.000,0.0,1269.0885290700958
1294,1494.000,6.845825271859894,1269.16368572814
1295,1495.000,4.819151205741264,1269.2365457942587
1296,1496.000,11.764547459817777,1269.3071065401823
1297,1497.000,0.0,1269.3753652376408
1298,1498.000,1.8521018416356583,1269.4413191583644
1299,1499.000,3.6613024259168014,1269.5049655740831
1300,1500.000,0.7006652434724856,1269.5663017565275
1301,1501.000,8.11307102257274,1269.6253249774272
1302,1502.000,0.9080974914872968,1269.6820325085127
1303,1503.000,0.0,1269.7364216215142
1304,1504.000,4.348698411838768,1269.7884895881612
1305,1505.000,11.128805319815456,1269.8382336801847
1306,1506.000,10.14213383068568,1269.8856511693143
1307,1507.000,2.0715066727198064,1269.9307393272802
1308,1508.000,5.776068574187093,1269.9734954258129
1309,1509.000,5.583409263358135,1270.013916736642
1310,1510.000,13.252433468501522,1270.0520005314984
1311,1511.000,0.3285359178885301,1270.0877440821114
1312,1512.000,7.954235339788511,1270.1211446602115
1313,1513.000,2.8898394624711727,1270.1521995375288
1314,1514.000,0.08340401420628041,1270.1809059857937
1315,1515.000,12.138753723264017,1270.207261276736
1316,1516.000,7.636917317913685,1270.2312626820863
1317,1517.000,0.0,1270.2529074735744
1318,1518.000,10.891803077069426,1270.2721929229306
1319,1519.000,7.112331698115668,1270.2891163018844
1320,1520.000,6.11640511783321,1270.303674882167
1321,1521.000,2.8844180644919106,1270.315865935508
1322,1522.000,3.8548212663627055,1270.3256867336372
1323,1523.000,9.97395245171424,1270.3331345482857
1324,1524.000,9.247431348817372,1270.3382066511826
1325,1525.000,8.702112685941302,1270.3409003140587
1326,1526.000,11.568046191356189,1270.3412128086438
1327,1527.000,17.37249559333145,1270.3391414066687
1328,1528.000,0.0,1270.3346833798623
1329,1529.000,1.850581000044258,1270.3278359999558
1330,1530.000,21.92307146132066,1270.3185965386792
1331,1531.000,0.0,1270.3069622677622
1332,1532.000,5.673966541064374,1270.2929304589356
1333,1533.000,0.0,1270.2764983839288
1334,1534.000,0.0,1270.2576633144727
1335,1535.000,0.0,1270.2364225222968
1336,1536.000,0.0,1270.2127732791319
1337,1537.000,0.0,1270.1867128567073
1338,1538.000,8.754285473246227,1270.1582385267538
1339,1539.000,7.244719438999027,1270.127347561001
1340,1540.000,1.7594687688201702,1270.0940372311798
1341,1541.000,5.546293190980123,1270.0583048090198
1342,1542.000,0.0,1270.0201475662511
1343,1543.000,0.7113342253956034,1269.9795627746043
1344,1544.000,0.0,1269.936547705809
1345,1545.000,10.773557368404227,1269.8910996315958
1346,1546.000,5.463946176304944,1269.8432158236951
1347,1547.000,15.900545446164188,1269.7928935538357
1348,1548.000,6.325700906250404,1269.7401300937495
1349,1549.000,6.957669284834765,1269.6849227151652
1350,1550.000,0.0,1269.6272686898137
1351,1551.000,1.3297657105752023,1269.5671652894248
1352,1552.000,8.632072214270693,1269.5046097857294
1353,1553.000,0.0,1269.4395994504566
1354,1554.000,18.315313444662934,1269.372131555337
1355,1555.000,8.93723162789911,1269.3022033721008
1356,1556.000,4.099432827521468,1269.2298121724784
1357,1557.000,3.630783771800907,1269.154955228199
1358,1558.000,13.740991189005854,1269.077629810994
1359,1559.000,18.959490807406837,1268.9978331925931
1360,1560.000,13.80331535527398,1268.915562644726
1361,1561.000,16.268612560877045,1268.830815439123
1362,1562.000,16.05502915248576,1268.7435888475143
1363,1563.000,13.208484858369502,1268.6538801416305
1364,1564.000,16.598720406798975,1268.561686593201
1365,1565.000,15.91484252604323,1268.4670054739568
1366,1566.000,17.499290944372888,1268.369834055627
1367,1567.000,28.79772739005739,1268.2701696099425
1368,1568.000,17.147692591366877,1268.1680094086332
1369,1569.000,33.331851276570205,1268.0633507234297
1370,1570.000,20.6434731739389,1267.9561908260612
1371,1571.000,34.11668801174096,1267.846526988259
1372,1572.000,50.215586518248074,1267.734356481752
1373,1573.000,42.172066421728914,1267.619676578271
1374,1574.000,52.37520445045311,1267.5024845495468
1375,1575.000,58.615683332692015,1267.382777667308
1376,1576.000,88.0830447967137,1267.2605532032862
1377,1577.000,98.00233457078934,1267.1358084292106
1378,1578.000,100.42670038318806,1267.0085406168118
1379,1579.000,135.9277379621799,1266.8787470378202
1380,1580.000,153.88932003603486,1266.7464249639652
1381,1581.000,189.8293563330226,1266.6115716669774
1382,1582.000,214.1476575814131,1266.474184418587
1383,1583.000,220.8120665094757,1266.3342604905242
1384,1584.000,214.60872284548145,1266.1917971545186
1385,1585.000,209.82336931769964,1266.0467916823004
1386,1586.000,165.40743165439926,1265.8992413456008
1387,1587.000,161.37801358385104,1265.7491434161489
1388,1588.000,132.99693483432475,1265.5964951656752
1389,1589.000,122.60975013409075,1265.4412938659093
1390,1590.000,135.6806202114176,1265.2835367885823
1391,1591.000,117.80125579457626,1265.1232212054238
1392,1592.000,123.9062246118358,1264.9603443881642
1393,1593.000,136.83928039146667,1264.7949036085333
1394,1594.000,157.61741586173844,1264.6268961382616
1395,1595.000,167.33295275092087,1264.4563192490791
1396,1596.000,212.88479578728447,1264.2831702127155
1397,1597.000,256.4054466990983,1264.1074463009018
1398,1598.000,303.3002742146325,1263.9291447853675
1399,1599.000,410.4715070621571,1263.7482629378428
1400,1600.000,500.00175096994167,1263.5647980300582
1401,1601.000,587.6661246662566,1263.3787473337434
1402,1602.000,626.9121808793711,1263.1901081206288
1403,1603.000,591.9444363375555,1262.9988776624446
1404,1604.000,493.4311387690793,1262.8050532309207
1405,1605.000,400.45243990221206,1262.608632097788
1406,1606.000,307.69118246522385,1262.409611534776
1407,1607.000,251.50539218638596,1262.207988813614
1408,1608.000,197.9318537939664,1262.0037612060337
1409,1609.000,156.70678301623548,1261.7969259837646
1410,1610.000,120.40223158146318,1261.5874804185369
1411,1611.000,95.4501782179193,1261.3754217820806
1412,1612.000,81.10866965387413,1261.1607473461258
1413,1613.000,81.52637261759673,1260.9434543824032
1414,1614.000,60.683034837358264,1260.7235401626417
1415,1615.000,41.448590041426996,1260.501001958573
1416,1616.000,41.59130495807403,1260.275837041926
1417,1617.000,39.1973453155681,1260.048042684432
1418,1618.000,39.30753984218018,1259.8176161578199
1419,1619.000,31.600292266179395,1259.5845547338206
1420,1620.000,24.419311315835557,1259.3488556841644
1421,1621.000,33.65978371941924,1259.1105162805807
1422,1622.000,22.732338205199767,1258.8695337948002
1423,1623.000,18.652406501446876,1258.625905498553
1424,1624.000,13.888653336430934,1258.379628663569
1425,1625.000,14.662938438421179,1258.1307005615788
1426,1626.000,7.328684535688126,1257.879118464312
1427,1627.000,1.7340243565006404,1257.6248796434993
1428,1628.000,18.304565629129456,1257.3679813708704
1429,1629.000,15.303334081844469,1257.1084209181556
1430,1630.000,9.74327044291499,1256.846195557085
1431,1631.000,7.754234440611526,1256.5813025593884
1432,1632.000,9.799226803203055,1256.3137391967969
1433,1633.000,17.57896625896001,1256.04350274104
1434,1634.000,0.0,1255.7705904638478
1435,1635.000,0.0,1255.4949996369505
1436,1636.000,1.9052654679217085,1255.2167275320783
1437,1637.000,12.065095579038598,1254.9357714209614
1438,1638.000,1.9565914246697957,1254.6521285753302
1439,1639.000,0.0,1254.3657962669142
1440,1640.000,0.0,1254.076771767444
1441,1641.000,2.0480166513505083,1253.7850523486495
1442,1642.000,0.0,1253.4906352822609
1443,1643.000,0.0,1253.1935178400088
1444,1644.000,0.0,1252.893697293623
1445,1645.000,8.961707085166836,1252.5911709148331
1446,1646.000,7.779589024629786,1252.2859359753702
1447,1647.000,0.0,1251.9779897469637
1448,1648.000,6.036711498655677,1251.6673295013443
1449,1649.000,1.622311489758431,1251.3539525102415
1450,1650.000,0.0,1251.0378560453862
1451,1651.000,0.0,1250.7190373785083
1452,1652.000,0.5374042186626866,1250.3974937813373
1453,1653.000,7.765834474395433,1250.0732225256045
1454,1654.000,0.0,1249.7462208830389
1455,1655.000,0.0,1249.4164861253716
1456,1656.000,0.0,1249.0840155243322
1457,1657.000,2.384011648349315,1248.7488063516507
1458,1658.000,2.9793871209424196,1248.4108558790576
1459,1659.000,0.0,1248.070161378283
1460,1660.000,0.0,1247.726720121057
1461,1661.000,0.0,1247.38052937911
1462,1662.000,0.0,1247.0315864241716
1463,1663.000,0.0,1246.6798885279723
1464,1664.000,0.0,1246.3254329622418
1465,1665.000,0.0,1245.968216998711
1466,1666.000,0.0,1245.6082379091094
1467,1667.000,3.0090030348324035,1245.2454929651676
1468,1668.000,11.663779561384217,1244.8799794386157
1469,1669.000,0.0,1244.511694601183
1470,1670.000,0.0,1244.140635724601
1471,1671.000,0.5237699194005927,1243.7668000805993
1472,1672.000,0.0,1243.3901849409076
1473,1673.000,0.0,1243.0107875772565
1474,1674.000,0.0,1242.6286052613757
1475,1675.000,0.0,1242.243635264996
1476,1676.000,0.0,1241.8558748598473
1477,1677.000,0.0,1241.4653213176593
1478,1678.000,0.0,1241.071971910163
1479,1679.000,0.0,1240.6758239090877
1480,1680.000,0.0,1240.2768745861636
1481,1681.000,0.0,1239.8751212131215
1482,1682.000,0.0,1239.4705610616911
1483,1683.000,1.6650695963971884,1239.0631914036028
1484,1684.000,0.0,1238.6530095105866
1485,1685.000,0.0,1238.240012654372
1486,1686.000,0.14253789330973632,1237.8241981066903
1487,1687.000,0.0,1237.405563139271
1488,1688.000,0.0,1236.9841050238444
1489,1689.000,0.0,1236.5598210321407
1490,1690.000,0.0,1236.1327084358895
1491,1691.000,0.0,1235.702764506822
1492,1692.000,0.0,1235.2699865166671
1493,1693.000,0.0,1234.834371737156
1494,1694.000,0.0,1234.3959174400184
1495,1695.000,1.3141561030156481,1233.9546208969844
1496,1696.000,0.0,1233.510479379784
1497,1697.000,0.0,1233.0634901601475
1498,1698.000,0.0,1232.6136505098057
1499,1699.000,0.0,1232.1609577004876
1500,1700.000,0.40472799607573506,1231.7054090039242
1501,1701.000,0.0,1231.247001691845
1502,1702.000,0.0,1230.7857330359805
1503,1703.000,0.0,1230.321600308061
1504,1704.000,2.17569922018356,1229.8546007798163
1505,1705.000,0.0,1229.384731722977
1506,1706.000,0.0,1228.9119904092731
1507,1707.000,2.0516318895656696,1228.4363741104344
1508,1708.000,0.0,1227.957880098191
1509,1709.000,0.0,1227.4765056442734
1510,1710.000,0.0,1226.9922480204116
1511,1711.000,2.5493895016638817,1226.505104498336
1512,1712.000,6.360818650223109,1226.0150723497768
1513,1713.000,0.0,1225.522148846463
1514,1714.000,0.0,1225.0263312601262
1515,1715.000,0.0,1224.5276168624957
1516,1716.000,0.0,1224.0260029253022
1517,1717.000,0.5038902797241462,1223.5214867202758
1518,1718.000,0.0,1223.0140655191458
1519,1719.000,0.0,1222.5037365936428
1520,1720.000,0.0,1221.9904972154977
1521,1721.000,0.0,1221.4743446564398
1522,1722.000,0.0,1220.9552761881996
1523,1723.000,0.0,1220.4332890825071
1524,1724.000,5.466545388907434,1219.9083806110925
1525,1725.000,0.0,1219.3805480456856
1526,1726.000,1.4662413419828226,1218.8497886580171
1527,1727.000,0.0,1218.3160997198165
1528,1728.000,0.0,1217.779478502815
1529,1729.000,0.0,1217.2399222787421
1530,1730.000,0.0,1216.6974283193272
1531,1731.000,0.0,1216.1519938963017
1532,1732.000,0.0,1215.6036162813953
1533,1733.000,0.0,1215.052292746338
1534,1734.000,0.0,1214.49802056286
1535,1735.000,9.616219997309145,1213.940797002691
1536,1736.000,0.0,1213.3806193375622
1537,1737.000,3.9408581607972337,1212.8174848392027
1538,1738.000,3.2761792206563314,1212.2513907793436
1539,1739.000,0.0,1211.6823344297145
1540,1740.000,0.0,1211.1103130620456
1541,1741.000,0.0,1210.5353239480667
1542,1742.000,0.0,1209.9573643595081
1543,1743.000,0.0,1209.3764315681005
1544,1744.000,1.8208451544262516,1208.7925228455738
1545,1745.000,0.0,1208.205635463658
1546,1746.000,0.0,1207.6157666940828
1547,1747.000,0.0,1207.022913808579
1548,1748.000,0.0,1206.4270740788768
1549,1749.000,2.535221223294002,1205.828244776706
1550,1750.000,0.0,1205.2264231737965
1551,1751.000,0.0,1204.6216065418794
1552,1752.000,4.855450847316206,1204.013792152684
1553,1753.000,0.0,1203.4029772779402
1554,1754.000,0.0,1202.7891591893792
1555,1755.000,1.1903618412698052,1202.1723351587302
1556,1756.000,2.1995255422759783,1201.5525024577241
1557,1757.000,7.1696236419095385,1200.9296583580904
1558,1758.000,5.069231868440738,1200.3038001315592
1559,1759.000,0.0,1199.674925049861
1560,1760.000,10.27622061527336,1199.0430303847265
1561,1761.000,8.307034592115315,1198.4081134078847
1562,1762.000,8.295856608933036,1197.770171391067
1563,1763.000,0.0,1197.129201606002
1564,1764.000,0.0,1196.4852013244208
1565,1765.000,2.2788151819463565,1195.8381678180535
1566,1766.000,3.450996641369784,1195.1880983586302
1567,1767.000,2.921364782118644,1194.5349902178814
1568,1768.000,1.182533332463663,1193.8788406675362
1569,1769.000,0.0,1193.2196469793257
1570,1770.000,3.6669055750205644,1192.5574064249795
1571,1771.000,0.0,1191.8921162762285
1572,1772.000,0.0,1191.223773804802
1573,1773.000,0.0,1190.5523762824303
1574,1774.000,2.1642850191560683,1189.877920980844
1575,1775.000,0.0,1189.2004051717727
1576,1776.000,0.0,1188.519826126947
1577,1777.000,9.99243788190256,1187.8361811180973
1578,1778.000,7.511743583047519,1187.1494674169526
1579,1779.000,9.0426337047561,1186.459682295244
1580,1780.000,2.473000975298646,1185.7668230247014
1581,1781.000,0.0,1185.0708868770548
1582,1782.000,7.911297875965602,1184.3718711240344
1583,1783.000,15.086623962629346,1183.6697730373708
1584,1784.000,3.113246111206081,1182.9645898887939
1585,1785.000,10.643921049966593,1182.2563189500333
1586,1786.000,6.862309507180726,1181.5449574928193
1587,1787.000,0.0,1180.8305027888828
1588,1788.000,16.117452890046707,1180.1129521099533
1589,1789.000,0.3369472722388309,1179.3923027277613
1590,1790.000,1.2920830859632133,1178.6685519140367
1591,1791.000,11.434804059490716,1177.9416969405092
1592,1792.000,0.0,1177.2117350789097
1593,1793.000,10.600340399031893,1176.478663600968
1594,1794.000,3.6064662215853787,1175.7424797784147
1595,1795.000,12.33087611702058,1175.0031808829794
1596,1796.000,0.0,1174.2607641863924
1597,1797.000,4.236697039616274,1173.5152269603836
1598,1798.000,8.433803523316328,1172.7665664766837
1599,1799.000,0.0,1172.0147800070222
1600,1800.000,14.229132176869825,1171.25986482313
1601,1801.000,6.973501803263389,1170.5018181967366
1602,1802.000,3.8620536004273163,1169.7406373995727
1603,1803.000,0.0,1168.9763197033676
1604,1804.000,8.685216620147685,1168.2088623798522
1605,1805.000,10.367967299243446,1167.4382627007565
1606,1806.000,18.57590106218936,1166.6645179378106
1607,1807.000,19.158555637255404,1165.8876253627445
1608,1808.000,20.460539752711384,1165.1075822472885
1609,1809.000,18.25547913682726,1164.3243858631727
1610,1810.000,11.683687517873295,1163.5380334821266
1611,1811.000,11.366455624118089,1162.748522375882
1612,1812.000,18.945985183832363,1161.9558498161675
1613,1813.000,18.11207092528616,1161.1600130747138
1614,1814.000,0.0,1160.3610094232513
1615,1815.000,12.458561866490527,1159.5588361335094
1616,1816.000,15.12603952278073,1158.7534904772192
1617,1817.000,12.124597273889776,1157.9449697261102
1618,1818.000,16.73909684808723,1157.1332711519128
1619,1819.000,16.96984997364325,1156.3183920263568
1620,1820.000,11.607764378827596,1155.5003296211723
1621,1821.000,19.14822579190991,1154.67908120809
1622,1822.000,11.455625941159724,1153.8546440588402
1623,1823.000,2.785571554847593,1153.0270154451523
1624,1824.000,16.55231336124325,1152.1961926387567
1625,1825.000,11.285752088616618,1151.3621729113834
1626,1826.000,18.94366946523678,1150.5249535347632
1627,1827.000,15.01306321937409,1149.684531780626
1628,1828.000,19.596797079298767,1148.8409049207012
1629,1829.000,11.154751773280395,1147.9940702267197
1630,1830.000,20.88494602958849,1147.1440249704115
1631,1831.000,27.060622576493643,1146.2907664235063
1632,1832.000,18.306532142264814,1145.4342918577352
1633,1833.000,18.249479455172605,1144.5745985448275
1634,1834.000,8.77501924348644,1143.7116837565136
1635,1835.000,29.35742723547628,1142.8455447645238
1636,1836.000,14.803819159412342,1141.9761788405876
1637,1837.000,22.562334743563497,1141.1035832564364
1638,1838.000,21.467118716200957,1140.227755283799
1639,1839.000,23.684730805593517,1139.3486921944066
1640,1840.000,24.160151740011088,1138.466391259989
1641,1841.000,19.07889424772452,1137.5808497522755
1642,1842.000,13.258007057002942,1136.6920649429971
1643,1843.000,21.496015896115523,1135.8000341038844
1644,1844.000,20.949513493333143,1134.904754506667
1645,1845.000,19.09654657692522,1134.0062234230747
1646,1846.000,18.017120875162163,1133.1044381248378
1647,1847.000,9.775418116312949,1132.199395883687
1648,1848.000,28.627227028648576,1131.2910939713515
1649,1849.000,7.779109340437344,1130.3795296595626
1650,1850.000,22.80036477995054,1129.4647002200495
1651,1851.000,27.03742207545747,1128.5466029245426
1652,1852.000,26.432917955227367,1127.6252350447726
1653,1853.000,15.869219147531567,1126.7005938524685
1654,1854.000,26.185641380638117,1125.7726766193618
1655,1855.000,19.394642382818347,1124.8414806171816
1656,1856.000,29.032177882341784,1123.9070031176582
1657,1857.000,22.89383660747785,1122.9692413925222
1658,1858.000,22.880719286496742,1122.0281927135034
1659,1859.000,19.1993786476678,1121.0838543523323
1660,1860.000,20.6006774192615,1120.1362235807385
1661,1861.000,20.1543333295474,1119.1852976704527
1662,1862.000,35.21608310679517,1118.231073893205
1663,1863.000,28.074838479275286,1117.2735495207248
1664,1864.000,22.57149117525728,1116.3127218247428
1665,1865.000,31.893846923010642,1115.3485880769892
1666,1866.000,23.37873045080596,1114.3811455491941
1667,1867.000,30.348725486912144,1113.410391513088
1668,1868.000,33.3307587595998,1112.4363232404003
1669,1869.000,27.823985997138834,1111.4589380028613
1670,1870.000,31.895811927798604,1110.4782330722014
1671,1871.000,32.34799127984911,1109.4942057201508
1672,1872.000,24.52509278156026,1108.5068532184398
1673,1873.000,34.529075161201945,1107.516172838798
1674,1874.000,23.449277147044086,1106.5221618529558
1675,1875.000,26.63460146735656,1105.5248175326435
1676,1876.000,33.209050850409085,1104.5241371495908
1677,1877.000,33.912758024471714,1103.5201179755284
1678,1878.000,34.58087271781392,1102.5127572821862
1679,1879.000,33.14594965870583,1101.502052341294
1680,1880.000,24.36697457541709,1100.4880004245829
1681,1881.000,39.497029196218136,1099.470598803782
1682,1882.000,26.705688249378,1098.449844750622
1683,1883.000,25.822699463167282,1097.4257355368327
1684,1884.000,45.41321756585512,1096.398268434145
1685,1885.000,31.950175285711794,1095.3674407142883
1686,1886.000,29.61354635100747,1094.3332496489925
1687,1887.000,26.236829490011132,1093.2956925099888
1688,1888.000,40.36639743099363,1092.2547665690063
1689,1889.000,27.40104090222394,1091.210469097776
1690,1890.000,31.237699631972646,1090.1627973680274
1691,1891.000,39.051007348509074,1089.1117486514909
1692,1892.000,27.40034478010307,1088.0573202198968
1693,1893.000,52.703310655025234,1086.9995093449747
1694,1894.000,35.96323370154414,1085.9383132984558
1695,1895.000,40.43071164793105,1084.873729352069
1696,1896.000,44.46865222245469,1083.8057547775454
1697,1897.000,40.13359115338585,1082.7343868466141
1698,1898.000,42.12778216899369,1081.6596228310063
1699,1899.000,37.09254799754808,1080.5814600024519
1700,1900.000,51.18643336731907,1079.4998956326808
1701,1901.000,41.084372006576814,1078.4149269934233
1702,1902.000,53.94572964359077,1077.3265513564093
1703,1903.000,49.80051200663115,1076.234765993369
1704,1904.000,50.13851882396716,1075.1395681760328
1705,1905.000,39.799151823869124,1074.0409551761309
1706,1906.000,43.07767373460706,1072.9389242653929
1707,1907.000,35.38837628445026,1071.8334727155498
1708,1908.000,53.596739201668925,1070.7245977983312
1709,1909.000,36.17550221453325,1069.6122967854667
1710,1910.000,44.081417051312656,1068.4965669486874
1711,1911.000,51.92074944027695,1067.377405559723
1712,1912.000,34.76058610969608,1066.254809890304
1713,1913.000,51.76693278783978,1065.1287772121602
1714,1914.000,38.831325202978405,1063.9993047970215
1715,1915.000,48.6311950833815,1062.8663899166186
1716,1916.000,49.57058215731877,1061.7300298426812
1717,1917.000,52.56851415306005,1060.59022184694
1718,1918.000,50.83347979887526,1059.4469632011248
1719,1919.000,48.315324823034416,1058.3002511769655
1720,1920.000,52.765410953807304,1057.1500830461928
1721,1921.000,61.78283391946388,1055.996456080536
1722,1922.000,45.266274448273634,1054.8393675517264
1723,1923.000,53.2392482685068,1053.6788147314933
1724,1924.000,52.25173110843343,1052.5147948915667
1725,1925.000,57.378779696322454,1051.3473053036776
1726,1926.000,47.8159637604449,1050.176343239555
1727,1927.000,44.406121029069254,1049.0019059709307
1728,1928.000,64.35862123046672,1047.8239907695333
1729,1929.000,55.87068109290681,1046.642594907093
1730,1930.000,57.74574734465864,1045.4577156553414
1731,1931.000,79.704124713993,1044.269350286007
1732,1932.000,58.695285929179136,1043.0774960708209
1733,1933.000,69.92468271848679,1041.8821502815133
1734,1934.000,62.10344181018672,1040.6833101898133
1735,1935.000,49.42112593254751,1039.4809730674524
1736,1936.000,55.54860881384025,1038.2751361861597
1737,1937.000,63.801621182333975,1037.065796817666
1738,1938.000,62.826356766298886,1035.8529522337012
1739,1939.000,69.4107692940047,1034.6365997059952
1740,1940.000,64.25080349372138,1033.4167365062785
1741,1941.000,59.75255309371869,1032.1933599062813
1742,1942.000,58.09298882226676,1030.9664671777332
1743,1943.000,62.487746407635086,1029.736055592365
1744,1944.000,69.86877757809316,1028.5021224219067
1745,1945.000,73.51620006191183,1027.2646649380881
1746,1946.000,81.77463358736009,1026.0236804126398
1747,1947.000,67.45491488270864,1024.7791661172914
1748,1948.000,65.80558267622689,1023.5311193237732
1749,1949.000,56.43321369618411,1022.2795373038159
1750,1950.000,59.45664167085067,1021.0244173291493
1751,1951.000,62.544481328496545,1019.7657566715035
1752,1952.000,69.25569839739182,1018.5035526026081
1753,1953.000,79.90217060580562,1017.2378023941944
1754,1954.000,74.20689168200863,1015.9685033179913
1755,1955.000,68.76658635426998,1014.69565264573
1756,1956.000,79.73172935085972,1013.4192476491403
1757,1957.000,70.06547540004817,1012.1392855999518
1758,1958.000,71.02639623010452,1010.8557637698956
1759,1959.000,70.48419156929936,1009.5686794307007
1760,1960.000,71.73419714590136,1008.2780298540986
1761,1961.000,79.00341868818157,1006.9838123118185
1762,1962.000,70.23534992440943,1005.6860240755906
1763,1963.000,78.68914058285452,1004.3846624171455
1764,1964.000,71.0804033917874,1003.0797246082126
1765,1965.000,71.98775307947699,1001.771207920523
1766,1966.000,74.88130837419408,1000.4591096258059
1767,1967.000,74.49739900420775,999.1434269957923
1768,1968.000,83.32543169778808,997.824157302212
1769,1969.000,85.9463441832055,996.5012978167946
1770,1970.000,78.13146918872872,995.1748458112713
1771,1971.000,80.86495644262891,993.8447985573712
1772,1972.000,74.51336667317457,992.5111533268254
1773,1973.000,79.65838460863665,991.1739073913634
1774,1974.000,81.15023997728429,989.8330580227158
1775,1975.000,92.0995155073881,988.4886024926118
1776,1976.000,86.77572992721764,987.1405380727823
1777,1977.000,83.74411496504229,985.7888620349578
1778,1978.000,87.61711334913196,984.433571650868
1779,1979.000,94.450934807757,983.0746641922431
1780,1980.000,89.29153606918737,981.7121369308126
1781,1981.000,94.57884986169267,980.3459871383074
1782,1982.000,89.2049199135422,978.9762120864577
1783,1983.000,94.96880995300648,977.6028090469936
1784,1984.000,91.86938970835536,976.2257752916446
1785,1985.000,94.20602890785824,974.8451080921417
1786,1986.000,87.18511127978525,973.4608047202147
1787,1987.000,104.77199055240669,972.0728624475934
1788,1988.000,100.93242445399153,970.6812785460085
1789,1989.000,91.04958371281054,969.2860502871895
1790,1990.000,92.44321005713255,967.8871749428674
1791,1991.000,90.61345521522821,966.4846497847718
1792,1992.000,90.9586349153675,965.0784720846326
1793,1993.000,96.16648088581917,963.6686391141808
1794,1994.000,98.42091885485468,962.2551481451454
1795,1995.000,87.60405555074249,960.8379964492576
1796,1996.000,103.02310970175256,959.4171812982473
1797,1997.000,105.92365503615622,957.9926999638438
1798,1998.000,100.3770362822213,956.5645497177786
1799,1999.000,100.41585516821954,955.1327278317805
1800,2000.000,105.01872342241916,953.6972315775807
