# kind,background_subtracted
# version_label,v5
# poly_order,5
# iterations_run,7
pixel_index,raman_shift_cm-1,intensity,background_intensity
0,200.000,5.760702598582441,267.23045340141755
1,201.000,7.027400104967967,267.851521895032
2,202.000,13.507929230703326,268.4737377692967
3,203.000,19.360769714963226,269.0971022850368
4,204.000,1.6348403140157757,269.7216166859842
5,205.000,1.2529608011969913,270.347282198803
6,206.000,10.027123966884687,270.9741000331153
7,207.000,0.8988186184730012,271.602071381527
8,208.000,0.0,272.2311974196537
9,209.000,14.095778693853902,272.8614793061461
10,210.000,3.020306817283938,273.49291818271604
11,211.000,8.962131825837844,274.12551517416216
12,212.000,7.349401611604321,274.7592713883957
13,213.000,4.365455083533789,275.3941879164662
14,214.000,3.3193691674128445,276.03026583258713
15,215.000,11.304728805837954,276.66750619416206
16,216.000,10.069406958190143,277.30591004180985
17,217.000,0.0,277.9454783993909
18,218.000,1.91703972596747,278.5862122740325
19,219.000,1.0494513438450213,279.22811265615496
20,220.000,3.63920448050294,279.87118051949705
21,221.000,22.24328717885811,280.5154168211419
22,222.000,2.001961498457206,281.1608225015428
23,223.000,9.880522515451275,281.80739848454874
24,224.000,0.0,282.45514567743044
25,225.000,10.850870029093983,283.104064970906
26,226.000,0.0,283.75415723916643
27,227.000,1.2180486600981908,284.4054233399018
28,228.000,0.9888728856732882,285.0578641143267
29,229.000,9.808798612793908,285.7114803872061
30,230.000,0.0,286.36627296688107
31,231.000,11.000766354705434,287.02224264529457
32,232.000,8.897171801982836,287.6793901980172
33,233.000,0.0,288.3377163842728
34,234.000,0.0,288.99722194696454
35,235.000,0.0,289.6579076127004
36,236.000,0.0,290.3197740918189
37,237.000,14.728297921584954,290.98282207841504
38,238.000,18.544790749634046,291.64705225036596
39,239.000,10.203328730643364,292.31246526935666
40,240.000,22.025083219094142,292.97906178090585
41,241.000,1.6997885856084167,293.6468424143916
42,242.000,10.092205216922991,294.315807783077
43,243.000,10.03731751586372,294.9859584841363
44,244.000,9.393286901319755,295.65729509868027
45,245.000,9.400562808218012,296.329818191782
46,246.000,5.93677468749695,297.003528312503
47,247.000,0.6832660060815101,297.6784259939185
48,248.000,8.020876246856574,298.3545117531434
49,249.000,9.720419908641873,299.03178609135813
50,250.000,12.213635506165758,299.7102494938342
51,251.000,6.223653570039858,300.38990242996016
52,252.000,9.213635646732882,301.0707453532671
53,253.000,14.1244942985453,301.7527787014547
54,254.000,7.5709051035833,302.4360028964167
55,255.000,10.557056655733106,303.1204183442669
56,256.000,4.88215856463529,303.8060254353647
57,257.000,7.385813455659047,304.492824544341
58,258.000,12.541942969876175,305.1808160301238
59,259.000,6.219396764035707,305.8700002359643
60,260.000,10.581252510537865,306.56037748946216
61,261.000,4.438121897408337,307.25194810259165
62,262.000,2.9096436282728746,307.9447123717271
63,263.000,5.361820422330993,308.638670577669
64,264.000,7.28375201433056,309.3338229856694
65,265.000,3.312553154541945,310.03016984545803
66,266.000,9.35011460873244,310.7277113912676
67,267.000,4.734919158140144,311.42644784185984
68,268.000,12.62594859944852,312.12637940055146
69,269.000,13.805062744760676,312.8275062552393
70,270.000,1.9880224215731914,313.5298285784268
71,271.000,2.236164472750943,314.23334652724907
72,272.000,7.2770307565007215,314.93806024349925
73,273.000,11.265691146346398,315.64396985365363
74,274.000,10.022378531101822,316.35107546889816
75,275.000,11.127236814846526,317.0593771851535
76,276.000,7.797112916898811,317.7688750831012
77,277.000,5.610056771790767,318.47956922820924
78,278.000,0.0,319.1914596707579
79,279.000,10.848259554134472,319.90454644586555
80,280.000,20.759979426485756,320.61882957351423
81,281.000,10.17459094142447,321.3343090585755
82,282.000,7.471478109163684,322.05098489083633
83,283.000,8.865800954975498,322.7688570450245
84,284.000,6.688941519165212,323.4879254808348
85,285.000,5.826356857045539,324.20819014295444
86,286.000,5.018266038911122,324.9296509610889
87,287.000,9.204044150012294,325.6523078499877
88,288.000,6.009184290529731,326.37616070947024
89,289.000,0.0,327.10120942445144
90,290.000,15.395845135032516,327.8274538649675
91,291.000,11.010751113798449,328.55489388620157
92,292.000,0.0,329.2835293285098
93,293.000,18.84010898255326,330.01336001744676
94,294.000,0.0,330.74438576379146
95,295.000,10.916668636427175,331.47660636357284
96,296.000,0.0,332.2100215980957
97,297.000,14.096668766033531,332.94463123396645
98,298.000,20.323872976881148,333.68043502311883
99,299.000,0.7594292971603522,334.4174327028397
100,300.000,3.388177004205488,335.1556239957945
101,301.000,18.483993389946363,335.89500861005365
102,302.000,13.048310760882487,336.6355862391175
103,303.000,2.2809864380570843,337.3773565619429
104,304.000,14.251262757031782,338.1203192429682
105,305.000,12.094431067860455,338.86447393213956
106,306.000,5.456977735063674,339.60982026493633
107,307.000,6.403339137602927,340.3563578623971
108,308.000,9.196543668854758,341.10408633114525
109,309.000,12.044670736585147,341.85300526341484
110,310.000,0.0,342.60311423707617
111,311.000,3.700135184338251,343.35441281566176
112,312.000,3.2452534516081073,344.1069005483919
113,313.000,21.373405029799358,344.86057697020067
114,314.000,5.985471398238701,345.6154416017613
115,315.000,0.0,346.37149394951234
116,316.000,3.29874049431686,347.12873350568316
117,317.000,0.0,347.88715974831973
118,318.000,0.0,348.6467721413104
119,319.000,7.6121498655883215,349.4075701344117
120,320.000,13.1773758367259,350.1695531632741
121,321.000,2.679330350532439,350.93272064946757
122,322.000,8.313462999492344,351.69707200050766
123,323.000,8.667016390119045,352.46260660988094
124,324.000,9.62719514292911,353.2293238570709
125,325.000,6.1690918924162474,353.99722310758375
126,326.000,6.924732287025904,354.7663037129741
127,327.000,14.232121989129325,355.5365650108707
128,328.000,16.719899674997862,356.3080063250021
129,329.000,8.794840034777167,357.08062696522285
130,330.000,0.0,357.85442622753857
131,331.000,14.442976605867727,358.6294033941323
132,332.000,5.391546266610192,359.4055577333898
133,333.000,13.948953500074253,360.18288849992575
134,334.000,0.0,360.961394934609
135,335.000,0.0,361.74107626458897
136,336.000,4.0449792966794575,362.52193170332055
137,337.000,2.8672655494092965,363.3039604505907
138,338.000,2.013244307456432,364.0871616925436
139,339.000,19.405422398293183,364.8715346017068
140,340.000,9.647263662983278,365.65707833701674
141,341.000,6.887869956155498,366.4437920438445
142,342.000,12.941246145978255,367.2316748540217
143,343.000,18.296884114133775,368.0207258858662
144,344.000,14.046646755792267,368.81094424420775
145,345.000,13.368704979586141,369.60232902041383
146,346.000,6.5149687075846145,370.3948792924154
147,347.000,21.93371787526729,371.18859412473273
148,348.000,7.184920431498995,371.983472568501
149,349.000,1.2205143385039605,372.779513661496
150,350.000,9.331391571839788,373.57671642816024
151,351.000,8.597140120371591,374.3750798796284
152,352.000,1.3446129862469434,375.174603013753
153,353.000,9.697665184869493,375.9752848151305
154,354.000,9.407160744873238,376.77712425512675
155,355.000,4.474242708097108,377.5801202919029
156,356.000,9.979350129559009,378.384271870441
157,357.000,9.633903077429977,379.18957792257004
158,358.000,5.187221633008676,379.99603736699135
159,359.000,9.612134890695415,380.80364910930456
160,360.000,13.078884957966523,381.6124120420335
161,361.000,0.0,382.4223250446514
162,362.000,11.946704016392573,383.23338698360743
163,363.000,5.607808287648254,384.04559671235177
164,364.000,2.5410779286383445,384.85895307136167
165,365.000,7.166314111832833,385.67345488816716
166,366.000,1.9090130226230713,386.48910097737695
167,367.000,6.5055028592962,387.3058901407038
168,368.000,12.677369833009266,388.12382116699075
169,369.000,0.0,388.9428928322364
170,370.000,0.0,389.76310389962106
171,371.000,14.945295880467654,390.5844531195323
172,372.000,9.846066770409209,391.4069392295908
173,373.000,9.764033045324084,392.2305609546759
174,374.000,20.010790993048374,393.0553170069516
175,375.000,2.8809049141077594,393.88120608589225
176,376.000,4.407490121691808,394.7082268783082
177,377.000,5.136087941628432,395.53637805837155
178,378.000,7.221212712357783,396.3656582876422
179,379.000,6.6818347849069255,397.1960662150931
180,380.000,6.199844522863543,398.02760047713645
181,381.000,2.871470302350815,398.8602596976492
182,382.000,17.877838512000892,399.6940424879991
183,383.000,8.810622552930113,400.52894744706987
184,384.000,6.873355838712428,401.3649731612876
185,385.000,14.506291795353889,402.2021182046461
186,386.000,0.0,403.0403811387329
187,387.000,13.90717148724525,403.87976051275473
188,388.000,0.33086613643661167,404.7202548635634
189,389.000,8.802529284318211,405.5618627156818
190,390.000,2.4087874186707836,406.40458258132924
191,391.000,11.924303039552512,407.24841296044747
192,392.000,0.7077136592737361,408.09335234072626
193,393.000,10.456139802370615,408.93939919762937
194,394.000,4.727558005579908,409.7865519944201
195,395.000,12.667532817812798,410.6348091821872
196,396.000,4.187683800129491,411.4841691998705
197,397.000,2.1593445257133226,412.33463047428666
198,398.000,14.218338579844954,413.18619142015507
199,399.000,0.0,414.0388504401234
200,400.000,9.301052075206485,414.89260592479354
201,401.000,9.536488747252633,415.7474562527474
202,402.000,7.321974209427765,416.6033997905722
203,403.000,11.865910107113223,417.4604348928868
204,404.000,6.96175009763283,418.31855990236716
205,405.000,8.445073850227743,419.17777314977224
206,406.000,11.46137304603053,420.03807295396945
207,407.000,9.50705937803923,420.8994576219608
208,408.000,9.15812955109169,421.7619254489083
209,409.000,12.59920128183984,422.62547471816015
210,410.000,0.0,423.4901037012758
211,411.000,1.4363113419474303,424.3558106580526
212,412.000,7.19345816344935,425.22259383655063
213,413.000,14.630285526880698,426.0904514731193
214,414.000,3.8011892075776927,426.95938179242233
215,415.000,7.21850499253577,427.82938300746423
216,416.000,13.034004680384669,428.70045331961535
217,417.000,15.90193408136173,429.5725909186383
218,418.000,12.03313701728672,430.44579398271327
219,419.000,11.727274321536242,431.32006067846373
220,420.000,11.694833839017349,432.19538916098264
221,421.000,0.0,433.0717775738577
222,422.000,4.05682495080265,433.94922404919737
223,423.000,9.674016292343367,434.8277267076566
224,424.000,0.29450734153749636,435.70728365846253
225,425.000,0.0,436.5878929994404
226,426.000,0.0,437.4695528170389
227,427.000,13.747140813643625,438.3522611863564
228,428.000,0.0,439.2360161711664
229,429.000,12.314801176056505,440.1208158239435
230,430.000,17.88748381411108,441.0066581858889
231,431.000,0.0,441.8935412869563
232,432.000,6.4216998541222665,442.78146314587775
233,433.000,2.406173229810861,443.67042177018914
234,434.000,2.959739843743762,444.5604151562562
235,435.000,2.826871710699777,445.45144128930025
236,436.000,0.0,446.34349814342363
237,437.000,8.87140631836428,447.2365836816357
238,438.000,1.744099144121094,448.1306958558789
239,439.000,9.020290392946151,449.02583260705387
240,440.000,6.348420134954438,449.9219918650456
241,441.000,4.827745451250962,450.819171548749
242,442.000,4.786832433904976,451.71736956609504
243,443.000,5.336329185924171,452.61658381407585
244,444.000,4.90365882122893,453.5168121787711
245,445.000,10.901546464626733,454.41805253537325
246,446.000,9.122484251786034,455.320302748214
247,447.000,9.541755329211071,456.2235606707889
248,448.000,9.66922085421561,457.1278241457844
249,449.000,10.3815209948973,458.0330910051027
250,450.000,14.359890930112215,458.93935906988776
251,451.000,15.787805849448716,459.8466261505513
252,452.000,10.150016953201998,460.754890046798
253,453.000,13.12022245234806,461.66414854765196
254,454.000,1.9895725685180423,462.57439943148194
255,455.000,5.512941533972764,463.48564046602723
256,456.000,11.712216591576635,464.3978694084234
257,457.000,1.831907994771825,465.31108400522817
258,458.000,8.581198007553041,466.225281992447
259,459.000,10.606742904440921,467.1404610955591
260,460.000,2.1775579704573715,468.0566190295426
261,461.000,0.0,468.97375349890126
262,462.000,4.815280802310781,469.8918621976892
263,463.000,0.0,470.81094280953744
264,464.000,7.229652992320837,471.73099300767916
265,465.000,4.152517545024352,472.65201045497565
266,466.000,0.0,473.57399280394213
267,467.000,0.0,474.49693769677333
268,468.000,21.046082234630774,475.42084276536923
269,469.000,1.1269683686388134,476.34570563136117
270,470.000,6.079451093862701,477.2715239061373
271,471.000,10.06064680913181,478.1982951908682
272,472.000,8.830835923467191,479.12601707653283
273,473.000,8.204496856055584,480.0546871439444
274,474.000,5.56264703622395,480.98430296377603
275,475.000,9.592308903413766,481.91486209658626
276,476.000,4.785649907155005,482.84636209284497
277,477.000,8.457513507040403,483.7788004929596
278,478.000,12.712096172700058,484.7121748272999
279,479.000,6.670215383775258,485.6464826162247
280,480.000,4.377728629893056,486.58172137010695
281,481.000,0.0,487.5178885893598
282,482.000,2.7377712355375365,488.45498176446245
283,483.000,5.890186624014518,489.3929983759855
284,484.000,8.016836105382993,490.331935894617
285,485.000,0.0,491.2717917811884
286,486.000,5.65187151330025,492.21256348669976
287,487.000,0.0,493.154248452346
288,488.000,0.0,494.0968441095422
289,489.000,6.8598281200501106,495.0403478799499
290,490.000,10.1408918244976,495.9847571755024
291,491.000,2.9191576015694523,496.93006939843053
292,492.000,3.8700700587110077,497.876281941289
293,493.000,8.340261813018856,498.82339218698115
294,494.000,7.281213491214373,499.77139750878564
295,495.000,22.30297372961843,500.7202952703816
296,496.000,13.175271174125328,501.6700828258747
297,497.000,0.0,502.62075751982275
298,498.000,21.37064731273847,503.5723166872615
299,499.000,1.7222323462696068,504.5247576537304
300,500.000,0.0,505.47807773529837
301,501.000,0.0,506.4322742385896
302,502.000,7.699291539190881,507.3873444608091
303,503.000,0.0,508.34328568976866
304,504.000,2.4397317960875284,509.30009520391246
305,505.000,12.745261727656953,510.257770272343
306,506.000,0.0,511.2163081548466
307,507.000,0.0,512.1757061019196
308,508.000,7.65137264520672,513.1359613547933
309,509.000,0.8186598545393053,514.0970711454607
310,510.000,8.066802303298346,515.0590326967017
311,511.000,8.871172777891388,516.0218432221086
312,512.000,5.6182820738873716,516.9854999261127
313,513.000,12.849773995990859,517.9500000040091
314,514.000,0.39954635801700533,518.915340641983
315,515.000,0.0,519.8815190171355
316,516.000,0.0,520.848532297509
317,517.000,9.006215357886617,521.8163776421134
318,518.000,12.714368799048657,522.7850522009513
319,519.000,0.0,523.7545531150442
320,520.000,12.863596483541642,524.7248775164584
321,521.000,1.0098524716702286,525.6960225283298
322,522.000,1.5502457351091152,526.6679852648908
323,523.000,15.515645168504534,527.6407628314955
324,524.000,12.000951675354486,528.6143523246456
325,525.000,7.056911167984367,529.5887508320156
326,526.000,13.694526567520143,530.5639554324798
327,527.000,0.0,531.5399631961367
328,528.000,8.224851815664692,532.5167711843353
329,529.000,8.456413550298407,533.4943764497016
330,530.000,9.86167996383756,534.4727760361625
331,531.000,2.2923480210264415,535.4519669789736
332,532.000,11.474919695256176,536.4319463047439
333,533.000,0.0,537.4127110314614
334,534.000,0.0,538.3942581685194
335,535.000,16.397214283258222,539.3765847167418
336,536.000,4.595376331590614,540.3596876684094
337,537.000,0.0,541.3435640072848
338,538.000,0.0,542.3282107086393
339,539.000,14.309976260722692,543.3136247392773
340,540.000,15.764579942436512,544.2998030575635
341,541.000,11.665836386552655,545.2867426134474
342,542.000,3.929164651510405,546.2744403484896
343,543.000,6.2234768041120105,547.262893195888
344,544.000,6.9320329194974875,548.2520980805025
345,545.000,2.697553081118258,549.2420519188818
346,546.000,7.921796380711612,550.2327516192884
347,547.000,2.5228139182754603,551.2241940817246
348,548.000,10.453874802041355,552.2163761979587
349,549.000,8.116646148450172,553.2092948515498
350,550.000,1.4767460821254872,554.2029469178746
351,551.000,0.0,555.1973292641522
352,552.000,10.151320250529238,556.1924387494707
353,553.000,17.927458775187574,557.1882722248124
354,554.000,3.1168364669201765,558.1848265330798
355,555.000,16.138763490879114,559.1820985091209
356,556.000,21.568492020244094,560.1800849797559
357,557.000,0.0,561.1787827638018
358,558.000,0.0,562.1781886720994
359,559.000,9.962953492462475,563.1782995075375
360,560.000,7.450422934919743,564.1791120650803
361,561.000,0.0,565.1806231317919
362,562.000,12.359347513136981,566.182829486863
363,563.000,7.55573309836393,567.185727901636
364,564.000,11.288076860369529,568.1893151396305
365,565.000,9.124273043429866,569.1935879565701
366,566.000,0.0,570.1985431004073
367,567.000,7.556798688650588,571.2041773113494
368,568.000,12.145319678115243,572.2104873218848
369,569.000,0.0,573.2174698568076
370,570.000,1.4741093667553287,574.2251216332447
371,571.000,9.540034639319288,575.2334393606807
372,572.000,1.5862592590162876,576.2424197409837
373,573.000,3.0404005315685936,577.2520594684314
374,574.000,6.948541770263205,578.2623552297368
375,575.000,13.468748295926503,579.2733037040734
376,576.000,2.2561094368979866,580.284901563102
377,577.000,14.106461529004719,581.2971454709952
378,578.000,3.6082459155358038,582.3100320844642
379,579.000,1.8214649472161,583.3235580527839
380,580.000,11.367184982180788,584.3377200178193
381,581.000,5.095096385949773,585.3525146140503
382,582.000,0.1078025314017168,586.3679384685983
383,583.000,7.18972479874833,587.3839882012517
384,584.000,0.0,588.4006604244912
385,585.000,0.0,589.4179517435168
386,586.000,8.442403243728108,590.4358587562718
387,587.000,3.9350239465298955,591.4543780534701
388,588.000,10.205330781379075,592.473506218621
389,589.000,18.928898171944866,593.4932398280552
390,590.000,0.0,594.5135754509508
391,591.000,2.857260350640786,595.5345096493592
392,592.000,0.0,596.5560389782296
393,593.000,2.086479014563224,597.5781599854367
394,594.000,14.079362788194999,598.600869211805
395,595.000,5.618040808865089,599.6241631911349
396,596.000,2.9864215497714213,600.6480384502286
397,597.000,6.7541204910842225,601.6724915089158
398,598.000,17.277510119920407,602.6975188800795
399,599.000,10.159672930318152,603.7231170696818
400,600.000,11.556300423210587,604.7492825767894
401,601.000,8.449309106400506,605.7760118935995
402,602.000,20.50200249453428,606.8033015054657
403,603.000,14.624558109076588,607.8311478909234
404,604.000,12.835931478284124,608.8595475217159
405,605.000,33.96340113717997,609.88849686282
406,606.000,13.577895627527937,610.9179923724721
407,607.000,19.67017449780701,611.948030502193
408,608.000,29.381577303185395,612.9786076968146
409,609.000,35.87188860549452,614.0097203945055
410,610.000,30.653016973203762,615.0413650267963
411,611.000,47.299490981394115,616.0735380186059
412,612.000,53.74081121173333,617.1062357882666
413,613.000,60.87659525244919,618.1394547475508
414,614.000,63.644400698304366,619.1731913016956
415,615.000,86.05165015057037,620.2074418494296
416,616.000,95.13785521700174,621.2422027829982
417,617.000,131.78404051181099,622.277470488189
418,618.000,149.89217165564185,623.3132413443582
419,619.000,177.06044127554412,624.3495117244559
420,620.000,178.40630300494797,625.3862779950521
421,621.000,167.57353748363755,626.4235365163624
422,622.000,142.3666663577261,627.4612836422739
423,623.000,118.95028827962949,628.4995157203705
424,624.000,101.49000490804121,629.5382290919588
425,625.000,88.91690990790585,630.5774200920941
426,626.000,65.35928195039332,631.6170850496067
427,627.000,52.229150712874116,632.6572202871259
428,628.000,43.250755878892505,633.6978221211075
429,629.000,48.64160713814124,634.7388868618588
430,630.000,35.990357186435745,635.7804108135642
431,631.000,27.22637172568841,636.8223902743116
432,632.000,31.98595946388241,637.8648215361176
433,633.000,18.31453511504685,638.9077008849531
434,634.000,8.334463399230003,639.95102460077
435,635.000,22.80044404247451,640.9947889575255
436,636.000,21.606653776790495,642.0389902232095
437,637.000,5.945997340131271,643.0836246598687
438,638.000,12.878220476365982,644.128688523634
439,639.000,4.104539935255389,645.1741780647446
440,640.000,9.339795472424498,646.2200895275755
441,641.000,2.8089418493385665,647.2664191506615
442,642.000,12.705074833275717,648.3131631667243
443,643.000,8.813717197302822,649.3603178026972
444,644.000,17.793046720247844,650.4078792797521
445,645.000,16.621544186676033,651.455843813324
446,646.000,8.734098386862229,652.5042076131377
447,647.000,6.712793116767216,653.5529668832328
448,648.000,15.196895178010095,654.6021178219899
449,649.000,7.757764377843728,655.6516566221562
450,650.000,6.526168529128427,656.7015794708716
451,651.000,1.8359694503060382,657.751882549694
452,652.000,6.89571496537485,658.8025620346251
453,653.000,0.0,659.8536140961362
454,654.000,10.453328100805493,660.9050348991946
455,655.000,5.907091396712303,661.9568206032877
456,656.000,9.66668563754888,663.0089673624511
457,657.000,1.208714674707835,664.0614713252921
458,658.000,5.388811364983098,665.1143286350169
459,659.000,7.670775570544038,666.1675354294559
460,660.000,4.433199158910725,667.2210878410892
461,661.000,3.4915180029272506,668.2749819970727
462,662.000,15.695011980736126,669.3292140192639
463,663.000,3.5971469757527075,670.3837800242472
464,664.000,0.0,671.4386761233602
465,665.000,0.0,672.4938984227191
466,666.000,0.13569997675563172,673.5494430232444
467,667.000,5.722010979312699,674.6053060206873
468,668.000,1.3980384943454283,675.6614835056546
469,669.000,8.329629436365167,676.7179715636348
470,670.000,12.024292724976135,677.7747662750239
471,671.000,8.52012328484875,678.8318637151513
472,672.000,9.409366045694924,679.8892599543051
473,673.000,0.0,680.9469510577584
474,674.000,4.370137914205429,682.0049330857946
475,675.000,0.6649419062665629,683.0632020937335
476,676.000,10.758930868043421,684.1217541319565
477,677.000,4.949041754066457,685.1805852459336
478,678.000,3.161488523752837,686.2396914762471
479,679.000,14.211600141380472,687.2990688586195
480,680.000,1.1424805760619847,688.3587134239381
481,681.000,0.0,689.4186211982804
482,682.000,0.0,690.4787882029414
483,683.000,2.0994585455426886,691.5392104544574
484,684.000,0.0,692.5998839646331
485,685.000,4.590382259432658,693.6608047405673
486,686.000,2.658229215321967,694.721968784678
487,687.000,0.0,695.783372094728
488,688.000,1.7385153361478842,696.8450106638521
489,689.000,12.005388519418943,697.9068804805811
490,690.000,2.2661884711311586,698.9689775288689
491,691.000,19.34610421188279,700.0312977881172
492,692.000,0.0,701.0938372332018
493,693.000,9.811916165501202,702.1565918344988
494,694.000,0.2681934420907055,703.2195575579093
495,695.000,0.0,704.282730364886
496,696.000,16.132767787541866,705.3461062124582
497,697.000,2.2213949467414977,706.4096810532585
498,698.000,13.014163164451702,707.4734508355483
499,699.000,10.552327496757698,708.5374115032423
500,700.000,1.4707520040636837,709.6015589959363
501,701.000,0.0,710.6658892489313
502,702.000,7.200903806739916,711.73039819326
503,703.000,2.6864132442874507,712.7950817557125
504,704.000,12.30948114113778,713.8599358588622
505,705.000,5.404522578909223,714.9249564210908
506,706.000,3.690529643385048,715.9901393566149
507,707.000,0.0,717.0554805755116
508,708.000,0.0,718.1209759837436
509,709.000,8.129104516813982,719.1866214831861
510,710.000,3.3868980283489236,720.2524129716511
511,711.000,0.0,721.3183463429148
512,712.000,4.753293513258427,722.3844174867415
513,713.000,17.149843711088465,723.4506222889115
514,714.000,0.0,724.516956631245
515,715.000,0.0,725.5834163916286
516,716.000,5.452734555958841,726.6499974440411
517,717.000,8.208065341420934,727.716695658579
518,718.000,5.639283098516785,728.7835069014832
519,719.000,0.0,729.8504270351625
520,720.000,4.638571081777513,730.9174519182225
521,721.000,14.359890594511626,731.9845774054884
522,722.000,4.578611651967435,733.0517993480325
523,723.000,5.618419406800172,734.1191135931998
524,724.000,2.709011015367196,735.1865159846328
525,725.000,8.2058456377016,736.2540023622984
526,726.000,0.0,737.3215685625128
527,727.000,9.164516582031979,738.389210417968
528,728.000,0.0,739.4569237577566
529,729.000,2.9869175926014577,740.5247044073985
530,730.000,14.676466811133537,741.5925481888664
531,731.000,14.294613079389137,742.6604509206109
532,732.000,10.06667658241281,743.7284084175872
533,733.000,2.2393885087199124,744.7964164912801
534,734.000,12.936967050269686,745.8644709497303
535,735.000,0.7166904024403493,746.9325675975597
536,736.000,8.432102764002252,748.0007022359978
537,737.000,12.139708337093339,749.0688706629066
538,738.000,0.0,750.1370686728069
539,739.000,3.9895499430959944,751.205292056904
540,740.000,4.279724396886877,752.2735366031131
541,741.000,0.0,753.3417980960861
542,742.000,6.944267682764462,754.4100723172355
543,743.000,0.0,755.4783550447623
544,744.000,7.950736946320262,756.5466420536798
545,745.000,10.453113884159052,757.6149291158409
546,746.000,12.773832000036805,758.6832119999632
547,747.000,5.599898528345989,759.7514864716541
548,748.000,0.0,760.8197482934379
549,749.000,4.7270377752195145,761.8879932247805
550,750.000,5.192848977884182,762.9562170221158
551,751.000,3.0273715611291436,764.0244154388708
552,752.000,9.479418774507963,765.092584225492
553,753.000,11.902220870529163,766.1607191294709
554,754.000,3.41653810463049,767.2288158953695
555,755.000,0.0,768.2968702648466
556,756.000,9.346713023317193,769.3648779766828
557,757.000,10.373142233192766,770.4328347668072
558,758.000,0.0,771.5007363683221
559,759.000,4.949478488470277,772.5685785115297
560,760.000,0.0,773.6363569239575
561,761.000,0.0,774.7040673303835
562,762.000,2.9975735471368807,775.7717054528631
563,763.000,3.0275579892462474,776.8392670107537
564,764.000,22.450959279258655,777.9067477207414
565,765.000,0.0,778.9741432968656
566,766.000,2.229099549453622,780.0414494505463
567,767.000,10.091124109391444,781.1086618906086
568,768.000,11.158078676691161,782.1757763233088
569,769.000,2.973132547639466,783.2427884523605
570,770.000,8.061965021040123,784.3096939789599
571,771.000,7.507564398188265,785.3764886018117
572,772.000,22.8800469828451,786.4431680171549
573,773.000,11.68425208121107,787.5097279187889
574,774.000,8.397135001901916,788.5761639980981
575,775.000,5.817371055920717,789.6424719440793
576,776.000,6.715285556633944,790.7086474433661
577,777.000,7.55628081974487,791.7746861802551
578,778.000,5.161943163267779,792.8405838367322
579,779.000,13.218115907502579,793.9063360924974
580,780.000,7.1832993750089145,794.9719386249911
581,781.000,18.30502189058018,796.0373871094198
582,782.000,26.6521097812182,797.1026772187818
583,783.000,27.31228337610696,798.1678046238931
584,784.000,16.52842600658721,799.2327649934128
585,785.000,36.07114500613068,800.2975539938693
586,786.000,38.92521871031431,801.3621672896857
587,787.000,48.64491645679436,802.4266005432056
588,788.000,45.64320558528084,803.4908494147192
589,789.000,50.599328437511645,804.5549095624883
590,790.000,56.85556835722673,805.6187766427732
591,791.000,79.14949269014267,806.6824463098574
592,792.000,76.1865197839262,807.7459142160737
593,793.000,83.7888019881699,808.8091760118301
594,794.000,102.7702096543643,809.8722273456357
595,795.000,91.91046713587446,810.9350638641256
596,796.000,85.7298667879121,811.9976812120879
597,797.000,92.19086296751186,813.0600750324882
598,798.000,75.84544303350333,814.1222409664966
599,799.000,75.46858134648733,815.1841746535126
600,800.000,61.147807268809174,816.2458717311908
601,801.000,50.1383771645327,817.3073278354673
602,802.000,37.959248399415515,818.3685386005844
603,803.000,24.20614734088167,819.4294996591183
604,804.000,35.24865435799791,820.4902066420021
605,805.000,33.6187178214459,821.550655178554
606,806.000,23.047808103497914,822.610840896502
607,807.000,27.620456577990694,823.6707594220093
608,808.000,19.056503620298827,824.7304063797012
609,809.000,18.110557607310852,825.7897773926892
610,810.000,12.957877917401447,826.8488680825985
611,811.000,21.19128793040727,827.9076740695928
612,812.000,7.2297940276000645,828.9661909723999
613,813.000,0.0,830.0244144083379
614,814.000,17.340765006659012,831.082339993341
615,815.000,14.195109658015099,832.1399633419849
616,816.000,0.0,833.1972800675127
617,817.000,5.167579218139053,834.254285781861
618,818.000,5.309685904315415,835.3109760956846
619,819.000,9.803173381616148,836.3673466183839
620,820.000,4.101073041871018,837.4233929581289
621,821.000,16.007321278113636,838.4791107218864
622,822.000,2.1872214845551525,839.5344955154449
623,823.000,8.035386056559673,840.5895429434403
624,824.000,0.0,841.6442486093825
625,825.000,9.556127884319721,842.6986081156803
626,826.000,3.6833129363324133,843.7526170636676
627,827.000,9.740324946371516,844.8062710536285
628,828.000,0.0,845.8595656848244
629,829.000,0.0,846.912496555518
630,830.000,2.643743736999113,847.9650592630009
631,831.000,7.069865596382442,849.0172494036176
632,832.000,5.298013427207479,850.0690625727925
633,833.000,8.420052634944795,851.1204943650552
634,834.000,8.843114625933708,852.1715403740662
635,835.000,3.114865807357205,853.2221961926427
636,836.000,7.8974575872156265,854.2724574127843
637,837.000,2.8418493743007502,855.3223196256993
638,838.000,0.0,856.3717784218293
639,839.000,14.295771609123904,857.4208293908761
640,840.000,0.0,858.4694681218269
641,841.000,9.034985797019772,859.5176902029802
642,842.000,3.8944497780286156,860.5654912219713
643,843.000,0.0,861.6128667657985
644,844.000,6.108859579151726,862.6598124208483
645,845.000,0.0,863.706323772922
646,846.000,9.418515592739823,864.7523964072602
647,847.000,0.0,865.79802590857
648,848.000,2.6095401389508197,866.8432078610492
649,849.000,0.0,867.8879378484138
650,850.000,0.0,868.9322114539219
651,851.000,13.94757473959885,869.9760242604011
652,852.000,15.00448414972675,871.0193718502733
653,853.000,0.0,872.0622498055803
654,854.000,0.8584582919891091,873.1046537080109
655,855.000,5.915332861075626,874.1465791389244
656,856.000,2.179540320621072,875.188021679379
657,857.000,0.6795950898452929,876.2289769101548
658,858.000,8.812252588217916,877.269440411782
659,859.000,4.1510532354344605,878.3094077645655
660,860.000,0.0,879.3488745486103
661,861.000,0.0,880.3878363438479
662,862.000,5.293683269938242,881.4262887300617
663,863.000,0.0,882.4642272869137
664,864.000,14.14428940603159,883.5016475939684
665,865.000,0.0,884.5385452307202
666,866.000,2.8991152233815,885.5749157766185
667,867.000,0.0,886.6107548110936
668,868.000,0.0,887.6460579135821
669,869.000,13.579769336446702,888.6808206635533
670,870.000,6.869349359465559,889.7150386405344
671,871.000,7.995261575863651,890.7487074241363
672,872.000,0.0,891.7818225940799
673,873.000,2.5826492697791537,892.8143797302208
674,874.000,12.478839587423408,893.8463744125766
675,875.000,1.752723778649397,894.8778022213506
676,876.000,4.27690326304014,895.9086587369599
677,877.000,1.9747464599406612,896.9389395400593
678,878.000,7.010881788432471,897.9686402115675
679,879.000,11.63767866730609,898.9977563326939
680,880.000,13.894269515037536,900.0262834849625
681,881.000,2.6812257497605287,901.0542172502395
682,882.000,1.6632867892423064,902.0815532107576
683,883.000,6.250452050857007,903.108286949143
684,884.000,0.0,904.13441404844
685,885.000,0.0,905.1599300921375
686,886.000,0.0,906.1848306641947
687,887.000,0.0,907.2091113490663
688,888.000,5.0106502682710925,908.2327677317289
689,889.000,0.0,909.2557953977067
690,890.000,8.089701066903558,910.2781899330964
691,891.000,9.557380075405945,911.2999469245941
692,892.000,0.0,912.3210619595206
693,893.000,0.0,913.3415306258471
694,894.000,0.0,914.3613485122205
695,895.000,0.0,915.3805112079901
696,896.000,4.647829696767303,916.3990143032327
697,897.000,0.0,917.4168533887785
698,898.000,0.0,918.4340240562369
699,899.000,0.0,919.4505218980222
700,900.000,0.31998949262049337,920.4663425073795
701,901.000,0.0,921.4814814784102
702,902.000,10.414987593902083,922.495934406098
703,903.000,4.657262113665752,923.5096968863343
704,904.000,0.0,924.5227645159443
705,905.000,6.628583107287,925.535132892713
706,906.000,0.0,926.5467976154101
707,907.000,0.8215877161833305,927.5577542838166
708,908.000,6.522694501250157,928.5679984987498
709,909.000,0.36939013791004527,929.5775258620899
710,910.000,11.390878023194887,930.5863319768051
711,911.000,5.384872553022433,931.5944124469776
712,912.000,0.0,932.6017628778292
713,913.000,0.0,933.6083788757475
714,914.000,0.9820899516892041,934.6142560483108
715,915.000,4.323024995685273,935.6193900043147
716,916.000,4.144821646202104,936.6237763537979
717,917.000,0.0,937.6274107080667
718,918.000,1.5053253202776204,938.6302886797224
719,919.000,0.0,939.6324058826858
720,920.000,0.0,940.633757932224
721,921.000,12.281598555025198,941.6343404449748
722,922.000,0.0,942.6341490389738
723,923.000,0.0,943.6331793336798
724,924.000,6.0463300500003925,944.6314269499996
725,925.000,0.9104914896845457,945.6288875103155
726,926.000,0.0,946.6255566385089
727,927.000,14.455562040011841,947.6214299599882
728,928.000,0.0,948.616503101713
729,929.000,0.0,949.6107716922209
730,930.000,10.389723638348073,950.604231361652
731,931.000,5.141954258223791,951.5968777417762
732,932.000,0.8575045339820235,952.5887064660179
733,933.000,6.832945830517929,953.579713169482
734,934.000,1.5496455110203442,954.5698934889797
735,935.000,0.9215249369458434,955.5592430630542
736,936.000,7.286572467993437,956.5477575320066
737,937.000,8.040552462078836,957.5354325379211
738,938.000,2.6386722753080676,958.5222637246919
739,939.000,6.466302261952023,959.508246738048
740,940.000,16.204356774421058,960.4933772255789
741,941.000,5.573677163238926,961.4776508367611
742,942.000,4.121297777017162,962.4610632229828
743,943.000,1.6408489624290041,963.443610037571
744,944.000,6.848677064183903,964.4252869358161
745,945.000,0.0,965.406089574998
746,946.000,0.0,966.3860136144121
747,947.000,0.0,967.3650547153949
748,948.000,7.738390458650429,968.3432085413496
749,949.000,0.0,969.3204707577718
750,950.000,4.238894967724036,970.296837032276
751,951.000,3.301738965379627,971.2723030346203
752,952.000,0.0,972.2468644367331
753,953.000,9.364518087262582,973.2205169127374
754,954.000,16.41892086102132,974.1932561389787
755,955.000,0.0,975.1650777940491
756,956.000,1.7462714411864226,976.1359775588136
757,957.000,7.212124883564343,977.1059511164357
758,958.000,3.1239678475967594,978.0749941524033
759,959.000,16.68248264544536,979.0431023545547
760,960.000,7.047296586896664,980.0102714131033
761,961.000,9.964507979334826,980.9764970206652
762,962.000,10.45949412771688,981.9417748722831
763,963.000,14.847329334546998,982.906100665453
764,964.000,5.613043899850254,983.8694701001498
765,965.000,12.369334121147062,984.831878878853
766,966.000,8.47085829342734,985.7933227065727
767,967.000,15.191287709125163,986.7537972908748
768,968.000,17.681998658092994,987.713298341907
769,969.000,16.24065842757443,988.6718215724255
770,970.000,13.04649230218115,989.6293626978188
771,971.000,16.549932563864672,990.5859174361353
772,972.000,23.386441491892242,991.5414815081077
773,973.000,5.581214362819992,992.49605063718
774,974.000,15.926967450467828,993.4496205495321
775,975.000,15.37042602589338,994.4021869741066
776,976.000,6.0152193573668455,995.3537456426332
777,977.000,14.674605710344053,996.3042922896559
778,978.000,14.752557347442007,997.253822652558
779,979.000,21.098605528411895,998.2023324715881
780,980.000,25.080050510114688,999.1498174898852
781,981.000,16.2586305464946,1000.0962734535054
782,982.000,23.985607888552295,1001.0416961114477
783,983.000,24.09388978432196,1001.9860812156779
784,984.000,33.397796478842906,1002.9294245211571
785,985.000,32.396565214134625,1003.8717217858655
786,986.000,40.301121229171144,1004.8129687708289
787,987.000,42.79946675985582,1005.7531612401441
788,988.000,58.33396903899518,1006.6922949610049
789,989.000,69.86916329627184,1007.6303657037281
790,990.000,69.87629275822144,1008.5673692417785
791,991.000,88.58801764820453,1009.5033013517956
792,992.000,96.85414718638174,1010.4381578136182
793,993.000,125.03588958968817,1011.3719344103117
794,994.000,153.6719720718079,1012.3046269281922
795,995.000,195.7127778431468,1013.2362311568531
796,996.000,272.20529711080815,1014.1667428891918
797,997.000,364.10884007856725,1015.0961579214327
798,998.000,502.81063194684384,1016.0244720531562
799,999.000,695.7739389126782,1016.9516810873217
800,1000.000,898.1946501697041,1017.8777808302959
801,1001.000,1000.8900219081236,1018.8027670918764
802,1002.000,895.8772433146819,1019.7266356853181
803,1003.000,707.01458657264,1020.6493824273599
804,1004.000,507.4398738617508,1021.5710031382491
805,1005.000,364.6454113582321,1022.491493641768
806,1006.000,278.7869372347408,1023.4108497652593
807,1007.000,211.34395366034823,1024.3290673396518
808,1008.000,158.24670580051293,1025.2461421994872
809,1009.000,139.80863381705626,1026.1620701829438
810,1010.000,109.15938386813605,1027.076847131864
811,1011.000,97.15248610822073,1027.9904688917793
812,1012.000,89.2906806880635,1028.9029313119365
813,1013.000,78.86568275467698,1029.814230245323
814,1014.000,54.722595451307825,1030.7243615486923
815,1015.000,58.12010891740897,1031.633321082591
816,1016.000,70.46210828861695,1032.541104711383
817,1017.000,54.25517469672286,1033.447708303277
818,1018.000,57.98443326965025,1034.3531277303498
819,1019.000,66.69338313142498,1035.257358868575
820,1020.000,61.74261140215458,1036.1603975978455
821,1021.000,68.18831219799677,1037.0622398020032
822,1022.000,75.24421463113958,1037.9628813688605
823,1023.000,90.91674380977065,1038.8623181902294
824,1024.000,107.28970983805448,1039.7605461619455
825,1025.000,119.0920148161058,1040.6575611838941
826,1026.000,151.5821708399635,1041.5533591600365
827,1027.000,188.5831390015653,1042.4479359984348
828,1028.000,241.4055163887217,1043.3412876112784
829,1029.000,326.88770908509036,1044.2334099149095
830,1030.000,389.7437231701508,1045.1242988298493
831,1031.000,429.59876271917733,1046.0139502808227
832,1032.000,394.1040698032152,1046.9023601967847
833,1033.000,326.27790048905285,1047.789524510947
834,1034.000,246.8085208391983,1048.6754391608017
835,1035.000,195.7664949118507,1049.5601000881493
836,1036.000,141.34285876087756,1050.4435032391225
837,1037.000,111.42503943578663,1051.3256445642135
838,1038.000,83.68923198170114,1052.2065200182988
839,1039.000,73.47764443933488,1053.086125560665
840,1040.000,71.11973984496376,1053.9644571550361
841,1041.000,48.91924823040404,1054.841510769596
842,1042.000,47.914150622982106,1055.717282377018
843,1043.000,40.068227045512685,1056.5917679544873
844,1044.000,31.703353516270454,1057.4649634837294
845,1045.000,26.467817048966026,1058.336864951034
846,1046.000,29.70261265271847,1059.2074683472815
847,1047.000,17.377596332030862,1060.076769667969
848,1048.000,9.857440086763972,1060.944764913236
849,1049.000,28.714105912111336,1061.8114500878887
850,1050.000,20.13902479857211,1062.6768212014279
851,1051.000,27.115208731926714,1063.5408742680734
852,1052.000,14.847886693209375,1064.4036053067907
853,1053.000,13.521650658684393,1065.2650103413157
854,1054.000,17.412215599819092,1066.125085400181
855,1055.000,16.275890483258536,1066.9838265167414
856,1056.000,17.373457270799463,1067.8412297292004
857,1057.000,9.189155919364794,1068.6972910806353
858,1058.000,8.657287380977095,1069.552006619023
859,1059.000,4.605159602735057,1070.405372397265
860,1060.000,10.055866526784484,1071.2573844732156
861,1061.000,13.993149090295447,1072.1080389097046
862,1062.000,6.265877225434906,1072.957331774565
863,1063.000,0.6279398593414953,1073.8052591406586
864,1064.000,22.291718914099192,1074.6518170859008
865,1065.000,3.741904306712968,1075.497001693287
866,1066.000,16.684578949081242,1076.3408090509188
867,1067.000,10.881330747971333,1077.1832352520287
868,1068.000,0.0,1078.0242763950066
869,1069.000,4.08657941657475,1078.8639285834251
870,1070.000,14.509364073933284,1079.7021879260667
871,1071.000,17.78872546305365,1080.5390505369464
872,1072.000,3.8553884646591996,1081.3745125353407
873,1073.000,0.0,1082.2085700458117
874,1074.000,6.877530801766397,1083.0412191982336
875,1075.000,9.171319872182266,1083.8724561278177
876,1076.000,6.026620024861586,1084.7022769751384
877,1077.000,0.0,1085.5306778861589
878,1078.000,0.8520729877420763,1086.357655012258
879,1079.000,13.729952489745301,1087.1832045102547
880,1080.000,2.555764457566511,1088.0073225424335
881,1081.000,4.463007723428291,1088.8300052765717
882,1082.000,2.9145491140366175,1089.6512488859635
883,1083.000,0.0,1090.4710495494478
884,1084.000,12.555003548568266,1091.2894034514318
885,1085.000,3.0675672180823312,1092.1063067819177
886,1086.000,9.676628263470775,1092.9217557365291
887,1087.000,0.7462784834644935,1093.7357465165355
888,1088.000,5.6098286711212495,1094.5482753288788
889,1089.000,4.387833613800694,1095.3593383861994
890,1090.000,14.026007093139015,1096.168931906861
891,1091.000,1.9980308850238089,1096.9770521149762
892,1092.000,13.461044759565766,1097.7836952404343
893,1093.000,1.2453574810756436,1098.5888575189244
894,1094.000,8.250460808036678,1099.3925351919634
895,1095.000,1.1010414930806292,1100.1947245069193
896,1096.000,7.517166282959806,1100.9954217170402
897,1097.000,5.009804918523287,1101.7946230814766
898,1098.000,3.8316691346901735,1102.5923248653098
899,1099.000,13.572563660423157,1103.3885233395768
900,1100.000,12.09357121870562,1104.1832147812943
901,1101.000,7.00318352651243,1104.9763954734876
902,1102.000,0.0,1105.7680617052151
903,1103.000,4.102936228407543,1106.5582097715924
904,1104.000,0.0,1107.34683597382
905,1105.000,6.28143638079132,1108.1339366192087
906,1106.000,0.0,1108.9195080212048
907,1107.000,8.282851500583547,1109.7035464994165
908,1108.000,11.318801620361228,1110.4860483796388
909,1109.000,5.262279006120025,1111.26700999388
910,1110.000,0.0,1112.0464276803873
911,1111.000,8.127707216327053,1112.824297783673
912,1112.000,10.936485345461051,1113.600616654539
913,1113.000,13.05235834989685,1114.3753806501031
914,1114.000,5.706437866174383,1115.1485861338256
915,1115.000,10.500145524465779,1115.9202294755341
916,1116.000,0.0,1116.69030705145
917,1117.000,9.339457755787407,1117.4588152442127
918,1118.000,0.0,1118.2257504429074
919,1119.000,10.925336956910314,1118.9911090430896
920,1120.000,12.178319553188885,1119.7548874468112
921,1121.000,0.0,1120.5170820626463
922,1122.000,9.613698694283812,1121.2776893057162
923,1123.000,11.724532402282875,1122.0367055977172
924,1124.000,19.126290633056215,1122.7941273669437
925,1125.000,21.989177951684496,1123.5499510483155
926,1126.000,4.787426916596132,1124.3041730834038
927,1127.000,17.517133079543783,1125.0567899204561
928,1128.000,0.1566009855782795,1125.8077980144217
929,1129.000,0.0,1126.557193826979
930,1130.000,3.7817381734398623,1127.3049738265602
931,1131.000,10.103594511623896,1128.0511344883762
932,1132.000,15.937855705555876,1128.795672294444
933,1133.000,9.687737266388467,1129.5385837336116
934,1134.000,12.919990698415177,1130.2798653015848
935,1135.000,10.611120499050003,1131.01951350095
936,1136.000,19.281618158796164,1131.7575248412038
937,1137.000,7.305764161223351,1132.4938958387766
938,1138.000,20.92359098294196,1133.228623017058
939,1139.000,19.28735809357613,1133.9617029064239
940,1140.000,22.17612095573827,1134.6931320442618
941,1141.000,17.997273025004688,1135.4229069749954
942,1142.000,31.36638774988728,1136.1510242501126
943,1143.000,24.84102657181097,1136.877480428189
944,1144.000,17.441878925084893,1137.6022720749152
945,1145.000,26.17608223687853,1138.3253957631214
946,1146.000,41.369584927195774,1139.0468480728043
947,1147.000,44.46654540884788,1139.7666255911522
948,1148.000,52.887369087429306,1140.4847249125708
949,1149.000,65.08211436129159,1141.2011426387085
950,1150.000,79.45637362151683,1141.9158753784832
951,1151.000,90.89157825189227,1142.6289197481078
952,1152.000,108.79230562888529,1143.3402723711147
953,1153.000,122.95922612161644,1144.0499298783836
954,1154.000,130.08146409183496,1144.7578889081651
955,1155.000,137.94151089389175,1145.4641461061083
956,1156.000,136.80418787471513,1146.168698125285
957,1157.000,122.50524037378273,1146.8715416262173
958,1158.000,115.60607872309834,1147.5726732769017
959,1159.000,80.3210072471652,1148.2720897528347
960,1160.000,74.45523926295914,1148.9697877370409
961,1161.000,69.46308107990421,1149.6657639200957
962,1162.000,52.361426999847026,1150.360015000153
963,1163.000,48.874247317029585,1151.0525376829705
964,1164.000,42.84260531806444,1151.7433286819355
965,1165.000,32.706435281909535,1152.4323847180904
966,1166.000,35.78032647984173,1153.1197025201582
967,1167.000,34.94513417543044,1153.8052788245695
968,1168.000,16.639577624513322,1154.4891103754867
969,1169.000,30.312437075169555,1155.1711939248305
970,1170.000,48.428217767693695,1155.8515262323062
971,1171.000,36.19116793457147,1156.5301040654285
972,1172.000,26.554994800452732,1157.2069241995473
973,1173.000,25.448073582125744,1157.8819834178742
974,1174.000,51.009727488492445,1158.5552785115076
975,1175.000,37.402248720541365,1159.2268062794587
976,1176.000,46.47792147132236,1159.8965635286777
977,1177.000,46.426477925921745,1160.5645470740783
978,1178.000,63.49300126143544,1161.2307537385645
979,1179.000,85.60073864694323,1161.8951803530567
980,1180.000,92.25550124348433,1162.5578237565157
981,1181.000,103.74433220402898,1163.218680795971
982,1182.000,119.82118667345594,1163.877748326544
983,1183.000,135.71360078852535,1164.5350232114747
984,1184.000,123.57826067785095,1165.190502322149
985,1185.000,101.65392946187762,1165.8441825381224
986,1186.000,83.92161125285429,1166.4960607471457
987,1187.000,66.06233115480677,1167.1461338451932
988,1188.000,67.80910326351523,1167.7943987364847
989,1189.000,49.16554766648483,1168.440852333515
990,1190.000,32.85940544292225,1169.0854915570778
991,1191.000,31.400113663709817,1169.7283133362903
992,1192.000,25.793885391378126,1170.3693146086218
993,1193.000,22.372799680082835,1171.0084923199172
994,1194.000,27.458055575576736,1171.6458434244232
995,1195.000,7.414563115184592,1172.2813648848155
996,1196.000,15.814180327778104,1172.9150536722218
997,1197.000,12.111306233749247,1173.5469067662507
998,1198.000,14.840418844985606,1174.1769211550145
999,1199.000,12.595191164842163,1174.8050938351578
1000,1200.000,16.36801118811968,1175.4314218118802
1001,1201.000,13.4751539010349,1176.0559020989651
1002,1202.000,11.50880628119694,1176.678531718803
1003,1203.000,10.64393629758115,1177.299307702419
1004,1204.000,17.595213910502935,1177.9182270894971
1005,1205.000,10.247324071592857,1178.5352869284072
1006,1206.000,16.089964723769526,1179.1504842762304
1007,1207.000,2.6504198012162306,1179.7638161987838
1008,1208.000,0.21142422935145078,1180.3752797706486
1009,1209.000,3.7084769248069733,1180.984872075193
1010,1210.000,10.058608795400232,1181.5925902045997
1011,1211.000,13.462928740108055,1182.198431259892
1012,1212.000,0.0,1182.8023923509581
1013,1213.000,0.0,1183.4044705965778
1014,1214.000,10.176826875552024,1184.004663124448
1015,1215.000,5.815518928791789,1184.6029670712082
1016,1216.000,0.0,1185.1993795824676
1017,1217.000,1.231670187171403,1185.7938978128286
1018,1218.000,9.365530074085427,1186.3865189259145
1019,1219.000,2.624195905605575,1186.9772400943943
1020,1220.000,0.0,1187.5660585000085
1021,1221.000,0.0,1188.152971333595
1022,1222.000,0.0,1188.7379757951153
1023,1223.000,0.0,1189.3210690936796
1024,1224.000,7.060862552427579,1189.9022484475724
1025,1225.000,0.0,1190.4815110842794
1026,1226.000,7.981858759488432,1191.0588542405117
1027,1227.000,0.0,1191.6342751622328
1028,1228.000,3.0227198953164134,1192.2077711046836
1029,1229.000,0.0,1192.7793393324087
1030,1230.000,11.12235388071781,1193.3489771192822
1031,1231.000,4.768957251467555,1193.9166817485325
1032,1232.000,14.402993487231015,1194.482450512769
1033,1233.000,5.319634285993061,1195.046280714007
1034,1234.000,3.450359336305155,1195.6081696636948
1035,1235.000,0.0,1196.1681146827389
1036,1236.000,0.40776189847133537,1196.7261131015287
1037,1237.000,0.0,1197.2821622599631
1038,1238.000,9.59662049252347,1197.8362595074766
1039,1239.000,10.8357737969352,1198.3884022030647
1040,1240.000,3.960363284690402,1198.9385877153095
1041,1241.000,0.0,1199.4868134224055
1042,1242.000,8.603445287814566,1200.0330767121854
1043,1243.000,16.257184017853888,1200.577374982146
1044,1244.000,12.354823360526098,1201.119705639474
1045,1245.000,1.865729898928521,1201.6600661010714
1046,1246.000,0.0,1202.1984537935814
1047,1247.000,0.0,1202.734866153414
1048,1248.000,1.0910133732274971,1203.2693006267725
1049,1249.000,6.3934443303216995,1203.8017546696783
1050,1250.000,8.445184252002491,1204.3322257479974
1051,1251.000,4.103014662534406,1204.8607113374655
1052,1252.000,3.984617076286213,1205.3872089237138
1053,1253.000,11.035293997704457,1205.9117160022956
1054,1254.000,3.0081659212883096,1206.4342300787116
1055,1255.000,0.0,1206.9547486684348
1056,1256.000,0.0,1207.473269296937
1057,1257.000,4.517827500284511,1207.9897894997155
1058,1258.000,2.152913177683331,1208.5043068223167
1059,1259.000,0.0,1209.0168188203638
1060,1260.000,0.0,1209.527323059582
1061,1261.000,0.0,1210.0358171158227
1062,1262.000,0.0,1210.5422985750924
1063,1263.000,6.8961039664250166,1211.046765033575
1064,1264.000,11.282499902339396,1211.5492140976605
1065,1265.000,0.0,1212.0496433839687
1066,1266.000,8.360503480624175,1212.548050519376
1067,1267.000,10.96916085895964,1213.0444331410404
1068,1268.000,0.0,1213.5387888964287
1069,1269.000,0.0,1214.03111544334
1070,1270.000,11.419875550066308,1214.5214104499337
1071,1271.000,0.0,1215.009671594754
1072,1272.000,0.0,1215.4958965667556
1073,1273.000,0.0,1215.9800830653305
1074,1274.000,0.0,1216.4622288003322
1075,1275.000,7.950934507897273,1216.9423314921028
1076,1276.000,0.0,1217.4203888714978
1077,1277.000,0.0,1217.896398679913
1078,1278.000,6.733155330690806,1218.370358669309
1079,1279.000,4.581666397762319,1218.8422666022377
1080,1280.000,0.0,1219.3121202518676
1081,1281.000,1.2736545979901166,1219.77991740201
1082,1282.000,1.4557871528554642,1220.2456558471445
1083,1283.000,0.0,1220.709333392445
1084,1284.000,0.0,1221.170947853805
1085,1285.000,0.0,1221.630497057864
1086,1286.000,13.607203157967888,1222.087978842032
1087,1287.000,0.0,1222.543391054517
1088,1288.000,0.06471544565010845,1222.99673155435
1089,1289.000,0.0,1223.4479982114096
1090,1290.000,0.0,1223.8971889064499
1091,1291.000,0.0,1224.3443015311243
1092,1292.000,16.6620220119878,1224.7893339880122
1093,1293.000,0.5295478093546535,1225.2322841906453
1094,1294.000,0.0,1225.6731500635321
1095,1295.000,0.0,1226.1119295421845
1096,1296.000,3.2845524268568624,1226.5486205731431
1097,1297.000,0.0,1226.983221114003
1098,1298.000,10.276589866559561,1227.4157291334404
1099,1299.000,4.824724388763343,1227.8461426112367
1100,1300.000,11.179465461694008,1228.274459538306
1101,1301.000,0.0,1228.70067791672
1102,1302.000,0.0,1229.1247957597332
1103,1303.000,7.722081908189921,1229.54681109181
1104,1304.000,0.0,1229.9667219486494
1105,1305.000,9.379171622789272,1230.3845263772107
1106,1306.000,0.0,1230.8002224357401
1107,1307.000,0.0,1231.213808193796
1108,1308.000,0.0,1231.6252817322747
1109,1309.000,0.0,1232.0346411434366
1110,1310.000,0.0,1232.4418845309299
1111,1311.000,2.548835990180123,1232.8470100098198
1112,1312.000,0.0,1233.2500157066115
1113,1313.000,0.0,1233.6508997592778
1114,1314.000,0.0,1234.0496603172828
1115,1315.000,3.9998254583902053,1234.4462955416097
1116,1316.000,7.976812395214893,1234.8408036047852
1117,1317.000,8.554521309094753,1235.2331826909053
1118,1318.000,0.0,1235.623430995663
1119,1319.000,1.5847632736290507,1236.0115467263709
1120,1320.000,0.0,1236.3975281019893
1121,1321.000,0.7316496468488367,1236.7813733531511
1122,1322.000,8.219681277812242,1237.1630807221877
1123,1323.000,0.9058445368452794,1237.5426484631548
1124,1324.000,0.0,1237.920074841858
1125,1325.000,5.324478864121147,1238.2953581358788
1126,1326.000,4.803417365400719,1238.6684966345993
1127,1327.000,7.158130360769519,1239.0394886392305
1128,1328.000,0.0,1239.4083324628352
1129,1329.000,2.7402815696448215,1239.7750264303552
1130,1330.000,12.497746121363207,1240.1395688786367
1131,1331.000,4.400812843543463,1240.5019581564566
1132,1332.000,13.047077375453227,1240.8621926245469
1133,1333.000,0.0,1241.220270655623
1134,1334.000,0.0,1241.576190634406
1135,1335.000,9.164269042348906,1241.929950957651
1136,1336.000,0.0,1242.2815500341726
1137,1337.000,0.9762457151302897,1242.6309862848698
1138,1338.000,0.0,1242.9782581427517
1139,1339.000,8.789589947035665,1243.3233640529643
1140,1340.000,0.0,1243.666302472815
1141,1341.000,3.6239781281999512,1244.0070718718
1142,1342.000,0.0,1244.3456707316282
1143,1343.000,0.0,1244.6820975462479
1144,1344.000,5.217649178126976,1245.016350821873
1145,1345.000,16.768835922993503,1245.3484290770066
1146,1346.000,9.01044115752893,1245.678330842471
1147,1347.000,1.3524283385718263,1246.0060546614282
1148,1348.000,5.39783591058972,1246.3315990894102
1149,1349.000,8.030116305658566,1246.6549626943415
1150,1350.000,3.4111279434328026,1246.9761440565671
1151,1351.000,0.0,1247.2951417688764
1152,1352.000,14.376677563469912,1247.6119544365301
1153,1353.000,16.090008322713174,1247.926580677287
1154,1354.000,0.0,1248.2390191214267
1155,1355.000,8.020639588221911,1248.549268411778
1156,1356.000,8.013479796256206,1248.8573272037438
1157,1357.000,8.02701083467332,1249.1631941653268
1158,1358.000,7.656832022845265,1249.4668679771548
1159,1359.000,0.0,1249.7683473325076
1160,1360.000,7.176945062658206,1250.0676309373418
1161,1361.000,6.110845489682788,1250.3647175103172
1162,1362.000,0.0,1250.6596057828215
1163,1363.000,0.0,1250.9522944989972
1164,1364.000,11.579632584233423,1251.2427824157667
1165,1365.000,0.0,1251.5310683028588
1166,1366.000,0.0,1251.817150942833
1167,1367.000,0.0,1252.1010291311077
1168,1368.000,1.8194223240175234,1252.3827016759824
1169,1369.000,0.0,1252.6621673986667
1170,1370.000,0.0,1252.9394251333047
1171,1371.000,0.0,1253.214473727001
1172,1372.000,5.492108960153928,1253.487312039846
1173,1373.000,16.40753105505746,1253.7579389449425
1174,1374.000,7.851139671570309,1254.0263533284296
1175,1375.000,6.441728910488791,1254.2925540895112
1176,1376.000,6.871233859519407,1254.5565401404806
1177,1377.000,1.9367385932557681,1254.8183104067443
1178,1378.000,8.442166173148962,1255.077863826851
1179,1379.000,0.0,1255.3351993525152
1180,1380.000,6.579239051356581,1255.5903159486434
1181,1381.000,2.741653406639898,1255.84321259336
1182,1382.000,11.64655872196613,1256.0938882780338
1183,1383.000,0.0,1256.3423420073027
1184,1384.000,3.9210832009009664,1256.588572799099
1185,1385.000,12.368912315323769,1256.8325796846761
1186,1386.000,0.8772982913644682,1257.0743617086355
1187,1387.000,0.0,1257.3139179289494
1188,1388.000,1.4932135830108564,1257.551247416989
1189,1389.000,7.717671742449966,1257.78634925755
1190,1390.000,15.173117451124199,1258.0192225488759
1191,1391.000,0.0,1258.249866402688
1192,1392.000,0.0,1258.4782799442069
1193,1393.000,5.1209746878189435,1258.704462312181
1194,1394.000,0.0,1258.9284126589114
1195,1395.000,10.87648784972248,1259.1501301502776
1196,1396.000,0.8894150342368903,1259.3696139657632
1197,1397.000,0.0,1259.5868632984816
1198,1398.000,0.7767386447974332,1259.8018773552026
1199,1399.000,2.4288586436236983,1260.0146553563764
1200,1400.000,3.0075564638386822,1260.2251965361613
1201,1401.000,2.486532857551765,1260.4335001424483
1202,1402.000,2.216419563112595,1260.6395654368873
1203,1403.000,6.825931305087579,1260.8433916949125
1204,1404.000,0.0,1261.0449782057674
1205,1405.000,0.25614172746645636,1261.2443242725335
1206,1406.000,9.617018787847428,1261.4414292121526
1207,1407.000,8.551834644545579,1261.6362923554543
1208,1408.000,12.145711952818829,1261.8289130471812
1209,1409.000,4.734220353984256,1262.0192906460156
1210,1410.000,7.323129475396172,1262.2074245246038
1211,1411.000,12.107754930417286,1262.3933140695826
1212,1412.000,6.781690318393657,1262.5769586816064
1213,1413.000,13.992314224629581,1262.7583577753703
1214,1414.000,12.461656220363466,1262.9375107796366
1215,1415.000,0.0,1263.1144171372625
1216,1416.000,19.612424694775427,1263.2890763052246
1217,1417.000,4.432356245357369,1263.4614877546426
1218,1418.000,13.703601029191077,1263.631650970809
1219,1419.000,17.28334154678805,1263.799565453212
1220,1420.000,12.882737284438008,1263.965230715562
1221,1421.000,3.7148847141820625,1264.128646285818
1222,1422.000,11.91828529378813,1264.2898117062118
1223,1423.000,16.845708466724545,1264.4487265332755
1224,1424.000,15.65166166213362,1264.6053903378663
1225,1425.000,14.974989294807756,1264.7598027051922
1226,1426.000,24.70416176516119,1264.9119632348388
1227,1427.000,17.515666459206386,1265.0618715407936
1228,1428.000,26.759383748528307,1265.2095272514716
1229,1429.000,28.40145899025606,1265.3549300097438
1230,1430.000,31.34542552704056,1265.4980794729595
1231,1431.000,27.817949687025248,1265.6389753129747
1232,1432.000,26.2612697838249,1265.777617216175
1233,1433.000,28.95853811649522,1265.9140048835047
1234,1434.000,27.57749796950975,1266.0481380304902
1235,1435.000,32.518671612733215,1266.1800163872667
1236,1436.000,33.815571301396176,1266.3096396986039
1237,1437.000,37.37383427606915,1266.437007723931
1238,1438.000,52.96163576263643,1266.5621202373636
1239,1439.000,69.78415197227218,1266.6849770277279
1240,1440.000,71.43477410141054,1266.8055778985895
1241,1441.000,82.73535033172516,1266.9239226682748
1242,1442.000,99.01762383009941,1267.0400111699005
1243,1443.000,113.33712774860282,1267.1538432513971
1244,1444.000,125.29711022446372,1267.2654187755363
1245,1445.000,138.71984038004507,1267.3747376199549
1246,1446.000,169.92875532281687,1267.481799677183
1247,1447.000,174.39034714533386,1267.5866048546661
1248,1448.000,204.54560192520466,1267.6891530747953
1249,1449.000,213.48193972507102,1267.7894442749289
1250,1450.000,222.31647859257737,1267.8874784074226
1251,1451.000,205.45738356034985,1267.98325543965
1252,1452.000,193.9451816459673,1268.0767753540326
1253,1453.000,184.63915785193672,1268.1680381480633
1254,1454.000,167.71062716566644,1268.2570438343337
1255,1455.000,146.27988255944138,1268.3437924405587
1256,1456.000,134.46413199039762,1268.4282840096023
1257,1457.000,115.27118640049616,1268.510518599504
1258,1458.000,93.43179071649615,1268.5904962835039
1259,1459.000,80.40306584993164,1268.6682171500684
1260,1460.000,70.40775869708204,1268.743681302918
1261,1461.000,67.3153661389506,1268.8168888610494
1262,1462.000,50.37024404123622,1268.8878399587638
1263,1463.000,47.54358125430758,1268.9565347456924
1264,1464.000,30.39759461317817,1269.0229733868218
1265,1465.000,44.68407093747987,1269.08715606252
1266,1466.000,42.20550203143921,1269.1490829685608
1267,1467.000,28.147763683848098,1269.208754316152
1268,1468.000,18.242911668041415,1269.2661703319586
1269,1469.000,27.99310374186939,1269.3213312581306
1270,1470.000,37.164539647671745,1269.3742373523282
1271,1471.000,21.447760112253036,1269.4248888877469
1272,1472.000,17.72608184685714,1269.473286153143
1273,1473.000,26.79058254713891,1269.519429452861
1274,1474.000,9.148050893142226,1269.5633191068578
1275,1475.000,22.96174754927074,1269.6049554507292
1276,1476.000,24.421846164264252,1269.6443388357357
1277,1477.000,22.548494371173092,1269.681469628827
1278,1478.000,5.859792787330434,1269.7163482126696
1279,1479.000,9.085183014327868,1269.748974985672
1280,1480.000,16.818804637990297,1269.7793503620096
1281,1481.000,14.390229228348971,1269.807474771651
1282,1482.000,19.586637339616345,1269.8333486603838
1283,1483.000,8.991971510159374,1269.8569724898407
1284,1484.000,12.221962262475245,1269.8783467375247
1285,1485.000,15.832397103165249,1269.8974718968348
1286,1486.000,6.156468522908199,1269.9143484770918
1287,1487.000,14.159925996434822,1269.9289770035653
1288,1488.000,3.3304719825030134,1269.941358017497
1289,1489.000,12.87872492387146,1269.9514920761285
1290,1490.000,16.239694247272837,1269.9593797527273
1291,1491.000,10.444980363389732,1269.9650216366103
1292,1492.000,8.99741066682941,1269.9684183331706
1293,1493.000,0.0,1269.9695704639053
1294,1494.000,6.041032333562043,1269.968478666438
1295,1495.000,4.090553405452965,1269.965143594547
1296,1496.000,11.112088081810498,1269.9595659181896
1297,1497.000,0.0,1269.951746323528
1298,1498.000,1.3517354870441523,1269.941685512956
1299,1499.000,3.2368837948756664,1269.9293842051243
1300,1500.000,0.3521238650337182,1269.9148431349663
1301,1501.000,7.840332946277385,1269.8980630537226
1302,1502.000,0.7110852710313793,1269.8790447289687
1303,1503.000,0.0,1269.8577889446397
1304,1504.000,4.302891498943154,1269.8342965010568
1305,1505.000,11.158470785049076,1269.808568214951
1306,1506.000,10.247180080508542,1269.7806049194915
1307,1507.000,2.251838535689558,1269.7504074643105
1308,1508.000,6.03158728447238,1269.7179767155276
1309,1509.000,5.914012444221498,1269.6833135557786
1310,1510.000,13.658015115762737,1269.6464188842372
1311,1511.000,0.808986383356114,1269.6072936166438
1312,1512.000,8.50944131466872,1269.5659386853313
1313,1513.000,3.519683960751536,1269.5223550392484
1314,1514.000,0.7877663560120709,1269.476543643988
1315,1515.000,12.917509518189036,1269.428505481811
1316,1516.000,8.489938448326939,1269.378241551673
1317,1517.000,0.0,1269.3257528692507
1318,1518.000,11.892955533033955,1269.271040466966
1319,1519.000,8.187342605986032,1269.214105394014
1320,1520.000,7.2651312836153465,1269.1549487163848
1321,1521.000,4.106712483105184,1269.0935715168948
1322,1522.000,5.15053310479334,1269.0299748952066
1323,1523.000,11.34292703213896,1268.964159967861
1324,1524.000,10.689510131703628,1268.8961278682964
1325,1525.000,10.21713325312112,1268.8258797468789
1326,1526.000,13.15584222907296,1268.753416770927
1327,1527.000,19.03289687526444,1268.6787401247357
1328,1528.000,0.0,1268.601851009605
1329,1529.000,3.655666356135953,1268.5227506438641
1330,1530.000,23.800227737102887,1268.441440262897
1331,1531.000,0.5076748808323828,1268.3579211191677
1332,1532.000,7.694702517752148,1268.2721944822479
1333,1533.000,0.0,1268.1842616388428
1334,1534.000,0.8065671071869929,1268.094123892813
1335,1535.000,1.7176024347952534,1268.0017825652048
1336,1536.000,0.0,1267.9072389942737
1337,1537.000,0.0,1267.8104945355105
1338,1538.000,11.20097343833254,1267.7115505616675
1339,1539.000,9.761658537216135,1267.6104084627839
1340,1540.000,4.346436353789159,1267.5070696462108
1341,1541.000,8.203062463361675,1267.4015355366382
1342,1542.000,0.0,1267.2938075761203
1343,1543.000,3.507009775898041,1267.183887224102
1344,1544.000,1.3695330425582597,1267.0717759574418
1345,1545.000,13.707181729558442,1266.9574752704416
1346,1546.000,8.46617532513028,1266.8409866748698
1347,1547.000,18.97112730001345,1266.7223116999864
1348,1548.000,9.464379107426794,1266.601451892573
1349,1549.000,10.164183183045907,1266.478408816954
1350,1550.000,1.037996944977749,1266.3531840550222
1351,1551.000,4.67115179373036,1266.2257792062696
1352,1552.000,12.040486112192639,1266.0961958878074
1353,1553.000,0.0,1265.964435734396
1354,1554.000,21.856944601532632,1265.8305003984674
1355,1555.000,12.545043449845252,1265.6943915501547
1356,1556.000,7.773134122687679,1265.5561108773122
1357,1557.000,7.370078914451824,1265.415660085548
1358,1558.000,17.54558010175424,1265.2730408982457
1359,1559.000,22.829068943409766,1265.1282550565902
1360,1560.000,17.737573680406967,1264.981304319593
1361,1561.000,20.26723753587885,1264.8321904641211
1362,1562.000,20.117702715079076,1264.680915284921
1363,1563.000,17.334884405358252,1264.5274805946417
1364,1564.000,20.788518776135334,1264.3718882238647
1365,1565.000,20.16770797887193,1264.214140021128
1366,1566.000,21.81488714704915,1264.0542378529508
1367,1567.000,33.175713396138235,1263.8921836038617
1368,1568.000,21.58772282357836,1263.7279791764217
1369,1569.000,37.8335755087478,1263.5616264912521
1370,1570.000,25.206536512941057,1263.393127487059
1371,1571.000,38.74073087934016,1263.2224841206598
1372,1572.000,54.90024463299096,1263.0496983670091
1373,1573.000,46.91697078077732,1262.8747722192227
1374,1574.000,57.179981311394386,1262.6977076886055
1375,1575.000,63.479954195323444,1262.5185068046765
1376,1576.000,93.00642638480554,1262.3371716151944
1377,1577.000,102.98443881381718,1262.1537041861827
1378,1578.000,105.46713439804239,1261.9681066019575
1379,1579.000,141.0261040348487,1261.7803809651514
1380,1580.000,159.04521560326157,1261.5905293967385
1381,1581.000,195.04237396393728,1261.3985540360627
1382,1582.000,219.4173849591375,1261.2044570408625
1383,1583.000,226.1380864127043,1261.0082405872956
1384,1584.000,219.99061313003358,1260.8099068699664
1385,1585.000,215.2607028980508,1260.6094581019493
1386,1586.000,170.89977648518357,1260.4068965148165
1387,1587.000,166.92493264133464,1260.2022243586653
1388,1588.000,138.59798609786094,1259.995443902139
1389,1589.000,128.2644865675436,1259.7865574324564
1390,1590.000,141.38858974456207,1259.5755672554378
1391,1591.000,123.56200130447223,1259.3624756955278
1392,1592.000,129.71928390417565,1259.1472850958244
1393,1593.000,142.70418618189888,1258.9299978181011
1394,1594.000,163.53369575716283,1258.7106162428372
1395,1595.000,173.30012923076174,1258.4891427692382
1396,1596.000,218.90238618473222,1258.2655798152678
1397,1597.000,262.472963182332,1258.039929817668
1398,1598.000,309.4172237680127,1257.8121952319873
1399,1599.000,416.6373914673936,1257.5823785326063
1400,1600.000,506.2160667872356,1257.3504822127643
1401,1601.000,593.9283632154161,1257.1165087845839
1402,1602.000,633.2218282209033,1256.8804607790967
1403,1603.000,598.3009732537312,1256.642340746269
1404,1604.000,499.83404074497093,1256.4021512550291
1405,1605.000,406.9011771067094,1256.1598948932906
1406,1606.000,314.18521973201996,1255.91557426798
1407,1607.000,258.04418899493726,1255.6691920050628
1408,1608.000,204.51486425043254,1255.4207507495676
1409,1609.000,163.3334558343886,1255.1702531656115
1410,1610.000,127.07201006357127,1254.9177019364288
1411,1611.000,102.1625002356061,1254.6630997643938
1412,1612.000,87.86296762895108,1254.406449371049
1413,1613.000,88.32207350287217,1254.1477534971277
1414,1614.000,67.51956009741798,1253.887014902582
1415,1615.000,48.3253556333907,1253.6242363666092
1416,1616.000,48.507721312324065,1253.359420687676
1417,1617.000,46.15281731645587,1253.0925706835442
1418,1618.000,46.301466808702116,1252.823689191298
1419,1619.000,38.63206793263271,1252.5527790673673
1420,1620.000,31.48832381244415,1252.2798431875558
1421,1621.000,40.765415552933064,1252.0048844470668
1422,1622.000,29.87396623947393,1251.727905760526
1423,1623.000,25.829401937989587,1251.4489100620103
1424,1624.000,21.100381694927137,1251.1679003050729
1425,1625.000,21.9087595372323,1250.8848794627677
1426,1626.000,14.607952472323404,1250.5998505276766
1427,1627.000,9.046087488064813,1250.3128165119351
1428,1628.000,25.6487665527427,1250.0237804472572
1429,1629.000,22.67900961504006,1249.73274538496
1430,1630.000,17.14975160400627,1249.4397143959936
1431,1631.000,15.190846429036355,1249.1446905709636
1432,1632.000,17.26528897984349,1248.8476770201564
1433,1633.000,25.073792126432636,1248.5486768735673
1434,1634.000,0.0,1248.247693280924
1435,1635.000,7.0122705882856735,1247.9447294117144
1436,1636.000,9.482204544789738,1247.6397884552102
1437,1637.000,19.667993379504424,1247.3328736204955
1438,1638.000,9.584731863509887,1247.02398813649
1439,1639.000,4.776837748025855,1246.713135251974
1440,1640.000,2.6352197643818727,1246.4003182356182
1441,1641.000,9.74752862399464,1246.0855403760054
1442,1642.000,1.2067410183401535,1245.7688049816597
1443,1643.000,1.307318618932186,1245.450115381068
1444,1644.000,1.5829590772909796,1245.129474922709
1445,1645.000,16.745991024919476,1244.8068869750805
1446,1646.000,15.583170073280598,1244.4823549267194
1447,1647.000,7.59946381376767,1244.1558821862322
1448,1648.000,13.87656881768089,1243.827472182319
1449,1649.000,9.47913563619909,1243.4971283638008
1450,1650.000,4.220888800357216,1243.1648541996428
1451,1651.000,6.9769228210170695,1242.8306531789829
1452,1652.000,8.44036918884558,1242.4945288111544
1453,1653.000,15.682572374286792,1242.1564846257131
1454,1654.000,0.0,1241.8165241724655
1455,1655.000,2.9804859785094777,1241.4746510214904
1456,1656.000,4.5481782368324275,1241.1308687631677
1457,1657.000,10.347636991797799,1240.7851810082022
1458,1658.000,10.9526516123492,1240.4375913876509
1459,1659.000,5.046991447052733,1240.0881035529474
1460,1660.000,1.7547098240709147,1239.736721175929
1461,1661.000,0.0,1239.3834479488619
1462,1662.000,0.0,1239.0282875844664
1463,1663.000,0.0,1238.671243815942
1464,1664.000,0.6315926030042647,1238.3123203969958
1465,1665.000,6.047784898133386,1237.9515211018665
1466,1666.000,7.253133274649144,1237.5888497253509
1467,1667.000,11.030185917172957,1237.224310082827
1468,1668.000,19.685852989716977,1236.857906010283
1469,1669.000,6.527861635657246,1236.4896413643428
1470,1670.000,4.2981169777108335,1236.1195200222892
1471,1671.000,8.543024117906725,1235.7475458820932
1472,1672.000,2.700798137564334,1235.3737228624357
1473,1673.000,0.0,1234.9980549027373
1474,1674.000,2.1137980368189346,1234.620545963181
1475,1675.000,7.601569975259963,1234.24120002474
1476,1676.000,0.0,1233.8600210892018
1477,1677.000,0.0,1233.4770131791943
1478,1678.000,0.0,1233.0921803382125
1479,1679.000,0.8747983693542665,1232.7055266306456
1480,1680.000,6.974020858202721,1232.3170561417974
1481,1681.000,0.0,1231.9267729779192
1482,1682.000,2.5427247337722747,1231.5346812662278
1483,1683.000,9.587475845061363,1231.1407851549386
1484,1684.000,0.0,1230.7450888132876
1485,1685.000,2.3026185684439042,1230.347596431556
1486,1686.000,8.018423778901024,1229.948312221099
1487,1687.000,1.4213715856290037,1229.547240414371
1488,1688.000,0.20201873505311596,1229.1443852649468
1489,1689.000,1.687920952444756,1228.7397510475553
1490,1690.000,0.0,1228.3333420580993
1491,1691.000,2.8348863863170664,1227.925162613683
1492,1692.000,0.0,1227.5152170526371
1493,1693.000,7.423204265453933,1227.1035097345462
1494,1694.000,3.141213959727338,1226.6900450402727
1495,1695.000,8.993949628016026,1226.274827371984
1496,1696.000,3.095538846822137,1225.857861153178
1497,1697.000,0.0,1225.439150828707
1498,1698.000,4.455167135194188,1225.0187008648059
1499,1699.000,0.0,1224.5965157491164
1500,1700.000,7.937537009284824,1224.172599990715
1501,1701.000,0.0,1223.7469581201362
1502,1702.000,3.1876203106028242,1223.3195946893973
1503,1703.000,3.8030097279713573,1222.8905142720287
1504,1704.000,9.570578536905032,1222.4597214630949
1505,1705.000,0.0,1222.0272208792248
1506,1706.000,4.546816841367217,1221.5930171586328
1507,1707.000,9.330891038853224,1221.1571149611468
1508,1708.000,6.197765031765812,1220.7195189682343
1509,1709.000,0.9012301169716466,1220.2802338830284
1510,1710.000,1.7563395696477073,1219.8392644303524
1511,1711.000,9.657878643254662,1219.3966153567453
1512,1712.000,13.423599569510543,1218.9522914304894
1513,1713.000,4.268809558365547,1218.5062974416344
1514,1714.000,3.6753407979770145,1218.058638202023
1515,1715.000,2.1598874546807565,1217.6093185453192
1516,1716.000,1.1011896729696673,1217.1583433270303
1517,1717.000,7.319659575464584,1216.7057174245354
1518,1718.000,4.668739262890085,1216.2514457371099
1519,1719.000,0.0,1215.7955331859534
1520,1720.000,4.20960028578952,1215.3379847142105
1521,1721.000,0.0,1214.8788052870023
1522,1722.000,2.7838411085513144,1214.4179998914487
1523,1723.000,2.5096994633051963,1213.9555735366948
1524,1724.000,11.883394746061185,1213.4915312539388
1525,1725.000,1.7748109035476318,1213.0258780964523
1526,1726.000,7.757410860386699,1212.5586191396133
1527,1727.000,0.0,1212.0897594809255
1528,1728.000,4.376854759950902,1211.6193042400491
1529,1729.000,0.6534734411777663,1211.1472585588222
1530,1730.000,0.0,1210.6736276012907
1531,1731.000,4.5781884462705875,1210.1984165537294
1532,1732.000,3.7059613753267513,1209.7216306246733
1533,1733.000,0.0,1209.2432750449384
1534,1734.000,0.0,1208.7633550676499
1535,1735.000,15.275141031732346,1208.2818759682677
1536,1736.000,0.0,1207.7988430446119
1537,1737.000,9.44408138311178,1207.3142616168882
1538,1738.000,8.699432972284967,1206.828137027715
1539,1739.000,0.0,1206.3404746421465
1540,1740.000,0.0,1205.8512798477032
1541,1741.000,3.2682339456086993,1205.3605580543913
1542,1742.000,0.0,1204.8683146947333
1543,1743.000,1.5712677762080602,1204.374555223792
1544,1744.000,6.734082880802134,1203.879285119198
1545,1745.000,0.0,1203.3825098811703
1546,1746.000,0.0,1202.8842350325494
1547,1747.000,0.0,1202.3844661188175
1548,1748.000,0.0,1201.8832087081269
1549,1749.000,6.982997608676442,1201.3804683913236
1550,1750.000,2.3506012180243943,1200.8762507819756
1551,1751.000,3.2840634836024947,1200.3705615163974
1552,1752.000,9.00583674632503,1199.863406253675
1553,1753.000,3.93215132430646,1199.3547906756935
1554,1754.000,0.7929915128386256,1198.8447204871613
1555,1755.000,5.029495584363531,1198.3332014156365
1556,1756.000,5.93178878844833,1197.8202392115518
1557,1757.000,10.793442351758358,1197.3058396482415
1558,1758.000,8.583023478032374,1196.7900085219676
1559,1759.000,0.0,1196.2727516519426
1560,1760.000,13.56517611964,1195.75407488036
1561,1761.000,11.481163927585158,1195.2339840724148
1562,1762.000,11.353542883665796,1194.7124851163342
1563,1763.000,0.0,1194.1895839233985
1564,1764.000,0.0,1193.6652864279704
1565,1765.000,4.977384412477932,1193.139598587522
1566,1766.000,6.026568617346356,1192.6125263826536
1567,1767.000,5.37227918287158,1192.0840758171285
1568,1768.000,3.5071210821088243,1191.554252917891
1569,1769.000,0.0,1191.0230637350987
1570,1770.000,5.7337976578580765,1190.490514342142
1571,1771.000,0.0,1189.9566108356748
1572,1772.000,0.957185664361532,1189.4213593356385
1573,1773.000,0.0,1188.8847659852852
1574,1774.000,3.695369048790326,1188.3468369512098
1575,1775.000,0.0,1187.8075784233679
1576,1776.000,0.0,1187.2669966151084
1577,1777.000,11.103521236806046,1186.7250977631938
1578,1778.000,8.479322872168268,1186.1818881278318
1579,1779.000,9.864942007306126,1185.637373992694
1580,1780.000,3.148262335051868,1185.0915616649481
1581,1781.000,0.0,1184.5444574752792
1582,1782.000,8.28710122208031,1183.9960677779197
1583,1783.000,15.309998049330488,1183.4463989506696
1584,1784.000,3.1823786050726994,1182.8954573949272
1585,1785.000,10.556990464287537,1182.3432495357124
1586,1786.000,6.617485178306879,1181.7897818216932
1587,1787.000,0.0,1181.235060725212
1588,1788.000,15.551312257691507,1180.6790927423085
1589,1789.000,0.0,1180.121884392749
1590,1790.000,0.39719277994799995,1179.563442220052
1591,1791.000,10.372728208490116,1179.0037727915098
1592,1792.000,0.0,1178.442882698219
1593,1793.000,9.19822544489557,1177.8807785551044
1594,1794.000,2.031478999056162,1177.317467000944
1595,1795.000,10.581102301604687,1176.7529546983953
1596,1796.000,0.0,1176.1872483340221
1597,1797.000,2.131569381680265,1175.6203546183197
1598,1798.000,6.1480897142614594,1175.0522802857386
1599,1799.000,0.0,1174.4830320947135
1600,1800.000,11.576380172312838,1173.912616827687
1601,1801.000,4.134278708863803,1173.3410412911362
1602,1802.000,0.8343786844015995,1172.7683123155985
1603,1803.000,0.0,1172.1944367556948
1604,1804.000,5.274657509838562,1171.6194214901614
1605,1805.000,6.762956578132844,1171.043273421867
1606,1806.000,14.774419522151447,1170.4659994778485
1607,1807.000,15.158574390672811,1169.8876066093271
1608,1808.000,16.26002020825922,1169.3081017917407
1609,1809.000,13.852372975233038,1168.727492024767
1610,1810.000,7.075936667650467,1168.1457843323494
1611,1811.000,6.551992237276636,1167.5629857627234
1612,1812.000,13.92273161155731,1166.9791033884426
1613,1813.000,12.877939693597682,1166.3941443064023
1614,1814.000,0.0,1165.8081156378676
1615,1815.000,6.796373471502193,1165.2210245284978
1616,1816.000,9.24665185162553,1164.6328781483744
1617,1817.000,6.025883307976301,1164.0436836920237
1618,1818.000,10.418919621555688,1163.4534483784444
1619,1819.000,10.426062548867549,1162.8621794511325
1620,1820.000,4.838209821892406,1162.2698841781075
1621,1821.000,12.150737148059761,1161.6765698519403
1622,1822.000,4.228026210226744,1161.0822437897732
1623,1823.000,0.0,1160.486913333351
1624,1824.000,8.857920150953078,1159.8905858490468
1625,1825.000,3.3546562721169266,1159.293268727883
1626,1826.000,10.773653614437762,1158.6949693855622
1627,1827.000,6.601899737510621,1158.0956952624895
1628,1828.000,10.942248176200565,1157.4954538237994
1629,1829.000,2.2545694406157963,1156.8942525593843
1630,1830.000,11.736872016086636,1156.2920989839133
1631,1831.000,17.662388363133687,1155.6890006368662
1632,1832.000,8.655858917447404,1155.0849650825526
1633,1833.000,8.344078089857703,1154.4799999101424
1634,1834.000,0.0,1153.8741127336884
1635,1835.000,18.935660807846034,1153.267311192154
1636,1836.000,4.120395050563275,1152.6596029494367
1637,1837.000,11.614922305602022,1152.050995694398
1638,1838.000,10.253376859117225,1151.4414971408828
1639,1839.000,12.202307972248263,1150.8311150277518
1640,1840.000,12.406685881096337,1150.2198571189037
1641,1841.000,7.052012796699955,1149.6077312033
1642,1842.000,0.955326905005677,1148.9947450949944
1643,1843.000,8.915143366844859,1148.380906633155
1644,1844.000,8.088044317907816,1147.7662236820922
1645,1845.000,5.952065868717455,1147.1507041312825
1646,1846.000,4.587203104601485,1146.5343558953984
1647,1847.000,0.0,1145.9171869143272
1648,1848.000,14.619115846796149,1145.299205153204
1649,1849.000,0.0,1144.6804186024324
1650,1850.000,8.204229722286073,1144.060835277714
1651,1851.000,12.143561779930678,1143.4404632200694
1652,1852.000,11.23884250412948,1142.8193104958705
1653,1853.000,0.37242780314136326,1142.1973851968587
1654,1854.000,10.38362255982156,1141.5746954401784
1655,1855.000,3.284873631604796,1140.951249368395
1656,1856.000,12.612125850472694,1140.3270551495273
1657,1857.000,6.16095702293137,1139.7021209770687
1658,1858.000,5.832456929982527,1139.0764550700176
1659,1859.000,1.8331673271040927,1138.450065672896
1660,1860.000,2.913939944216736,1137.8229610557833
1661,1861.000,2.144481485663846,1137.1951495143362
1662,1862.000,16.88051763018325,1136.5666393698168
1663,1863.000,9.410949030880374,1135.9374389691197
1664,1864.000,3.5766563152062645,1135.3075566847938
1665,1865.000,12.565434084928484,1134.6770009150714
1666,1866.000,3.714095916106544,1134.0457800838935
1667,1867.000,10.345214359065267,1133.4139026409348
1668,1868.000,12.985704938371555,1132.7813770616285
1669,1869.000,7.134712152804923,1132.1482118471952
1670,1870.000,10.859629475335623,1131.5144155246644
1671,1871.000,10.962200353094886,1130.879996646905
1672,1872.000,2.786982207353958,1130.244963792646
1673,1873.000,12.435922433492806,1129.609325566507
1674,1874.000,0.998348400978557,1128.9730905990214
1675,1875.000,3.823151453339733,1128.3362675466603
1676,1876.000,10.03432290813521,1127.6988650918647
1677,1877.000,10.371984056938118,1127.060891943062
1678,1878.000,10.671273165300363,1126.4223568346997
1679,1879.000,8.864733472729995,1125.78326852727
1680,1880.000,0.0,1125.1436358073292
1681,1881.000,14.464160512468197,1124.503467487532
1682,1882.000,1.2927605933491577,1123.862772406651
1683,1883.000,0.026875570393258386,1123.2215594296067
1684,1884.000,19.23164855251116,1122.579837447489
1685,1885.000,5.380000622413263,1121.9376153775868
1686,1886.000,2.6518938365873055,1121.2949021634126
1687,1887.000,0.0,1120.6517067747263
1688,1888.000,12.613125792436449,1120.0080382075635
1689,1889.000,0.0,1119.36390548426
1690,1890.000,2.681179346521276,1118.7193176534788
1691,1891.000,10.08847220976645,1118.0742837902335
1692,1892.000,0.0,1117.4288129959152
1693,1893.000,22.919905601679602,1116.7829143983204
1694,1894.000,5.764949848326069,1116.1365971516739
1695,1895.000,9.814570563345569,1115.4898704366544
1696,1896.000,13.431663539576675,1114.8427434604234
1697,1897.000,8.672752543353909,1114.195225456646
1698,1898.000,10.24007931447727,1113.5473256855228
1699,1899.000,4.774954566189535,1112.8990534338104
1700,1900.000,18.43591098515094,1112.250418014849
1701,1901.000,7.897870231409797,1111.6014287685903
1702,1902.000,20.3201859383812,1110.9520950616188
1703,1903.000,15.732851712817364,1110.3024262871827
1704,1904.000,15.625655134785802,1109.652431865214
1705,1905.000,4.837985757641036,1109.002121242359
1706,1906.000,7.665094107997902,1108.351503892002
1707,1907.000,0.0,1107.7005893142914
1708,1908.000,17.27194996383446,1107.0493870361656
1709,1909.000,0.0,1106.397906611377
1710,1910.000,6.831826379478343,1105.7461576205217
1711,1911.000,14.204005328939274,1105.0941496710607
1712,1912.000,0.0,1104.4418923973499
1713,1913.000,13.106314539337745,1103.7893954606623
1714,1914.000,0.0,1103.1366685492142
1715,1915.000,9.01386362180574,1102.4837213781943
1716,1916.000,9.470048310213997,1101.830563689786
1717,1917.000,11.981530746806357,1101.1772052531937
1718,1918.000,9.756787135328977,1100.5236558646711
1719,1919.000,6.74565065245838,1099.8699253475415
1720,1920.000,10.699470447770182,1099.21602355223
1721,1921.000,19.217329643713583,1098.5619603562864
1722,1922.000,2.1978963355913947,1097.9077456644086
1723,1923.000,9.664673591527162,1097.253389408473
1724,1924.000,8.167624452445807,1096.5989015475543
1725,1925.000,12.781792932040162,1095.9442920679599
1726,1926.000,2.7027360167535335,1095.2895709832464
1727,1927.000,0.0,1094.6347483342506
1728,1928.000,18.202777810885664,1093.9798341891144
1729,1929.000,9.188437356690201,1093.3248386433097
1730,1930.000,10.533691180333108,1092.669771819667
1731,1931.000,31.95883113160312,1092.014643868397
1732,1932.000,10.413317032882787,1091.3594649671172
1733,1933.000,21.10258767911978,1090.7042453208803
1734,1934.000,12.737756837801044,1090.048995162199
1735,1935.000,0.0,1089.3937247510694
1736,1936.000,5.0853006250004,1088.7384443749995
1737,1937.000,12.784253650966093,1088.083164349034
1738,1938.000,11.251413984220562,1087.4278950157795
1739,1939.000,17.27472225457018,1086.7726467454297
1740,1940.000,11.550110064205683,1086.1174299357942
1741,1941.000,6.483657987677361,1085.4622550123227
1742,1942.000,4.252323571872694,1084.8071324281273
1743,1943.000,8.07172933598713,1084.1520726640128
1744,1944.000,14.87381377149768,1083.4970862285022
1745,1945.000,17.9386813421404,1082.8421836578596
1746,1946.000,25.610938483882137,1082.1873755161178
1747,1947.000,10.701408604896187,1081.5326723951039
1748,1948.000,8.458617085536389,1080.8780849144637
1749,1949.000,0.0,1080.2236237216912
1750,1950.000,0.9117595078498653,1079.56929949215
1751,1951.000,3.3951150708992373,1078.9151229291008
1752,1952.000,9.498146236271623,1078.2611047637283
1753,1953.000,19.532717244835112,1077.607255755165
1754,1954.000,13.221808309481503,1076.9535866905185
1755,1955.000,7.162130615103706,1076.3001083848962
1756,1956.000,17.50414531857018,1075.6468316814298
1757,1957.000,7.21099354869375,1074.9937674513062
1758,1958.000,7.541233406212996,1074.3409265937871
1759,1959.000,6.364550963762667,1073.6883200362374
1760,1960.000,6.9762682658465565,1073.0359587341534
1761,1961.000,13.603377328817032,1072.383853671183
1762,1962.000,4.189358140844433,1071.7320158591556
1763,1963.000,11.99334666189202,1071.080456338108
1764,1964.000,3.73094182369141,1070.4291861763086
1765,1965.000,3.980744529718777,1069.7782164702812
1766,1966.000,6.2128596551640385,1069.127558344836
1767,1967.000,5.163603046908975,1068.477222953091
1768,1968.000,13.322367523500816,1067.8272214764993
1769,1969.000,15.270076875124232,1067.1775651248759
1770,1970.000,6.778049863580463,1066.5282651364196
1771,1971.000,8.83042222225663,1065.8793327777435
1772,1972.000,1.7937406561018179,1065.2307793438981
1773,1973.000,6.2496758416018565,1064.5826161583982
1774,1974.000,7.048443426751419,1063.9348545732487
1775,1975.000,17.300612031034007,1063.287505968966
1776,1976.000,11.275686245387533,1062.6405817546124
1777,1977.000,7.538883632186526,1061.9940933678135
1778,1978.000,10.702632725209469,1061.3480522747905
1779,1979.000,16.82312902962235,1060.7024699703777
1780,1980.000,10.946315021940109,1060.0573579780598
1781,1981.000,15.512109150012975,1059.412727849987
1782,1982.000,9.412540832994864,1058.768591167005
1783,1983.000,14.44665946131613,1058.124959538684
1784,1984.000,10.613320396662175,1057.4818446033378
1785,1985.000,12.211878971946135,1056.8392580280538
1786,1986.000,4.4487044912807505,1056.1972115087192
1787,1987.000,21.289136229954693,1055.5557167700454
1788,1988.000,16.698917434407576,1054.9147855655924
1789,1989.000,6.061204322204048,1054.274429677796
1790,1990.000,6.695724082004062,1053.634660917996
1791,1991.000,4.1026138735435325,1052.9954911264565
1792,1992.000,3.6801748276047874,1052.3569321723953
1793,1993.000,8.1161240459885,1051.7189959540115
1794,1994.000,9.594372601495479,1051.0816943985046
1795,1995.000,0.0,1050.445039462109
1796,1996.000,12.631247869890103,1049.8090431301098
1797,1997.000,14.742637583120086,1049.17371741688
1798,1998.000,8.40251163410403,1048.5390743658959
1799,1999.000,7.643456950232803,1047.9051260497672
1800,2000.000,11.44407042973512,1047.2718845702648
