# kind,background_subtracted
# version_label,v7
# poly_order,7
# iterations_run,7
pixel_index,raman_shift_cm-1,intensity,background_intensity
0,200.000,15.814768747759388,257.1763872522406
1,201.000,16.83485845285253,258.04406354714746
2,202.000,23.072191436429705,258.9094755635703
3,203.000,28.68521716561588,259.7726548343841
4,204.000,10.722824305864492,260.6336326941355
5,205.000,10.107802720210543,261.49244027978943
6,206.000,18.652115468526176,262.3491085314738
7,207.000,9.297221806777713,263.2036681932223
8,208.000,7.0650421862844155,264.0561498137156
9,209.000,22.050674252979093,264.90658374702093
10,210.000,10.758224846670203,265.7550001533298
11,211.000,16.486218000306394,266.6014289996936
12,212.000,14.662772939241506,267.4459000607585
13,213.000,11.471200080502399,268.2884429194976
14,214.000,10.220548032058389,269.1290869679416
15,215.000,18.00437359209178,269.96786140790823
16,216.000,16.57052174827055,270.80479525172944
17,217.000,4.24253667702294,271.63991732297706
18,218.000,8.029995742813298,272.4732562571867
19,219.000,6.972723497420077,273.3048405025799
20,220.000,9.37568667921505,274.13469832078493
21,221.000,27.79584621244487,274.96285778755515
22,222.000,7.373437206513643,275.78934679348635
23,223.000,15.073727955267998,276.614193044732
24,224.000,4.097303936282856,277.4374240637171
25,225.000,15.695867810150162,278.2590671898498
26,226.000,0.0,279.07914958023196
27,227.000,5.725773789632399,279.8976982103676
28,228.000,5.3319971251303855,280.7147398748696
29,229.000,13.98997781183482,281.5303011881652
30,230.000,0.0,282.3444085851992
31,231.000,14.86592067786438,283.1570883221356
32,232.000,12.608195522941799,283.9683664770582
33,233.000,0.0,284.77826895066846
34,234.000,0.0,285.5868214669825
35,235.000,1.626115425974092,286.3940495740259
36,236.000,2.2478363554725433,287.19997864452745
37,237.000,17.70648612338971,288.0046338766103
38,238.000,21.383802705517837,288.80804029448217
39,239.000,12.905571250876164,289.61022274912386
40,240.000,24.592939081024497,290.4112059189755
41,241.000,4.135616689378253,291.21101431062175
42,242.000,12.398340740524986,292.009672259475
43,243.000,12.216072069542918,292.8072039304571
44,244.000,11.446948681320976,293.60363331867904
45,245.000,11.331396749880412,294.3989842501196
46,246.000,7.747022617698349,295.1932803823016
47,247.000,2.3751467950327196,295.9865452049673
48,248.000,9.596585959248955,296.77880204075103
49,249.000,11.182131954148304,297.5700740458517
50,250.000,13.563500789297962,298.360384210702
51,251.000,7.463800639362773,299.14975536063724
52,252.000,10.34617084343813,299.93821015656187
53,253.000,15.151501904385668,300.72577109561433
54,254.000,8.494447488169158,301.51246051183085
55,255.000,11.379174423193206,302.2983005768068
56,256.000,5.604870699642902,303.0833133003571
57,257.000,8.011117468825773,303.86752053117425
58,258.000,13.071815042514288,304.6509439574857
59,259.000,6.655791892291347,305.4336051077087
60,260.000,10.926104648896342,306.2155253511037
61,261.000,4.693344101573359,306.99672589842663
62,262.000,3.0771281974210183,307.777227802579
63,263.000,5.443439040743499,308.5570519592565
64,264.000,7.281355892403894,309.3362191075961
65,265.000,3.2279731691786537,310.1147498308213
66,266.000,9.185161443113714,310.8926645568863
67,267.000,4.491383440882487,311.6699835591175
68,268.000,12.305601043145316,312.44672695685466
69,269.000,13.409654283910527,313.22291471608946
70,270.000,1.5192843498971342,313.9985666501029
71,271.000,1.6958085798991647,314.77370242010085
72,272.000,6.6667494641515646,315.5483415358484
73,273.000,10.587157643697992,316.32250335630204
74,274.000,9.277246909759299,317.0962070902407
75,275.000,10.317142203105334,317.8694717968947
76,276.000,6.9236716134261655,318.64231638657384
77,277.000,4.674866378706952,319.41475962129306
78,278.000,0.0,320.1868201153971
79,279.000,9.794289663816926,320.9585163361831
80,280.000,19.64894239547789,321.7298666045221
81,281.000,9.008010904521427,322.50088909547856
82,282.000,6.250861161071612,323.2716018389284
83,283.000,7.592635279824492,324.0420227201755
84,284.000,5.364697519433491,324.8121694805665
85,285.000,4.452487281895742,325.58205971810423
86,286.000,3.5962061119407167,326.3517108880593
87,287.000,7.73521169641981,327.1211403035802
88,288.000,4.494979863697949,327.890365136302
89,289.000,0.0,328.659402416953
90,290.000,13.795029964039486,329.4282690359605
91,291.000,9.368663255945648,330.19698174405437
92,292.000,0.0,330.9655571528691
93,293.000,17.119457264454923,331.7340117355451
94,294.000,0.0,332.502361827327
95,295.000,9.12265137383838,333.27062362616164
96,296.000,0.0,334.0388131932942
97,297.000,12.234353546137982,334.806946453862
98,298.000,18.429268802512183,335.5750391974878
99,299.000,0.0,336.34310707887107
100,300.000,1.4326353816225037,337.11116561837747
101,301.000,16.499771797372887,337.8792302026271
102,302.000,11.036580914918773,338.64731608508123
103,303.000,0.24290461337278657,339.4154383866272
104,304.000,12.187969903837939,340.18361209616205
105,305.000,10.007052928825658,340.95185207117436
106,306.000,3.346624961675161,341.72017303832484
107,307.000,4.2711074059750445,342.488589594025
108,308.000,7.043513794985472,343.25711620501454
109,309.000,9.871908791062822,344.02576720893717
110,310.000,0.0,344.79455681491504
111,311.000,1.4910488958790324,345.563499104121
112,312.000,1.019545969649812,346.3326080303502
113,313.000,19.132084579410446,347.1018974205896
114,314.000,3.729532024414084,347.8713809755859
115,315.000,0.0,348.6410722704126
116,316.000,1.0164892449654985,349.4109847550345
117,317.000,0.0,350.1811317548716
118,318.000,0.0,350.9515264713611
119,319.000,5.297538017482395,351.7221819825176
120,320.000,10.853817756507397,352.4931112434926
121,321.000,0.3477239128686733,353.26432708713133
122,322.000,5.974692775470771,354.03584222452923
123,323.000,6.321953754413869,354.8076692455861
124,324.000,7.276698380440791,355.5798206195592
125,325.000,3.814006304385657,356.35230869561434
126,326.000,4.565890296623763,357.12514570337623
127,327.000,11.870343246523475,357.8983437534765
128,328.000,14.355991161899055,358.6719148381009
129,329.000,6.429596168465537,359.4458708315345
130,330.000,0.0,360.2202234907055
131,331.000,12.077395544272008,360.994984455728
132,332.000,3.0269387495573596,361.77016525044263
133,333.000,11.58606471704411,362.5457772829559
134,334.000,0.0,363.32183184617844
135,335.000,0.0,364.0983401183611
136,336.000,1.691597836370022,364.87531316363
137,337.000,0.5184640674797834,365.6527619325202
138,338.000,0.0,366.43069726250735
139,339.000,17.067827121461505,367.2091298785385
140,340.000,7.3162716064392725,367.98807039356075
141,341.000,4.564132690950828,368.76752930904917
142,342.000,10.625403984467368,369.5475170155326
143,343.000,15.989566206881534,370.32804379311847
144,344.000,11.748471187984308,371.1091198120157
145,345.000,11.080278866943672,371.8907551330563
146,346.000,4.236888291784112,372.6729597082159
147,347.000,19.666568618867814,373.4557433811322
148,348.000,4.929277112377747,374.23911588762223
149,349.000,0.0,375.02308685619823
150,350.000,7.1004421914181535,375.8076658085819
151,351.000,6.379357839782756,376.59286216021724
152,352.000,0.0,377.37868522078236
153,353.000,7.507805805301359,378.16514419469866
154,354.000,7.232036818359859,378.95224818164013
155,355.000,2.3143568229600646,379.74000617703996
156,356.000,7.83519492740362,380.5284270725964
157,357.000,7.5059613432234755,381.31751965677654
158,358.000,3.0759663846804983,382.1072926153195
159,359.000,7.518029468262455,382.8977545317375
160,360.000,11.002383112184305,383.6889138878157
161,361.000,0.0,384.48077906411044
162,362.000,9.906732659553484,385.2733583404465
163,363.000,3.586745103587532,386.0666598964125
164,364.000,0.5393391881449929,386.860691811855
165,365.000,5.1843069326288855,387.6554620673711
166,366.000,0.0,388.4509785447998
167,367.000,4.564143972288264,389.24724902771175
168,368.000,10.756909798102527,390.0442812018975
169,369.000,0.0,390.84208265585477
170,370.000,0.0,391.6406608812738
171,371.000,13.089725726478548,392.44002327352143
172,372.000,8.012828867876124,393.2401771321239
173,373.000,7.953464338751928,394.0411296612481
174,374.000,18.223220029818492,394.8428879701815
175,375.000,1.1166519261894337,395.64545907381057
176,376.000,2.666867106902032,396.448849893098
177,377.000,3.4193987444421623,397.2530672555578
178,378.000,5.528753104269526,398.05811789573045
179,379.000,5.01389254434514,398.86400845565487
180,380.000,4.556699514659499,399.6707454853405
181,381.000,1.2533945567632259,400.4783354432368
182,382.000,16.285096303297564,401.28678469670245
183,383.000,7.243470477527808,402.0960995224722
184,384.000,5.332042892877155,402.90628610712287
185,385.000,12.991059452462196,403.7173505475378
186,386.000,0.0,404.52929885136996
187,387.000,12.444795062496553,405.3421369375034
188,388.000,0.0,406.1558706365141
189,389.000,7.393886308871686,406.9705056911283
190,390.000,1.027322243319702,407.7860477566803
191,391.000,10.570213598431224,408.60250240156876
192,392.000,0.0,409.419875107711
193,393.000,9.157367729003,410.238171270997
194,394.000,3.4567137982589315,411.0573962017411
195,395.000,11.424786874867436,411.8775551251326
196,396.000,2.9731998183148676,412.69865318168513
197,397.000,0.9732795723151639,413.5206954276848
198,398.000,13.060843164363632,414.3436868356364
199,399.000,0.0,415.1676322947087
200,400.000,8.201121388821662,415.99253661117837
201,401.000,8.465540491127683,416.81840450887233
202,402.000,6.280133370390956,417.645240629609
203,403.000,10.853295466362056,418.47304953363795
204,404.000,5.9784742999218,419.3018357000782
205,405.000,7.491243472644555,420.1316035273554
206,406.000,10.537088666362251,420.9623573336377
207,407.000,8.612415642730298,421.7941013572697
208,408.000,8.29321524279436,422.62683975720563
209,409.000,11.764099386558826,423.46057661344116
210,410.000,0.0,424.2953159274434
211,411.000,0.6610603774198012,425.1310616225802
212,412.000,6.448234455452393,425.9678175445476
213,413.000,13.915149538203991,426.805587461796
214,414.000,3.11619593404464,427.6443750659554
215,415.000,6.563704027741039,428.48418397225896
216,416.000,12.409440280035028,429.325017719965
217,417.000,15.307645227221599,430.16687977277843
218,418.000,11.469157480729905,431.0097735192701
219,419.000,11.193632726704891,431.8537022732951
220,420.000,11.191553725590097,432.6986692744099
221,421.000,0.0,433.5446776882879
222,422.000,3.614318392866096,434.3917306071339
223,423.000,9.26191194990298,435.239831050097
224,424.000,0.0,436.0889819636824
225,425.000,0.0,436.93918622216177
226,426.000,0.0,437.7904466279825
227,427.000,13.456636087824961,438.64276591217504
228,428.000,0.0,439.4961467347601
229,429.000,12.085025314846973,440.350591685153
230,430.000,17.68803871743171,441.2061032825683
231,431.000,0.0,442.0626839764217
232,432.000,6.282826853268148,442.92033614673187
233,433.000,2.2975328954800034,443.77906210452
234,434.000,2.8812909077913105,444.6388640922087
235,435.000,2.778568715980782,445.49974428401924
236,436.000,0.0,446.3617047863679
237,437.000,8.883242361739576,447.2247476382604
238,438.000,1.7859201883142646,448.08887481168574
239,439.000,9.092034787991963,448.95408821200806
240,440.000,6.450022321641939,449.8203896783581
241,441.000,4.959136015977833,450.68778098402214
242,442.000,4.9479381631687716,451.55626383683125
243,443.000,5.527073120452485,452.42583987954754
244,444.000,5.123960309749464,453.29651069025056
245,445.000,11.151321217278394,454.1682777827216
246,446.000,9.401644393172944,455.04114260682707
247,447.000,9.850209451099545,455.91510654890044
248,448.000,10.00687406787705,456.790170932123
249,449.000,10.748274983096792,457.6663370169032
250,450.000,14.755643998744915,458.54360600125506
251,451.000,16.212452978824956,459.42197902117505
252,452.000,10.603449848982223,460.30145715101776
253,453.000,13.602329596129664,461.18204140387036
254,454.000,2.5002392680744947,462.0637327319255
255,455.000,6.052049973146211,462.9465320268538
256,456.000,12.279645879826262,463.83044012017376
257,457.000,2.4275342163782057,464.7154577836218
258,458.000,9.204894270479883,465.60158572952014
259,459.000,11.258379388856156,466.48882461114385
260,460.000,2.8570019769139776,467.377175023086
261,461.000,0.0,468.2666375016232
262,462.000,5.549930474922519,469.15721252507745
263,463.000,0.0,470.0489005141791
264,464.000,8.018944167573181,470.9417018324268
265,465.000,4.968911213552076,471.83561678644793
266,466.000,0.0,472.7306456263557
267,467.000,0.0,473.6267885461069
268,468.000,21.94287931614241,474.5240456838576
269,469.000,2.0502568776825,475.4224171223175
270,470.000,7.0290721108967205,476.3219028891033
271,471.000,11.03643904290908,477.2225029570909
272,472.000,9.832635755233696,478.1242172447663
273,473.000,9.232138383424967,479.02704561657504
274,474.000,6.615962116729236,479.93098788327075
275,475.000,10.671127197737462,480.83604380226257
276,476.000,5.88979892203912,481.74221307796086
277,477.000,9.586818637877684,482.6494953621223
278,478.000,13.866380745806737,483.55789025419324
279,479.000,7.849300698347918,484.46739730165206
280,480.000,5.581433999649391,485.3780160003506
281,481.000,0.0,486.28974579485396
282,482.000,3.990166921220691,487.2025860787793
283,483.000,7.166648804866725,488.1165361951333
284,484.000,9.317176563351325,489.0315954366487
285,485.000,0.231530953880565,489.94776304611946
286,486.000,6.999396783265354,490.86503821673466
287,487.000,1.1287979075886483,491.78342009241135
288,488.000,0.6082892318739823,492.702907768126
289,489.000,8.276675709754727,493.62350029024526
290,490.000,11.580452343145225,494.5451966568548
291,491.000,4.381231181912483,495.4679958180875
292,492.000,5.354455323549644,496.39189667645036
293,493.000,9.846755912849801,497.3168980871502
294,494.000,8.809612141582022,498.242998858418
295,495.000,23.853071248167794,499.17019775183223
296,496.000,14.746860517358641,500.0984934826414
297,497.000,0.0,501.02788472008433
298,498.000,22.984593912289483,501.9583700877105
299,499.000,3.3570418363013914,502.8899481636986
300,500.000,0.0,503.82261748117384
301,501.000,0.0,504.75637652852436
302,502.000,9.395412250283698,505.6912237497163
303,503.000,0.0,506.6271575446077
304,504.000,4.175650730738198,507.5641762692618
305,505.000,14.500753763741955,508.502278236258
306,506.000,0.8968782849972285,509.4414617150028
307,507.000,0.0,510.3817249320391
308,508.000,9.464267928645654,511.32306607135433
309,509.000,2.650247725312397,512.2654832746877
310,510.000,9.916860358164513,513.2089746418355
311,511.000,10.739477769043106,514.1535382309569
312,512.000,7.504609941123476,515.0991720588765
313,513.000,14.75389989861253,516.0458741013874
314,514.000,2.3212447064473736,516.9936422935526
315,515.000,0.0,517.9424745300048
316,516.000,1.2905963347543548,518.8923686652456
317,517.000,10.979270486056066,519.8433225139439
318,518.000,14.704087148768167,520.7953338512318
319,519.000,0.0,521.7484004130011
320,520.000,14.885954103802646,522.7025198961974
321,521.000,3.048185040886324,523.6576899591137
322,522.000,3.604322778317851,524.6139082216821
323,523.000,17.585235734233606,525.5711722657664
324,524.000,14.085824364549467,526.5294796354506
325,525.000,9.156834162671544,527.4888278373285
326,526.000,15.809267659208558,528.4492143407914
327,527.000,0.0,529.4106365783152
328,528.000,10.368531054254504,530.3730919457455
329,529.000,10.614212197417828,531.3365778025822
330,530.000,12.03336452773749,532.3010914722626
331,531.000,4.477684757555608,533.2666302424444
332,532.000,13.67367463471362,534.2331913652864
333,533.000,1.3337789422716924,535.2007720577283
334,534.000,1.9138134982299562,536.16936950177
335,535.000,18.634818155250287,537.1389808447498
336,536.000,6.845460800380124,538.1096031996199
337,537.000,0.8761033547764328,539.0812336452236
338,538.000,1.6864477734310412,540.053869226569
339,539.000,16.596094044897427,541.0275069551026
340,540.000,18.06223919101808,542.0021438089819
341,541.000,13.974802266653569,542.9777767333464
342,542.000,6.249202359411925,543.9544026405881
343,543.000,8.554351589379507,544.9320184106205
344,544.000,9.27351010885377,545.9106208911462
345,545.000,5.049398102074747,546.8902068979253
346,546.000,10.283774784960315,547.8707732150397
347,547.000,4.89469140484141,548.8523165951586
348,548.000,12.83541724019733,549.8348337598027
349,549.000,10.50761960039415,550.8183213996058
350,550.000,3.876916825422768,551.8027761745773
351,551.000,0.8653022856373127,552.7881947143627
352,552.000,12.569185381497391,553.7745736185026
353,553.000,20.353821543308754,554.7619094566912
354,554.000,5.551464230965394,555.7501987690346
355,555.000,18.58142393369485,556.7394380663052
356,556.000,24.018953169800966,557.729623830199
357,557.000,2.1267794864116922,558.7207525135883
358,558.000,2.420739459224251,559.7128205407757
359,559.000,12.43542869225439,560.7058243077456
360,560.000,9.929774817584416,561.6997601824156
361,561.000,0.0,562.6946245048864
362,562.000,14.851763412309424,563.6904135876906
363,563.000,10.054337283959171,564.6871237160408
364,564.000,13.792640851923807,565.6847511480762
365,565.000,11.63456888489145,566.6832921151085
366,566.000,0.0,567.6827428218669
367,567.000,10.07787655325842,568.6830994467416
368,568.000,14.671448857973587,569.6843581420264
369,569.000,0.37319196583951,570.6865150341605
370,570.000,4.009664776030604,571.6895662239695
371,571.000,12.079966213095872,572.6935077869041
372,572.000,4.1303432267202425,573.6983357732797
373,573.000,5.588413791486687,574.7040462085133
374,574.000,9.50026190663948,575.7106350933606
375,575.000,16.023953595849548,576.7180984041504
376,576.000,4.814578906979705,577.7264320930203
377,577.000,16.667974911849797,578.7356320881502
378,578.000,6.172583706006776,579.7456942939932
379,579.000,4.3884084084907045,580.7566145915093
380,580.000,13.93651616160605,581.768388838394
381,581.000,7.666598130691682,582.7810128693084
382,582.000,2.6812585038917405,583.7944824961082
383,583.000,9.764919491929959,584.80879350807
384,584.000,0.0,585.8239416721187
385,585.000,2.4235902669473717,586.8399227330526
386,586.000,11.021529586232873,587.8567324137671
387,587.000,6.515035584520774,588.8743664154792
388,588.000,12.786016582050024,589.89282041795
389,589.000,21.51004792029528,590.9120900797047
390,590.000,1.5586209617455324,591.9321710382545
391,591.000,5.438711089684489,592.9530589103155
392,592.000,0.5634547079729373,593.974749292027
393,593.000,4.6674012408303724,594.9972377591696
394,594.000,16.659712132619347,596.0205198673807
395,595.000,8.197612847629102,597.0445911523709
396,596.000,5.565012869861221,598.0694471301388
397,597.000,9.331528702817195,599.0950832971828
398,598.000,19.853533869284092,600.1214951307159
399,599.000,12.734111911124273,601.1486780888757
400,600.000,14.12895538906389,602.1766276109361
401,601.000,11.019981882483762,603.2053391175162
402,602.000,23.070495989210485,604.2348080107895
403,603.000,17.190676325308687,605.2650296746913
404,604.000,15.399479524874323,606.2959994751257
405,605.000,36.52418523982885,607.3277127601712
406,606.000,16.13572313971406,608.360164860286
407,607.000,22.22485391148848,609.3933510885115
408,608.000,31.932918259325106,610.4272667406749
409,609.000,38.4197019044077,611.4619070955923
410,610.000,33.19711458473137,612.4972674152687
411,611.000,49.83968605490202,613.533342945098
412,612.000,56.276918085936586,614.5701289140634
413,613.000,63.408429465065865,615.6076205349341
414,614.000,66.17177899553644,616.6458130044635
415,615.000,88.57439049641494,617.6847015035851
416,616.000,97.65577680239198,618.724281197608
417,617.000,134.2969637635889,619.7645472364111
418,618.000,152.3999182453631,620.8054947546369
419,619.000,179.5628341281157,621.8471188718843
420,620.000,180.90316630710117,622.8894146928989
421,621.000,170.06469669223463,623.9323773077654
422,622.000,144.85194820790355,624.9760017920964
423,623.000,121.42952079277859,626.0202832072214
424,624.000,103.9630173996253,627.0652166003747
425,625.000,91.38353299511766,628.1107970048823
426,626.000,67.81934755965176,629.1570194403482
427,627.000,54.68249208716054,630.2038789128395
428,628.000,45.69720758492963,631.2513704150704
429,629.000,51.0810050734143,632.2994889265857
430,630.000,38.4225385860567,633.3482294139433
431,631.000,29.651175169104704,634.3975868308953
432,632.000,34.40322488143079,635.4475561185692
433,633.000,20.724103794353027,636.4981322056469
434,634.000,10.736177991456088,637.5493100085439
435,635.000,25.194148568412857,638.6010844315872
436,636.000,23.992193632808153,639.6534503671918
437,637.000,8.32321930396256,640.7064026960375
438,638.000,15.246972712757042,641.7599362872429
439,639.000,6.464672001458666,642.8140459985414
440,640.000,11.691158323547029,643.868726676453
441,641.000,5.151387843542466,644.9239731564576
442,642.000,15.038457736833948,645.979780263166
443,643.000,11.137892189508193,647.0361428104918
444,644.000,20.107870398180467,648.0930556018195
445,645.000,18.926874569824918,649.1505134301751
446,646.000,11.02979492160705,650.2085110783929
447,647.000,8.99871668071637,651.2670433192836
448,648.000,17.472908084199958,652.3261049158
449,649.000,10.023730378797495,653.3856906212025
450,650.000,8.781952820775928,654.4457951792241
451,651.000,4.081438675766435,655.5064133242336
452,652.000,9.130737218601098,656.5675397813989
453,653.000,0.1562497331524355,657.6291692668476
454,654.000,12.667066512169413,658.6912964878306
455,655.000,8.109995857120566,659.7539161428795
456,656.000,11.858630078032093,660.8170229219679
457,657.000,3.3895744933308833,661.8806115066691
458,658.000,7.558463429685958,662.9446765703141
459,659.000,9.829098221852178,664.0092127781478
460,660.000,6.580072212514665,665.0742147874853
461,661.000,5.626822752132739,666.1396772478672
462,662.000,17.818631198786534,667.2055948012135
463,663.000,5.708964918023298,668.2719620819767
464,664.000,0.0,669.338773717295
465,665.000,1.8134306728562706,670.4060243271438
466,666.000,2.2114344755144657,671.4737085244856
467,667.000,7.785496084578654,672.5418209154213
468,668.000,3.4491659006607733,673.6103560993392
469,669.000,10.368292330937834,674.6793086690622
470,670.000,14.050385789003712,675.7486732109963
471,671.000,10.53354269472311,676.8184443052769
472,672.000,11.410009474085086,677.8886165259149
473,673.000,1.26681855905872,678.9591844409413
474,674.000,6.344928387448704,680.0301426125513
475,675.000,2.6266584027513318,681.1014855972487
476,676.000,12.707477054013339,682.1732079459866
477,677.000,6.884322795689286,683.2453042043107
478,678.000,5.083411087500394,684.3177689124996
479,679.000,16.120072394295676,685.3905966057043
480,680.000,3.0374121859116485,686.4637818140884
481,681.000,0.0,687.5373190629662
482,682.000,1.274681127060262,688.6112028729398
483,683.000,3.953241239963404,689.6854277600366
484,684.000,0.0,690.7599882358452
485,685.000,6.416308192349902,691.83487880765
486,686.000,4.470104021433599,692.9100939785664
487,687.000,0.0,693.9856282476735
488,688.000,3.5220498898521555,695.0614761101479
489,689.000,13.77463694260507,696.137632057395
490,690.000,4.021075422819536,697.2140905771805
491,691.000,21.08655584623932,698.2908461537606
492,692.000,0.9739927319886874,699.3678932680114
493,693.000,11.523281602441443,700.4452263975586
494,694.000,1.9649109830955922,701.5228400169044
495,695.000,0.0,702.600728597556
496,696.000,17.79998739184964,703.6788866081504
497,697.000,3.873767485417943,704.7573085145821
498,698.000,14.651625219874063,705.835988780126
499,699.000,12.174817134436807,706.9149218655632
500,700.000,3.078208770696733,707.9941022293033
501,701.000,0.0,709.0735243275071
502,702.000,8.778119385790887,710.1531826142091
503,703.000,4.248423458562456,711.2330715414375
504,704.000,13.856231440664374,712.3131855593356
505,705.000,6.935959883720216,713.3935191162798
506,706.000,5.206602340999893,714.4740666590001
507,707.000,0.0,715.5548226326966
508,708.000,1.4199885188426151,716.6357814811574
509,709.000,9.598788353124746,717.7169376468753
510,710.000,4.841025428837497,718.7982855711625
511,711.000,0.9704383057334098,719.8798196942666
512,712.000,6.17617654451567,720.9615344554843
513,713.000,18.55704170672516,722.0434242932748
514,714.000,0.0,723.1254836453727
515,715.000,0.0,724.2077069488992
516,716.000,6.812643359525055,725.2900886404749
517,717.000,9.55213784367163,726.3726231563284
518,718.000,6.967485067592634,727.4553049324073
519,719.000,0.26410759551367846,728.5381284044863
520,720.000,5.93493499172348,729.6210880082765
521,721.000,15.640289820468183,730.7041781795318
522,722.000,5.843017645844043,731.7873933541559
523,723.000,6.866805031690774,732.8707279683092
524,724.000,3.9413505414873953,733.9541764585126
525,725.000,9.422114738246023,735.0377332617539
526,726.000,0.0,736.1213928155898
527,727.000,10.348577441749399,737.2051495582506
528,728.000,0.0,738.2889979287411
529,729.000,4.138689633056288,739.3729323669437
530,730.000,15.812067686281125,740.4569473137188
531,731.000,15.41402678899533,741.5410372110047
532,732.000,11.1698884980824,742.6251965019176
533,733.000,3.3263853691501026,743.7094196308499
534,734.000,14.007736956430563,744.7937010435694
535,735.000,1.7712228126848686,745.8780351873152
536,736.000,9.470388489104039,746.962416510896
537,737.000,13.161739535215247,748.0468394647847
538,738.000,0.10466549878560727,749.1312985012144
539,739.000,4.97905392572693,750.2157880742731
540,740.000,5.2529583600029355,751.3003026399971
541,741.000,0.0,752.3848366564648
542,742.000,7.884955416111438,753.4693845838885
543,743.000,0.0,754.5539408847072
544,744.000,8.858878976323581,755.6385000236764
545,745.000,11.344986532040025,756.72305646796
546,746.000,13.649439312781169,757.8076046872188
547,747.000,6.459245846299837,758.8921391537002
548,748.000,0.0,759.9766543423269
549,749.000,5.553886269216605,761.0611447307834
550,750.000,6.003461200395577,762.1456047996044
551,751.000,3.821757967739586,763.2300290322604
552,752.000,10.257591084756541,764.3144119152435
553,753.000,12.664192061847643,765.3987479381524
554,754.000,4.162322406223211,766.4830315937768
555,755.000,0.0,767.5672573781809
556,756.000,10.060171209213195,768.6514197907868
557,757.000,11.070463665543912,769.7355133344561
558,758.000,0.5785624844276072,770.8195325155724
559,759.000,5.614585155878558,771.9034718441214
560,760.000,0.0,772.9873258337727
561,761.000,0.0,774.0710890019575
562,762.000,3.614523130050543,775.1547558699494
563,763.000,3.6285040370585193,776.2383209629414
564,764.000,23.035928189874994,777.321778810125
565,765.000,0.0,778.405123944766
566,766.000,2.782198095717945,779.488350904282
567,767.000,10.628331769682973,780.571454230317
568,768.000,11.679426531182116,781.6544284688179
569,769.000,3.4786528298916437,782.7372681701083
570,770.000,8.551691111038508,783.8199678889615
571,771.000,7.981530815323936,784.9025221846761
572,772.000,23.33828937885437,785.9849256211456
573,773.000,12.126807233066984,787.067172766933
574,774.000,8.824040804659717,788.1492581953403
575,775.000,6.2286665155197625,789.2311764844802
576,776.000,7.111010782653921,790.3129222173461
577,777.000,7.936477018119717,791.3944899818803
578,778.000,5.526652628954935,792.475874371045
579,779.000,13.567382017111072,793.557069982889
580,780.000,7.517166579385275,794.6380714206148
581,781.000,18.623535707352858,795.7188732926471
582,782.000,26.955316787301626,796.7994702126983
583,783.000,27.600231200165922,797.8798567998341
584,784.000,16.801163321461104,798.960027678539
585,785.000,36.32872152121945,800.0399774787805
586,786.000,39.16768516392699,801.119700836073
587,787.000,48.8723246084586,802.1991923915414
588,788.000,45.855608208016406,803.2784467919836
589,789.000,50.79677931006745,804.3574586899325
590,790.000,57.03812225628212,805.4362227437178
591,791.000,79.31720538247419,806.5147336175258
592,792.000,76.33944801853795,807.592985981462
593,793.000,83.9270034883923,808.6709745116077
594,794.000,102.89374310991798,809.748693890082
595,795.000,92.01939219490191,810.8261388050981
596,796.000,85.82424404897677,811.9033039510232
597,797.000,92.27075397156636,812.9801840284337
598,798.000,75.91091025582682,814.0567737441731
599,799.000,75.5196881885903,815.1330678114097
600,800.000,61.184618050311656,816.2090609496884
601,801.000,50.160957115011,817.284747884989
602,802.000,37.967663650220175,818.3601233497798
603,803.000,24.20046491692949,819.4351820830705
604,804.000,35.22894216953364,820.5099188304664
605,805.000,33.58504465577869,821.5843283442213
606,806.000,23.000243616711828,822.6584053832881
607,807.000,27.559071286626818,823.7321447133731
608,808.000,18.981368893016224,824.8055411069838
609,809.000,18.021745656518192,825.8785893434818
610,810.000,12.855461790867935,826.951284209132
611,811.000,21.075341502849028,828.023620497151
612,812.000,7.100391992242976,829.095593007757
613,813.000,0.0,830.1671965482177
614,814.000,17.184679067102252,831.2384259328977
615,815.000,14.025797016693787,832.3092759833062
616,816.000,0.0,833.3797415281425
617,817.000,4.972047596656807,834.4498174033432
618,818.000,5.101163547873512,835.5194984521265
619,819.000,9.581740474961293,836.5887795250387
620,820.000,3.866810520003469,837.6576554799965
621,821.000,15.760310817667573,838.7261211823325
622,822.000,1.9275454951621214,839.7941715048379
623,823.000,7.763127672194287,840.8618013278057
624,824.000,0.0,841.9290055390717
625,825.000,9.258956965942275,842.9957790340577
626,826.000,3.3738132841883726,844.0621167158116
627,827.000,9.418582504951814,845.1280134950482
628,828.000,0.0,846.193464290191
629,829.000,0.0,847.2584640274084
630,830.000,2.28579535934432,848.3230076406556
631,831.000,6.700024928287121,849.3870900717129
632,832.000,4.916369729778353,850.4507062702216
633,833.000,8.026695806275484,851.5138511937245
634,834.000,8.43813519229991,852.5765198077
635,835.000,2.6983549143988057,853.6387070856011
636,836.000,7.4695069911105065,854.7004080088894
637,837.000,2.4025514329279076,855.7616175670721
638,838.000,0.0,856.8223307577358
639,839.000,13.834058413418575,857.8825425865814
640,840.000,0.0,858.9422480674584
641,841.000,8.551233777602306,860.0014422223977
642,842.000,3.3998209183552035,861.0601200816448
643,843.000,0.0,862.1182766836927
644,844.000,5.592764924687117,863.1759070753129
645,845.000,0.0,864.2330063115883
646,846.000,8.881342544057702,865.2895694559423
647,847.000,0.0,866.3455915801711
648,848.000,2.0516802355277832,867.4010677644723
649,849.000,0.0,868.4559930974756
650,850.000,0.0,869.5103626762703
651,851.000,13.359427393563806,870.5641716064362
652,852.000,14.406440997931327,871.6174150020687
653,853.000,0.0,872.6700879858089
654,854.000,0.240926311130238,873.7221856888698
655,855.000,5.288208748937791,874.7737032510622
656,856.000,1.5429261791775843,875.8246358208224
657,857.000,0.03359344476359638,876.8749785552365
658,858.000,8.156966379933579,877.9247266200664
659,859.000,3.486585810225847,878.9738751897742
660,860.000,0.0,880.0224194475468
661,861.000,0.0,881.0703545853197
662,862.000,4.602296196199632,882.1176758038004
663,863.000,0.0,883.1643783124907
664,864.000,13.435479670289624,884.2104573297104
665,865.000,0.0,885.2559080826184
666,866.000,2.1733051927664064,886.3007258072336
667,867.000,0.0,887.3449057484582
668,868.000,0.0,888.3884431600964
669,869.000,12.829256695124855,889.4313333048751
670,870.000,6.110816545535954,890.473571454464
671,871.000,7.228816110504681,891.5151528894953
672,872.000,0.0,892.5560728995812
673,873.000,1.8007022166661955,893.5963267833338
674,874.000,11.689304151617876,894.6359098483821
675,875.000,0.9557085886096957,895.6748174113903
676,876.000,3.472517201925257,896.7130447980747
677,877.000,1.1630986567794253,897.7505873432206
678,878.000,6.192081609302477,898.7874403906975
679,879.000,10.811835706523198,899.8235992934768
680,880.000,13.061493586354345,900.8590594136457
681,881.000,1.8416268775766866,901.8938161224233
682,882.000,0.8169751998258334,902.9278648001741
683,883.000,5.39753816357711,903.9612008364229
684,884.000,0.0,904.9938196298693
685,885.000,0.0,906.0257165883985
686,886.000,0.0,907.0568871290974
687,887.000,0.0,908.087326678265
688,888.000,4.126387328574992,909.117030671425
689,889.000,0.0,910.1459945533385
690,890.000,7.193677221986604,911.1742137780134
691,891.000,8.655643191283616,912.2016838087164
692,892.000,0.0,913.2284001179845
693,893.000,0.0,914.2543581876328
694,894.000,0.0,915.2795535087663
695,895.000,0.0,916.3039815817879
696,896.000,3.7192060835924394,917.3276379164075
697,897.000,0.0,918.3505180316519
698,898.000,0.0,919.3726174558703
699,899.000,0.0,920.3939317267449
700,900.000,0.0,921.4144563912954
701,901.000,0.0,922.4341870058893
702,902.000,9.457802863754978,923.453119136245
703,903.000,3.695710642559561,924.4712483574405
704,904.000,0.0,925.4885702539186
705,905.000,5.658635580508644,926.5050804194914
706,906.000,0.0,927.5207744573464
707,907.000,0.0,928.5356479800517
708,908.000,5.540996390441023,929.549696609559
709,909.000,0.0,930.5629159772077
710,910.000,10.401908276270547,931.5753017237295
711,911.000,4.392435500748434,932.5868494992516
712,912.000,0.0,933.5975549632981
713,913.000,0.0,934.6074137847945
714,914.000,0.0,935.6164216420677
715,915.000,3.317840777149513,936.6245742228505
716,916.000,3.136730775719684,937.6318672242803
717,917.000,0.0,938.638296352902
718,918.000,0.49175667533199885,939.643857324668
719,919.000,0.0,940.6485458649388
720,920.000,0.0,941.6523577084836
721,921.000,11.260650400521058,942.6552885994789
722,922.000,0.0,943.657334291508
723,923.000,0.0,944.6584905475617
724,924.000,5.0190038599653235,945.6587531400347
725,925.000,0.0,946.6581178507253
726,926.000,0.0,947.6565804708332
727,927.000,13.422855199042715,948.6541368009573
728,928.000,0.0,949.6507826510918
729,929.000,0.0,950.6465138406257
730,930.000,9.35262880166249,951.6413261983375
731,931.000,4.1036164376082525,952.6352155623917
732,932.000,0.0,953.628177780336
733,933.000,5.792450290904526,954.6202087090954
734,934.000,0.508234785030254,955.6113042149698
735,935.000,0.0,956.6014601736266
736,936.000,6.243657529902748,957.5906724700973
737,937.000,6.9970480012289045,958.578936998771
738,938.000,1.5946863366101525,959.5662496633898
739,939.000,5.421942622959705,960.5526063770403
740,940.000,15.159730937850327,961.5380030621496
741,941.000,4.52889234952238,962.5224356504776
742,942.000,3.0764609168916195,963.5059000831084
743,943.000,0.5960666895531403,964.4883923104469
744,944.000,5.8040557077937365,965.4699082922062
745,945.000,0.0,966.4504439974028
746,946.000,0.0,967.429995404348
747,947.000,0.0,968.4085585006386
748,948.000,6.695469716852472,969.3861292831475
749,949.000,0.0,970.3627037580169
750,950.000,3.197454059353845,971.3382779406462
751,951.000,2.261194144316619,972.3128478556833
752,952.000,0.0,973.2864095370157
753,953.000,8.32607597224171,974.2589590277582
754,954.000,15.381684619756015,975.230492380244
755,955.000,0.0,976.2010056560133
756,956.000,0.7117540741986659,977.1704949258013
757,957.000,6.179119730471712,978.1389562695283
758,958.000,2.092576223713195,979.1063857762869
759,959.000,15.65280545566884,980.0727795443312
760,960.000,6.019434318937215,981.0381336810627
761,961.000,8.93856069697938,982.0024443030206
762,962.000,9.435561464133798,982.9657075358662
763,963.000,13.825510485628001,983.927919514372
764,964.000,4.59343761759385,984.8890763824062
765,965.000,11.35203870707744,985.8491742929226
766,966.000,7.455971592056812,986.8082094079432
767,967.000,14.178907101452978,987.766177898547
768,968.000,16.67222105514668,988.7230759448533
769,969.000,15.233580263990234,989.6788997360097
770,970.000,12.042209529824959,990.633645470175
771,971.000,15.54854064549454,991.5873093545055
772,972.000,22.388035394860253,992.5398876051397
773,973.000,4.585888552818005,993.491376447182
774,974.000,14.934815885312446,994.4417721146875
775,975.000,14.381542149353777,995.3910708506462
776,976.000,5.029696093033522,996.3392689069665
777,977.000,13.692535455541815,997.2863625444581
778,978.000,13.774031967182964,998.2323480328171
779,979.000,20.12371634939359,999.1772216506064
780,980.000,24.108888314758815,1000.1209796852411
781,981.000,15.291285567030286,1001.0636184329697
782,982.000,23.02216980114258,1002.0051341988574
783,983.000,23.1344477032344,1002.9455232967655
784,984.000,32.4424389506612,1003.8847820493388
785,985.000,31.44538021201822,1004.8229067879819
786,986.000,39.35419614715727,1005.7598938528428
787,987.000,41.85688840720502,1006.6957395927949
788,988.000,57.3958236345826,1007.6304403654175
789,989.000,68.93553646302416,1008.5639925369758
790,990.000,68.94726951759674,1009.4963924824032
791,991.000,87.66368241472003,1010.4276365852801
792,992.000,95.93458376218462,1011.3577212378153
793,993.000,124.12118115917474,1012.2866428408252
794,994.000,152.76220119628488,1013.2143978037152
795,995.000,194.8080264555441,1014.1409825444558
796,996.000,271.305646510433,1015.066393489567
797,997.000,363.21437092590634,1015.9906270740936
798,998.000,501.92142425841394,1016.9136797415861
799,999.000,694.8900720559216,1017.8355479440784
800,1000.000,897.3162028579327,1018.7562281420674
801,1001.000,1000.0170721955081,1019.6757168044918
802,1002.000,895.0098685912913,1020.5940104087088
803,1003.000,706.1528635595265,1021.5111054404734
804,1004.000,506.5838786060833,1022.4269983939166
805,1005.000,363.7952192284778,1023.3416857715223
806,1006.000,277.94262291589575,1024.2551640841043
807,1007.000,210.50559114921361,1025.1674298507864
808,1008.000,157.41436840102392,1026.0784795989762
809,1009.000,138.98239413565602,1026.988309864344
810,1010.000,108.33931380919944,1027.8969171908007
811,1011.000,96.33865686953004,1028.80429813047
812,1012.000,88.48316275632806,1029.710449243672
813,1013.000,78.06454590110707,1030.6153670988929
814,1014.000,53.927908727235035,1031.519048272765
815,1015.000,57.33194064995837,1032.4214893500416
816,1016.000,69.68052607642744,1033.3226869235725
817,1017.000,53.480245405718506,1034.2226375942814
818,1018.000,57.21622302886203,1035.121337971138
819,1019.000,65.9319573288617,1036.0187846711383
820,1020.000,60.98803468072447,1036.9149743192756
821,1021.000,67.44064845148205,1037.809903548518
822,1022.000,74.50352700021813,1038.703568999782
823,1023.000,90.18309467809195,1039.5959673219081
824,1024.000,106.56316082836383,1040.4870951716362
825,1025.000,118.37262678642196,1041.376949213578
826,1026.000,150.87000387980652,1042.2655261201935
827,1027.000,187.87825242823624,1043.1528225717639
828,1028.000,240.70796874363373,1044.0388352563664
829,1029.000,326.19755813015104,1044.9235608698489
830,1030.000,389.0610258841989,1045.8069961158012
831,1031.000,428.9235752944667,1046.6891377055333
832,1032.000,393.4364476419578,1047.5699823580421
833,1033.000,325.6178982000065,1048.4495267999935
834,1034.000,246.1561922343119,1049.3277677656881
835,1035.000,195.12189300296131,1050.2047019970387
836,1036.000,140.7060357564576,1051.0803262435425
837,1037.000,110.79604673774611,1051.954637262254
838,1038.000,83.06812018224355,1052.8276318177564
839,1039.000,72.86446331786215,1053.6993066821378
840,1040.000,70.51453836503947,1054.5696586349604
841,1041.000,48.32207453676415,1055.4386844632359
842,1042.000,47.32505203860683,1056.3063809613932
843,1043.000,39.487250068742924,1057.172744931257
844,1044.000,31.130543817982698,1058.0377731820172
845,1045.000,25.903219469802025,1058.901462530198
846,1046.000,29.14627120036448,1059.7638097996355
847,1047.000,16.82955417855419,1060.6248118214457
848,1048.000,9.31773956600182,1061.4844654339981
849,1049.000,28.18278851711466,1062.3427674828854
850,1050.000,19.616131179102013,1063.199714820898
851,1051.000,26.600778692005633,1064.0553043079944
852,1052.000,14.341959188730698,1064.9095328112694
853,1053.000,13.024263795067327,1065.7623972049328
854,1054.000,16.923406629727424,1066.6138943702726
855,1055.000,15.795695804367824,1067.464021195632
856,1056.000,16.90191242362266,1068.3127745763773
857,1057.000,8.726295585128355,1069.1601514148717
858,1058.000,8.203145379557554,1070.0061486204424
859,1059.000,4.159768890644273,1070.8507631093557
860,1060.000,9.619259195215818,1071.6939918047842
861,1061.000,13.565356363219053,1072.535831636781
862,1062.000,5.846929457753731,1073.3762795422463
863,1063.000,0.21786653509730058,1074.2153324649028
864,1064.000,21.890548644738146,1075.0529873552618
865,1065.000,3.3496648294039915,1075.889241170596
866,1066.000,16.301297125089604,1076.7240908749104
867,1067.000,10.507032561088636,1077.5575334389114
868,1068.000,0.0,1078.389565839977
869,1069.000,3.7303229378730975,1079.2201850621268
870,1070.000,14.162163904004274,1080.0493880959957
871,1071.000,17.45060406120183,1080.8771719387983
872,1072.000,3.526367405696419,1081.7035335943035
873,1073.000,0.0,1082.5284700728034
874,1074.000,6.5667716089180885,1083.351978391082
875,1075.000,8.869720427614538,1084.1740555723854
876,1076.000,5.734198353605279,1084.9946986463947
877,1077.000,0.0,1085.8139046491904
878,1078.000,0.5780573767713122,1086.6316706232287
879,1079.000,13.465163382694072,1087.4479936173059
880,1080.000,2.3002163134692637,1088.2628706865307
881,1081.000,4.216714107706139,1089.0762988922938
882,1082.000,2.6775226977629245,1089.8882753022372
883,1083.000,0.0,1090.6987969902225
884,1084.000,12.336545963694789,1091.5078610363053
885,1085.000,2.8584094733009806,1092.315464526699
886,1086.000,9.476779446252067,1093.1216045537478
887,1087.000,0.5557467841065318,1093.9262782158935
888,1088.000,5.428621382348865,1094.7294826176512
889,1089.000,4.215957130429388,1095.5312148695707
890,1090.000,13.863466911788464,1096.3314720882115
891,1091.000,1.8448316038893608,1097.1302513961107
892,1092.000,13.317190078246313,1097.9275499217538
893,1093.000,1.1108502004597085,1098.7233647995404
894,1094.000,8.125302830241708,1099.5176931697583
895,1095.000,0.9852338214493557,1100.3105321785506
896,1096.000,7.410709022114361,1101.1018789778857
897,1097.000,4.912697274473885,1101.891730725526
898,1098.000,3.743909415001781,1102.6800845849982
899,1099.000,13.494149274436722,1103.4669377255632
900,1100.000,12.024498677815018,1104.2522873221849
901,1101.000,6.943448444499836,1105.0361305555002
902,1102.000,0.0,1105.818464611786
903,1103.000,4.0618593170652275,1106.5992866829347
904,1104.000,0.0,1107.3785939664162
905,1105.000,6.2589893347460475,1108.156383665254
906,1106.000,0.0,1108.9326529879886
907,1107.000,8.278998851344795,1109.7073991486552
908,1108.000,11.32423063325632,1110.4806193667437
909,1109.000,5.276978132823388,1111.2523108671767
910,1110.000,0.0,1112.0224708802732
911,1111.000,8.160908358278448,1112.7910966417217
912,1112.000,10.978916607450401,1113.5581853925496
913,1113.000,13.1040046209082,1114.3237343790918
914,1114.000,5.767283147041326,1115.0877408529586
915,1115.000,10.57017292898854,1115.8502020710114
916,1116.000,0.0,1116.611115295329
917,1117.000,9.427795206827113,1117.370477793173
918,1118.000,0.0,1118.1282868369653
919,1119.000,11.031906295743966,1118.884539704256
920,1120.000,12.293973322309284,1119.6392336776908
921,1121.000,0.0,1120.3923660449823
922,1122.000,9.747453901119343,1121.1439340988807
923,1123.000,11.867302862856377,1121.8939351371437
924,1124.000,19.278051537492274,1122.6423664625077
925,1125.000,22.14990361734567,1123.3892253826543
926,1126.000,4.957090789813265,1124.1345092101867
927,1127.000,17.695707737405428,1124.8782152625945
928,1128.000,0.3440581377737999,1125.6203408622262
929,1129.000,0.0,1126.36088333626
930,1130.000,3.986871983323681,1127.0998400166764
931,1131.000,10.31752075977738,1127.8372082402227
932,1132.000,16.160542651608694,1128.5729853483913
933,1133.000,9.919152312616234,1129.3071686873839
934,1134.000,13.160100391913375,1130.0397556080866
935,1135.000,10.859890533961334,1130.7707434660388
936,1136.000,19.539013378595428,1131.5001296214045
937,1137.000,7.571748561053255,1132.2279114389466
938,1138.000,21.19812771201032,1132.9540862879896
939,1139.000,19.570409457600363,1133.6786515423996
940,1140.000,22.46764841944696,1134.401604580553
941,1141.000,18.297237214694178,1135.122942785306
942,1142.000,31.674748456035104,1135.8426635439648
943,1143.000,25.157742751735896,1136.5607642482641
944,1144.000,17.76690870566881,1137.2772422943312
945,1145.000,26.509382917339053,1137.9920950826609
946,1146.000,41.71111298191158,1138.7053200180885
947,1147.000,44.81625649024045,1139.4169145097596
948,1148.000,53.24521802889626,1140.1268759711038
949,1149.000,65.4480551801962,1140.8352018198038
950,1150.000,79.83035952222781,1141.5418894777722
951,1151.000,91.2735616288794,1142.2469363711207
952,1152.000,109.18223806986566,1142.9503399301343
953,1153.000,123.35705841076106,1143.652097589239
954,1154.000,130.48714621301656,1144.3522067869835
955,1155.000,138.3549920339965,1145.0506649660035
956,1156.000,137.22541642699957,1145.7474695730004
957,1157.000,122.93416394129213,1146.442618058708
958,1158.000,116.04264412212547,1147.1361078778746
959,1159.000,80.76516051077283,1147.827936489227
960,1160.000,74.90692564455026,1148.5181013554497
961,1161.000,69.9222450568443,1149.2065999431557
962,1162.000,52.828012277136395,1149.8934297228636
963,1163.000,49.34819683103433,1150.5785881689658
964,1164.000,43.32386124029313,1151.2620727597068
965,1165.000,33.19493902284353,1151.9438809771564
966,1166.000,36.27601869281625,1152.6240103071837
967,1167.000,35.4479547605722,1153.3024582394278
968,1168.000,17.149465732720955,1153.979222267279
969,1169.000,30.829331112150612,1154.6542998878494
970,1170.000,48.952055398054654,1155.3276886019453
971,1171.000,36.72188608595138,1155.9993859140486
972,1172.000,27.092529667716462,1156.6693893322836
973,1173.000,25.992360631599013,1157.3376963684009
974,1174.000,51.56070146225534,1158.0043045377447
975,1175.000,37.95984364076617,1158.669211359234
976,1176.000,47.04207064466641,1159.3324143553336
977,1177.000,46.997113947963726,1159.9939110520363
978,1178.000,64.07005602116897,1160.653698978831
979,1179.000,86.18414333131614,1161.3117756686838
980,1180.000,92.84518634198866,1161.9681386580114
981,1181.000,104.34022751333555,1162.6227854866645
982,1182.000,120.42322130210778,1163.2757136978921
983,1183.000,136.32170316167276,1163.9269208383273
984,1184.000,124.19235854203544,1164.5764044579646
985,1185.000,102.27394988986885,1165.2241621101311
986,1186.000,84.5474806485322,1165.8701913514678
987,1187.000,66.69397525809268,1166.5144897419073
988,1188.000,68.44644715535196,1167.157054844648
989,1189.000,49.80851577386352,1167.7978842261364
990,1190.000,33.507921543959355,1168.4369754560407
991,1191.000,32.05410089276711,1169.074326107233
992,1192.000,26.453266244236602,1169.7099337557634
993,1193.000,23.037496019158198,1170.3437959808418
994,1194.000,28.12798863518333,1170.9759103648166
995,1195.000,8.089653506848663,1171.6062744931514
996,1196.000,16.494348045597917,1172.234885954402
997,1197.000,12.79647065979475,1172.8617423402052
998,1198.000,15.53049875475267,1173.4868412452474
999,1199.000,13.29010473275116,1174.1101802672488
1000,1200.000,17.067675993053626,1174.7317570069463
1001,1201.000,14.179486931935116,1175.351569068065
1002,1202.000,12.217723942688053,1175.969614057312
1003,1203.000,11.357354415661575,1176.5858895843385
1004,1204.000,18.313047738259684,1177.2003932617404
1005,1205.000,10.969488294975463,1177.8131227050246
1006,1206.000,16.816373467402855,1178.424075532597
1007,1207.000,3.380986634261717,1179.0332493657384
1008,1208.000,0.9460621714063109,1179.6406418285937
1009,1209.000,4.447098451851389,1180.2462505481485
1010,1210.000,10.80112584578842,1180.8500731542115
1011,1211.000,14.209252720605491,1181.4521072793946
1012,1212.000,0.0,1182.0523505591045
1013,1213.000,0.0,1182.650800631513
1014,1214.000,10.934034862452108,1183.2474551375478
1015,1215.000,6.576174279125098,1183.842311720875
1016,1216.000,0.0,1184.4353680278773
1017,1217.000,1.9989462923563224,1185.0266217076437
1018,1218.000,10.135978588048374,1185.6160704119516
1019,1219.000,3.397724204749011,1186.203711795251
1020,1220.000,0.6875154853578351,1186.7895435146422
1021,1221.000,0.0,1187.3735632298701
1022,1222.000,0.0,1187.9557686033077
1023,1223.000,0.0,1188.536157299932
1024,1224.000,7.848384012681208,1189.1147269873188
1025,1225.000,0.0,1189.6914753356264
1026,1226.000,8.77431298242368,1190.2664000175764
1027,1227.000,0.0,1190.8394987084462
1028,1228.000,3.8197219139485696,1191.4107690860515
1029,1229.000,0.0,1191.980208830732
1030,1230.000,11.923515374658791,1192.5478156253412
1031,1231.000,5.572051844768566,1193.1135871552315
1032,1232.000,15.207922891756652,1193.6775211082434
1033,1233.000,6.126299825310298,1194.2396151746898
1034,1234.000,4.258661952652801,1194.799867047347
1035,1235.000,0.5411995785595991,1195.3582744214405
1036,1236.000,1.2190400053627855,1195.9148349946372
1037,1237.000,0.0,1196.4695464670256
1038,1238.000,10.410473458882961,1197.022406541117
1039,1239.000,11.650763078175714,1197.5734129218242
1040,1240.000,4.7763876835435894,1198.1225633164563
1041,1241.000,0.0,1198.6698554347054
1042,1242.000,9.421235011360068,1199.21528698864
1043,1243.000,17.075703307305957,1199.758855692694
1044,1244.000,13.173969736345043,1200.300559263655
1045,1245.000,2.6854005793420583,1200.8403954206578
1046,1246.000,0.7783941148234135,1201.3783618851767
1047,1247.000,0.0,1201.9144563810123
1048,1248.000,1.9116373657088843,1202.4486766342911
1049,1249.000,7.214178626556304,1202.9810203734437
1050,1250.000,9.265924670782624,1203.5114853292173
1051,1251.000,4.923656765350643,1204.0400692346493
1052,1252.000,4.805056174928268,1204.5667698250718
1053,1253.000,11.855425161902076,1205.091584838098
1054,1254.000,3.827883986377401,1205.6145120136225
1055,1255.000,0.0,1206.1355490938108
1056,1256.000,0.0,1206.6546938230933
1057,1257.000,5.335673051837375,1207.1719439481626
1058,1258.000,2.969922782033109,1207.687297217967
1059,1259.000,0.0,1208.200751383699
1060,1260.000,0.0,1208.71230419881
1061,1261.000,0.0,1209.2219534189812
1062,1262.000,0.0,1209.7296968021365
1063,1263.000,7.707336891566683,1210.2355321084333
1064,1264.000,12.092256899738913,1210.739457100261
1065,1265.000,0.0,1211.2414695422376
1066,1266.000,9.166986798796415,1211.7415672012037
1067,1267.000,11.77384615377332,1212.2397478462267
1068,1268.000,0.0,1212.7360092485942
1069,1269.000,0.0,1213.2303491818102
1070,1270.000,12.218520578394646,1213.7227654216053
1071,1271.000,0.0,1214.2132557459172
1072,1272.000,0.7699840650905116,1214.7018179349095
1073,1273.000,0.0,1215.188449770957
1074,1274.000,0.0,1215.6731490386574
1075,1275.000,8.737352475182888,1216.1559135248172
1076,1276.000,0.3151769815310672,1216.636741018469
1077,1277.000,0.0,1217.1156293108593
1078,1278.000,7.510937804539935,1217.59257619546
1079,1279.000,5.356353532039748,1218.0675794679603
1080,1280.000,0.0,1218.5406369262814
1081,1281.000,2.0418256294353796,1219.0117463705647
1082,1282.000,2.2205373968131425,1219.4809056031868
1083,1283.000,0.0,1219.9481124287577
1084,1284.000,0.0,1220.413364654122
1085,1285.000,0.0,1220.8766600883655
1086,1286.000,14.357185457171681,1221.3379965428283
1087,1287.000,0.23952016891212224,1221.797371831088
1088,1288.000,0.8066632310096793,1222.2547837689904
1089,1289.000,0.0,1222.7102301746327
1090,1290.000,0.0,1223.1637088683856
1091,1291.000,0.0,1223.615217672891
1092,1292.000,17.38660158693051,1224.0647544130695
1093,1293.000,1.2495150838651625,1224.5123169161348
1094,1294.000,0.0,1224.9579030115851
1095,1295.000,0.0,1225.401510531232
1096,1296.000,3.9900356908099184,1225.84313730919
1097,1297.000,0.0,1226.2827811818954
1098,1298.000,10.971879011885221,1226.7204399881148
1099,1299.000,5.514755431054937,1227.156111568945
1100,1300.000,11.864131232159934,1227.58979376784
1101,1301.000,0.38695556939546805,1228.0214844306045
1102,1302.000,0.0,1228.4511814054135
1103,1303.000,8.390010457180779,1228.8788825428192
1104,1304.000,0.0,1229.3045856957683
1105,1305.000,10.035409280393424,1229.7282887196066
1106,1306.000,0.0,1230.1499894720935
1107,1307.000,0.04902618658775282,1230.5696858134122
1108,1308.000,0.0,1230.9873756061977
1109,1309.000,0.0,1231.4030567155248
1110,1310.000,0.0,1231.8167270089448
1111,1311.000,3.167461643517072,1232.2283843564828
1112,1312.000,0.0,1232.6380266306674
1113,1313.000,0.0,1233.0456517065318
1114,1314.000,0.0,1233.4512574616424
1115,1315.000,4.591279223898255,1233.8548417761017
1116,1316.000,8.561213467425432,1234.2564025325746
1117,1317.000,9.131766383699642,1234.6559376163004
1118,1318.000,0.0,1235.0534449151164
1119,1319.000,2.1473876805398504,1235.44892231946
1120,1320.000,0.0,1235.8423677224096
1121,1321.000,1.2792439803188245,1236.2337790196812
1122,1322.000,8.759607890339566,1236.6231541096604
1123,1323.000,1.4380021065799156,1237.0104908934202
1124,1324.000,0.0,1237.395787274737
1125,1325.000,5.840795839887733,1237.7790411601122
1126,1326.000,5.311663541201597,1238.1602504587984
1127,1327.000,7.658205917189662,1238.5394130828104
1128,1328.000,0.0,1238.916526946954
1129,1329.000,3.223718031156295,1239.2915899688437
1130,1330.000,12.97271493106382,1239.6646000689361
1131,1331.000,4.867215829463021,1240.035555170537
1132,1332.000,13.504816800164917,1240.4044531998352
1133,1333.000,0.0,1240.7712920859249
1134,1334.000,0.0,1241.136069760826
1135,1335.000,9.595435840485152,1241.4987841595148
1136,1336.000,0.0,1241.8594332199473
1137,1337.000,1.3892171169202356,1242.2180148830798
1138,1338.000,0.0,1242.574527092902
1139,1339.000,9.183986203536051,1242.928967796464
1140,1340.000,0.0,1243.2813349438964
1141,1341.000,3.9994235115570973,1243.6316264884429
1142,1342.000,0.0,1243.9798403864893
1143,1343.000,0.0,1244.3259745975895
1144,1344.000,5.563972915501836,1244.670027084498
1145,1345.000,17.105269186804662,1245.0119958131954
1146,1346.000,9.336893247079843,1245.3518787529201
1147,1347.000,1.6688091238015659,1245.6896738761984
1148,1348.000,5.704055841120635,1246.0253791588793
1149,1349.000,8.326086419841431,1246.3589925801587
1150,1350.000,3.6967598773771897,1246.6905121226227
1151,1351.000,0.0,1247.0199357722631
1152,1352.000,14.641370481467447,1247.3472615185326
1153,1353.000,16.34410164564747,1247.6724873543526
1154,1354.000,0.0,1247.9956112761733
1155,1355.000,8.253276716010987,1248.316631283989
1156,1356.000,8.235261618618551,1248.6355453813815
1157,1357.000,8.237853424447394,1248.9523515755527
1158,1358.000,7.856652122633932,1249.2670478773662
1159,1359.000,0.0,1249.5796323013742
1160,1360.000,7.354473134134196,1249.8901028658659
1161,1361.000,6.2771054071072285,1250.1984575928927
1162,1362.000,0.0,1250.5046945083216
1163,1363.000,0.0,1250.8088116418555
1164,1364.000,11.711607972911224,1251.1108070270889
1165,1365.000,0.0,1251.410678701539
1166,1366.000,0.0,1251.7084247066864
1167,1367.000,0.0,1252.004043088016
1168,1368.000,1.9045921049355456,1252.2975318950644
1169,1369.000,0.0,1252.5888891814507
1170,1370.000,0.0,1252.8781130049276
1171,1371.000,0.0,1253.16520142742
1172,1372.000,5.52926848492757,1253.4501525150724
1173,1373.000,16.43250566171082,1253.732964338289
1174,1374.000,7.86385802822565,1254.0136349717743
1175,1375.000,6.44212050540591,1254.292162494594
1176,1376.000,6.859229009802448,1254.5685449901976
1177,1377.000,1.912268453517072,1254.842780546483
1178,1378.000,8.40516274416359,1255.1148672558363
1179,1379.000,0.0,1255.3848032151827
1180,1380.000,6.516968473978977,1255.652586526021
1181,1381.000,2.666650705508573,1255.9182152944913
1182,1382.000,11.558759368586152,1256.1816876314138
1183,1383.000,0.0,1256.443001652331
1184,1384.000,3.807500522426153,1256.7021554775738
1185,1385.000,12.242344767699478,1256.9591472323004
1186,1386.000,0.7376849534466601,1257.2139750465533
1187,1387.000,0.0,1257.4666370553023
1188,1388.000,1.327329601490419,1257.7171313985095
1189,1389.000,7.538564778829368,1257.9654562211706
1190,1390.000,14.980730326621142,1258.211609673379
1191,1391.000,0.0,1258.4555899103693
1192,1392.000,0.0,1258.6973950925767
1193,1393.000,4.888413614310821,1258.9370233856891
1194,1394.000,0.0,1259.1744729607162
1195,1395.000,10.616876005976565,1259.4097419940235
1196,1396.000,0.6162003325937349,1259.6428286674063
1197,1397.000,0.0,1259.8737311681384
1198,1398.000,0.47616831095933776,1260.1024476890407
1199,1399.000,2.114537571481833,1260.3289764285182
1200,1400.000,2.6794374093476563,1260.5533155906523
1201,1401.000,2.144569614775719,1260.7754633852244
1202,1402.000,1.860566972197148,1260.9954180278028
1203,1403.000,6.456145260205631,1261.2131777397944
1204,1404.000,0.0,1261.4287407484999
1205,1405.000,0.0,1261.6421052871892
1206,1406.000,9.205178404839444,1261.8532695951606
1207,1407.000,8.125895082212992,1262.062231917787
1208,1408.000,11.705634493392836,1262.2689905066072
1209,1409.000,4.279967380630069,1262.4735436193698
1210,1410.000,6.854664479891198,1262.6758895201087
1211,1411.000,11.625042520794068,1262.8760264792058
1212,1412.000,6.284696226538699,1263.0739527734613
1213,1413.000,13.481005313851256,1263.2696666861486
1214,1414.000,11.936000492902167,1263.4631665070979
1215,1415.000,0.0,1263.6544505327538
1216,1416.000,19.057983933750847,1263.8435170662492
1217,1417.000,3.8634795825275887,1264.0303644174724
1218,1418.000,13.120261096864624,1264.2149909031355
1219,1419.000,16.685512153144828,1264.3973948468551
1220,1420.000,12.270393420793198,1264.5775745792068
1221,1421.000,3.08800256218683,1264.7555284378132
1222,1422.000,11.276842232586887,1264.931254767413
1223,1423.000,16.18968308007811,1265.104751919922
1224,1424.000,14.981033745476225,1265.2760182545237
1225,1425.000,14.289739862265606,1265.4450521377344
1226,1426.000,24.004273056515558,1265.6118519434845
1227,1427.000,16.80112194681601,1265.776416053184
1228,1428.000,26.030168144189247,1265.9387428558107
1229,1429.000,27.657558252015633,1266.0988307479843
1230,1430.000,30.58682686596285,1266.2566781340372
1231,1431.000,27.04464157389657,1266.4122834261034
1232,1432.000,25.47324195581018,1266.5656450441898
1233,1433.000,28.15578158374592,1266.716761416254
1234,1434.000,26.76000502169859,1266.8656309783014
1235,1435.000,31.686435825556146,1267.0122521744438
1236,1436.000,32.96858754300274,1267.1566234569973
1237,1437.000,36.512098713447585,1267.2987432865525
1238,1438.000,52.08514586792717,1267.4386101320729
1239,1439.000,68.89290652903128,1267.5762224709688
1240,1440.000,70.52877321082337,1267.7115787891767
1241,1441.000,81.81459541874915,1267.8446775812508
1242,1442.000,98.08211764953762,1267.9755173504623
1243,1443.000,112.38687439114551,1268.1040966088544
1244,1444.000,124.3321151226387,1268.2304138773613
1245,1445.000,137.74011031413374,1268.3544676858662
1246,1446.000,168.93429842667,1268.47625657333
1247,1447.000,173.38117291217395,1268.595779087826
1248,1448.000,203.52172121331182,1268.7130337866881
1249,1449.000,212.4433647634478,1268.828019236552
1250,1450.000,221.2632229865137,1268.9407340134862
1251,1451.000,204.38946229695694,1269.051176703043
1252,1452.000,192.8626110996056,1269.1593459003943
1253,1453.000,183.54195578961003,1269.26524021039
1254,1454.000,166.59881275232624,1269.3688582476739
1255,1455.000,145.15347636322917,1269.4701986367709
1256,1456.000,133.3231559878252,1269.5692600121747
1257,1457.000,114.11566398154423,1269.6660410184559
1258,1458.000,92.261746689642,1269.760540310358
1259,1459.000,79.21852644711657,1269.8527565528834
1260,1460.000,69.20875157859177,1269.9426884214083
1261,1461.000,66.10192039823869,1270.0303346017613
1262,1462.000,49.142390209651694,1270.1156937903484
1263,1463.000,46.301351305772414,1270.1987646942275
1264,1464.000,29.14102196877616,1270.2795460312238
1265,1465.000,43.413190469961364,1270.3580365300386
1266,1466.000,40.92035006967353,1270.4342349303265
1267,1467.000,26.84837801716867,1270.5081399828314
1268,1468.000,16.929331550538336,1270.5797504494617
1269,1469.000,26.665369896588572,1270.6490651034114
1270,1470.000,35.82269427073652,1270.7160827292635
1271,1471.000,20.091846876914133,1270.7808021230858
1272,1472.000,16.35614590744649,1270.8432220925536
1273,1473.000,25.406670542953634,1270.9033414570463
1274,1474.000,7.750210952236557,1270.9611590477634
1275,1475.000,21.55002929218108,1271.0166737078189
1276,1476.000,22.996300707627825,1271.069884292372
1277,1477.000,21.109174331278155,1271.120789668722
1278,1478.000,4.406752283570768,1271.1693887164292
1279,1479.000,7.618477672589279,1271.2156803274106
1280,1480.000,15.338491593923436,1271.2596634060765
1281,1481.000,12.896367130571434,1271.3013368694285
1282,1482.000,18.079286352823146,1271.340699647177
1283,1483.000,7.471193318147243,1271.3777506818528
1284,1484.000,10.687820071060514,1271.4124889289394
1285,1485.000,14.28495564304626,1271.4449133569537
1286,1486.000,4.595794052381507,1271.4750229476185
1287,1487.000,12.586086304081164,1271.502816695919
1288,1488.000,1.7435363897309344,1271.528293610269
1289,1489.000,11.278764287398417,1271.5514527126015
1290,1490.000,14.626780961482382,1271.5722930385177
1291,1491.000,8.819188362635941,1271.5908136373641
1292,1492.000,7.358815427588752,1271.6070135724112
1293,1493.000,0.0,1271.620891920922
1294,1494.000,4.377063225687152,1271.6324477743128
1295,1495.000,2.4140167617370025,1271.641680238263
1296,1496.000,9.423065567166077,1271.648588432834
1297,1497.000,0.0,1271.6531714926136
1298,1498.000,0.0,1271.6554285668228
1299,1499.000,1.5109091805434218,1271.6553588194565
1300,1500.000,0.0,1271.652961429406
1301,1501.000,6.090160409413329,1271.6482355905866
1302,1502.000,0.0,1271.6411805120738
1303,1503.000,0.0,1271.6317954182236
1304,1504.000,2.5171084511828212,1271.620079548817
1305,1505.000,9.361006840815207,1271.606032159185
1306,1506.000,8.438132479663636,1271.5896525203364
1307,1507.000,0.431306080905415,1271.5709399190946
1308,1508.000,4.199670341752608,1271.5498936582474
1309,1509.000,4.07081294334921,1271.5265130566509
1310,1510.000,11.80363655059341,1271.5007974494065
1311,1511.000,0.0,1271.4727461879536
1312,1512.000,6.633021359760505,1271.4423586402395
1313,1513.000,1.6324048091501027,1271.4096341908498
1314,1514.000,0.0,1271.3745722411359
1315,1515.000,11.008842790622111,1271.337172209378
1316,1516.000,6.570746469099049,1271.297433530901
1317,1517.000,0.0,1271.2553556582357
1318,1518.000,9.953057938752181,1271.2109380612478
1319,1519.000,6.23726777270349,1271.1641802272966
1320,1520.000,5.304998338640644,1271.1150816613595
1321,1521.000,2.1366421138029636,1271.063641886197
1322,1522.000,3.170647557515622,1271.0098604424843
1323,1523.000,9.353350111034842,1270.953736888965
1324,1524.000,8.690367197405067,1270.895270802595
1325,1525.000,8.208551221298876,1270.834461778701
1326,1526.000,11.137949568885688,1270.7713094311143
1327,1527.000,17.005823607672255,1270.7058133923279
1328,1528.000,0.0,1270.6379733136469
1329,1529.000,1.6106281346480955,1270.567788865352
1330,1530.000,21.746408263167496,1270.4952597368324
1331,1531.000,0.0,1270.4203856367494
1332,1532.000,5.623730706808146,1270.3431662931919
1333,1533.000,0.0,1270.2636014538293
1334,1534.000,0.0,1270.1816908860678
1335,1535.000,0.0,1270.0974343772107
1336,1536.000,0.0,1270.0108317346017
1337,1537.000,0.0,1269.9218827858047
1338,1538.000,9.081936621245404,1269.8305873787547
1339,1539.000,7.635121618088078,1269.736945381912
1340,1540.000,2.2125493155681397,1269.6409566844318
1341,1541.000,6.061976803686321,1269.5426211963136
1342,1542.000,0.0,1269.4419388485812
1343,1543.000,1.3519874065577824,1269.3389095934422
1344,1544.000,0.0,1269.233533404437
1345,1545.000,11.538846723369033,1269.125810276631
1346,1546.000,6.291421773244565,1269.0157402267555
1347,1547.000,16.790115706614188,1268.9033232933857
1348,1548.000,7.277271462874069,1268.7885595371258
1349,1549.000,7.971142959267581,1268.6714490407323
1350,1550.000,0.0,1268.5519919093372
1351,1551.000,2.4667427294093613,1268.4301882705906
1352,1552.000,9.830643725171058,1268.306038274829
1353,1553.000,0.0,1268.1795420952599
1354,1554.000,19.636745071868972,1268.050699928131
1355,1555.000,10.319923007091802,1267.9195119929082
1356,1556.000,5.543266467560898,1267.785978532439
1357,1557.000,5.13563918685486,1267.650099813145
1358,1558.000,15.306744874812466,1267.5118761251874
1359,1559.000,20.5860162173517,1267.3713077826483
1360,1560.000,15.490482876283295,1267.2283951237166
1361,1561.000,18.016289489147766,1267.0831385108522
1362,1562.000,17.863079669025865,1266.9355383309742
1363,1563.000,15.076770004338641,1266.7855949956613
1364,1564.000,18.52709805870586,1266.6333089412942
1365,1565.000,17.903167370719984,1266.47868062928
1366,1566.000,19.547414453790907,1266.321710546209
1367,1567.000,30.905497795947667,1266.1623992040522
1368,1568.000,19.31495485965047,1266.0007471403496
1369,1569.000,35.558447081616805,1265.8367549183831
1370,1570.000,22.92924087261281,1265.6704231273873
1371,1571.000,36.46146261728995,1265.50175238271
1372,1572.000,52.61919967397398,1265.330743326026
1373,1573.000,44.634346374471534,1265.1573966255285
1374,1574.000,54.89597602391041,1264.9817129760895
1375,1575.000,61.19476790050817,1264.8036930994917
1376,1576.000,90.72026025539503,1264.623337744605
1377,1577.000,100.69749531242746,1264.4406476875724
1378,1578.000,103.17961726798444,1264.2556237320155
1379,1579.000,138.7382182907495,1264.0682667092506
1380,1580.000,156.75716752157268,1263.8785774784274
1381,1581.000,192.75437107320295,1263.686556926797
1382,1582.000,217.12963603012918,1263.4922059698708
1383,1583.000,223.85080144837184,1263.295525551628
1384,1584.000,217.7040033552912,1263.0965166447088
1385,1585.000,212.97498074935334,1262.8951802506467
1386,1586.000,168.61515559996747,1262.6915174000326
1387,1587.000,164.64162784725204,1262.4855291527479
1388,1588.000,136.31621340184756,1262.2772165981523
1389,1589.000,125.98446314469766,1262.0665808553024
1390,1590.000,139.11053392685653,1261.8536230731434
1391,1591.000,121.2861325692661,1261.638344430734
1392,1592.000,127.44582286254968,1261.4207461374504
1393,1593.000,140.4333545668119,1261.2008294331881
1394,1594.000,161.2657164114337,1260.9785955885663
1395,1595.000,171.03522609482275,1260.7540459051772
1396,1596.000,216.64078428425046,1260.5271817157495
1397,1597.000,260.21488861560897,1260.298004384391
1398,1598.000,307.1629036931929,1260.066515306807
1399,1599.000,414.3870540895007,1259.8327159104992
1400,1600.000,503.96994134501415,1259.5966076549857
1401,1601.000,591.6866799679697,1259.3581920320303
1402,1602.000,630.9848184341554,1259.1174705658445
1403,1603.000,596.0688691866701,1258.87444481333
1404,1604.000,497.6070756357228,1258.6291163642773
1405,1605.000,404.6795851584061,1258.3814868415939
1406,1606.000,311.9692360984734,1258.1315579015265
1407,1607.000,255.83404976611018,1257.8793312338898
1408,1608.000,202.31080643770292,1257.6248085622972
1409,1609.000,161.13571735564165,1257.3679916443584
1410,1610.000,124.88082972806296,1257.108882271937
1411,1611.000,99.97811772863292,1256.847482271367
1412,1612.000,85.68562349633521,1256.5837935036648
1413,1613.000,86.15200913519675,1256.3178178648031
1414,1614.000,65.35701771412596,1256.049557285874
1415,1615.000,46.170578266604934,1255.779013733395
1416,1616.000,46.36095279051892,1255.5061892094811
1417,1617.000,44.01430224788032,1255.2310857521197
1418,1618.000,44.171450564620955,1254.953705435379
1419,1619.000,36.51079663035034,1254.6740503696496
1420,1620.000,29.376044298099487,1254.3921227019005
1421,1621.000,38.66237538411292,1254.107924615887
1422,1622.000,27.780413667596576,1253.8214583324034
1423,1623.000,23.745585890460006,1253.53272610954
1424,1624.000,19.02655175712016,1253.2417302428798
1425,1625.000,19.845165934195848,1252.9484730658041
1426,1626.000,12.554846050342121,1252.652956949658
1427,1627.000,7.003719695936979,1252.355184304063
1428,1628.000,23.617389422873885,1252.055157577126
1429,1629.000,20.658875744305533,1251.7528792556946
1430,1630.000,15.141114134401505,1251.4483518655984
1431,1631.000,13.193959028089921,1251.14157797191
1432,1632.000,15.280405820822807,1250.832560179177
1433,1633.000,23.10116786831304,1250.5213011316869
1434,1634.000,0.0,1250.2078035137056
1435,1635.000,5.064929950260648,1249.8920700497395
1436,1636.000,7.5478894952011615,1249.5741035047988
1437,1637.000,17.74696031539156,1249.2539066846084
1438,1638.000,7.677237564072357,1248.9314824359276
1439,1639.000,2.8831393532557286,1248.6068336467442
1440,1640.000,0.7555747534183865,1248.2799632465817
1441,1641.000,7.88219479327995,1247.95087420672
1442,1642.000,0.0,1247.6195695404872
1443,1643.000,0.0,1247.286052303497
1444,1644.000,0.0,1246.950325593904
1445,1645.000,14.940485447294122,1246.6123925527058
1446,1646.000,13.793268636024095,1246.2722563639759
1447,1647.000,5.8254257448786575,1245.9299202551213
1448,1648.000,12.118653502831648,1245.5853874971683
1449,1649.000,7.737602594967029,1245.2386614050329
1450,1650.000,2.495997662225818,1244.8897453377742
1451,1651.000,5.268933301145353,1244.5386426988546
1452,1652.000,6.749541063552897,1244.185356936447
1453,1653.000,14.009165456323672,1243.8298915436762
1454,1654.000,0.0,1243.4722500588878
1455,1655.000,1.3427009340518907,1243.112436065948
1456,1656.000,2.9285938055070346,1242.750453194493
1457,1657.000,8.746512879769625,1242.3863051202304
1458,1658.000,9.37024743481129,1242.0199955651888
1459,1659.000,3.4835667019997345,1241.6515282980004
1460,1660.000,0.21052386579276572,1241.2809071342072
1461,1661.000,0.0,1240.9081359365161
1462,1662.000,0.0,1240.53321861507
1463,1663.000,0.0,1240.15615912778
1464,1664.000,0.0,1239.7769614805402
1465,1665.000,4.6036762724349956,1239.395629727565
1466,1666.000,5.829815028346275,1239.0121679716538
1467,1667.000,9.62791563550445,1238.6265803644956
1468,1668.000,18.30488789309129,1238.2388711069086
1469,1669.000,5.168458550804644,1237.8490444491954
1470,1670.000,2.960532308607526,1237.4571046913925
1471,1671.000,7.227513816420242,1237.0630561835796
1472,1672.000,1.4076176738683444,1236.6669033261317
1473,1673.000,0.0,1236.2686505700726
1474,1674.000,0.8660415826661847,1235.8683024173338
1475,1675.000,6.376906578939952,1235.46586342106
1476,1676.000,0.0,1235.0613381859018
1477,1677.000,0.0,1234.6547313683118
1478,1678.000,0.0,1234.246047676853
1479,1679.000,0.0,1233.835291872485
1480,1680.000,5.868608231112148,1233.422468768888
1481,1681.000,0.0,1233.007583232756
1482,1682.000,1.486765815927356,1232.5906401840728
1483,1683.000,8.556616403558337,1232.1716445964416
1484,1684.000,0.0,1231.750601497435
1485,1685.000,1.3226990311948157,1231.327515968805
1486,1686.000,7.064342853131848,1230.9023931468682
1487,1687.000,0.49337377721417397,1230.4752382227857
1488,1688.000,0.0,1230.0460564428809
1489,1689.000,0.8128188910511653,1229.6148531089489
1490,1690.000,0.0,1229.1816335785766
1491,1691.000,2.0136457345568033,1228.7464032654432
1492,1692.000,0.0,1228.3091676396323
1493,1693.000,6.656781772020622,1227.8699322279795
1494,1694.000,2.4025563856371264,1227.428702614363
1495,1695.000,8.28329255997346,1226.9854844400265
1496,1696.000,2.413116596102782,1226.5402834038973
1497,1697.000,0.0,1226.093105262928
1498,1698.000,3.8299121676295727,1225.6439558323705
1499,1699.000,0.0,1225.1928409861766
1500,1700.000,7.370370342769547,1224.7397666572303
1501,1701.000,0.0,1224.2847388377563
1502,1702.000,2.6794514204063944,1223.8277635795937
1503,1703.000,3.324677005442709,1223.3688469945573
1504,1704.000,9.122304745262227,1222.9079952547377
1505,1705.000,0.0,1222.4452145928526
1506,1706.000,4.1593226974409845,1221.980511302559
1507,1707.000,8.974114261162413,1221.5138917388376
1508,1708.000,5.871921681751701,1221.0453623182484
1509,1709.000,0.6065344806763733,1220.5749295193236
1510,1710.000,1.4930041171246557,1220.1025998828754
1511,1711.000,9.426113987623694,1219.6283800123763
1512,1712.000,13.223614425776077,1219.1522765742238
1513,1713.000,4.100810701834234,1218.6742962981657
1514,1714.000,3.539533022439173,1218.194445977561
1515,1715.000,2.0564735301882138,1217.7127324698117
1516,1716.000,1.030370303406471,1217.2291626965934
1517,1717.000,7.281633355690019,1216.74374364431
1518,1718.000,4.663702635621576,1216.2564823643784
1519,1719.000,0.0,1215.767385973587
1520,1720.000,4.271123345548176,1215.2764616544519
1521,1721.000,0.0,1214.7837166555723
1522,1722.000,2.9126827080567637,1214.2891582919433
1523,1723.000,2.672479054625228,1213.7927939453748
1524,1724.000,12.080294935223264,1213.2946310647767
1525,1725.000,2.0060118334365598,1212.7946771665634
1526,1726.000,8.023090165029771,1212.2929398349702
1527,1727.000,0.0,1211.7894267224601
1528,1728.000,4.712013449979395,1211.2841455500206
1529,1729.000,1.0236278924107864,1210.7771041075891
1530,1730.000,0.0,1210.2683102543458
1531,1731.000,5.0188330808605315,1209.7577719191395
1532,1732.000,4.182094899197182,1209.2454971008028
1533,1733.000,0.0,1208.7314938685531
1534,1734.000,0.0,1208.2157703623184
1535,1735.000,15.858682206847561,1207.6983347931525
1536,1736.000,0.0,1207.1791954435573
1537,1737.000,10.099982332111267,1206.6583606678887
1538,1738.000,9.391731107295072,1206.135838892705
1539,1739.000,0.0,1205.611638617152
1540,1740.000,0.0,1205.0857684133116
1541,1741.000,4.070555073377363,1204.5582369266226
1542,1742.000,0.0,1204.0290528762098
1543,1743.000,2.4475979447120153,1203.498225055288
1544,1744.000,7.647605668472579,1202.9657623315275
1545,1745.000,0.26115935254301803,1202.431673647457
1546,1746.000,0.0,1201.8959680207995
1547,1747.000,0.0,1201.3586545449098
1548,1748.000,0.0,1200.819742389101
1549,1749.000,8.084225200909486,1200.2792407990905
1550,1750.000,3.489692902675415,1199.7371590973246
1551,1751.000,4.461118316585043,1199.1935066834149
1552,1752.000,10.220949965499813,1198.6482930345003
1553,1753.000,5.185414294357315,1198.1015277056426
1554,1754.000,2.0844916697817553,1197.5532203302182
1555,1755.000,6.359316379682014,1197.003380620318
1556,1756.000,7.300009632880119,1196.45201836712
1557,1757.000,12.200138558679328,1195.8991434413206
1558,1758.000,10.028266206517628,1195.3447657934823
1559,1759.000,0.0,1194.7888954544862
1560,1760.000,15.087708464127445,1194.2315425358724
1561,1761.000,13.042430769699195,1193.6727172303008
1562,1762.000,12.953598188106753,1193.1124298118932
1563,1763.000,0.0,1192.5506906366877
1564,1764.000,1.4551398569906269,1191.9875101430093
1565,1765.000,6.694084148112779,1191.422898851887
1566,1766.000,7.782227632535978,1190.856867367464
1567,1767.000,7.166928622601517,1190.2894263773985
1568,1768.000,5.340787346737216,1189.7205866532627
1569,1769.000,0.0,1189.1503590509924
1570,1770.000,7.645557488747045,1188.578754511253
1571,1771.000,1.4746829401078685,1188.0057840598922
1572,1772.000,2.947086191698645,1187.4314588083014
1573,1773.000,0.0,1186.8557899539037
1574,1774.000,5.76341721949575,1186.2787887805043
1575,1775.000,0.0,1185.7004666587559
1576,1776.000,0.0,1185.1208350465517
1577,1777.000,13.288713510542038,1184.5399054894579
1578,1778.000,10.70352137888267,1183.9576896211174
1579,1779.000,12.12811683627342,1183.3741991637266
1580,1780.000,5.4503780716142955,1182.7894459283857
1581,1781.000,0.0,1182.2034418155858
1582,1782.000,10.666970184403226,1181.6161988155968
1583,1783.000,17.728667991055772,1181.0277290089443
1584,1784.000,5.639791433236951,1180.438044566763
1585,1785.000,13.053082248674855,1179.847157751325
1586,1786.000,9.152186083617607,1179.2550809163824
1587,1787.000,1.8029644923235537,1178.6618265076766
1588,1788.000,18.162997936698275,1178.0674070633017
1589,1789.000,2.257414785769697,1177.4718352142304
1590,1790.000,3.0855113153477305,1176.8751236846522
1591,1791.000,13.099215707494977,1176.277285292505
1592,1792.000,0.0,1175.6783329498403
1593,1793.000,12.000724336668782,1175.0782796633312
1594,1794.000,4.871807465333404,1174.4771385346667
1595,1795.000,13.459134238971728,1173.8749227610283
1596,1796.000,0.5442803644912146,1173.2716456355088
1597,1797.000,5.084603452399051,1172.6673205476009
1598,1798.000,9.13840901640333,1172.0619609835967
1599,1799.000,0.0,1171.4555805270913
1600,1800.000,14.640804140619366,1170.8481928593806
1601,1801.000,7.235508240038143,1170.2398117599619
1602,1802.000,3.9722398930393865,1169.6304511069607
1603,1803.000,0.0,1169.020124877604
1604,1804.000,8.485231851345134,1168.4088471486548
1605,1805.000,10.009597903093663,1167.7966320969063
1606,1806.000,18.056925000394585,1167.1834939996054
1607,1807.000,18.47673376505645,1166.5694472349435
1608,1808.000,19.613615717503308,1165.9545062824966
1609,1809.000,17.24117927627799,1165.338685723722
1610,1810.000,10.499720757627074,1164.7220002423728
1611,1811.000,10.01051337496915,1164.104464625031
1612,1812.000,17.41574123848841,1163.4860937615115
1613,1813.000,16.405181354614115,1162.8669026453858
1614,1814.000,0.0,1162.2469063744093
1615,1815.000,10.391277848959362,1161.6261201510406
1616,1816.000,12.874970717128917,1161.004559282871
1617,1817.000,9.687327816873676,1160.3822391831263
1618,1818.000,14.113192628868319,1159.7591753711317
1619,1819.000,14.152858527172612,1159.1353834728275
1620,1820.000,8.597214778834541,1158.5108792211654
1621,1821.000,15.941628543301249,1157.8856784566988
1622,1822.000,8.050472872032515,1157.2597971279674
1623,1823.000,0.0,1156.6332512920562
1624,1824.000,12.74244888496878,1156.0060571150311
1625,1825.000,7.26969412755011,1155.3782308724499
1626,1826.000,14.718834050170472,1154.7497889498295
1627,1827.000,10.576847156807162,1154.120747843193
1628,1828.000,14.946577840523105,1153.4911241594768
1629,1829.000,6.287887382904046,1152.860934617096
1630,1830.000,15.798774953618931,1152.230196046381
1631,1831.000,21.75246360985693,1151.598925390143
1632,1832.000,12.77368429591229,1150.9671397040877
1633,1833.000,12.489221842611869,1150.3348561573882
1634,1834.000,2.784610966872151,1149.7020920331279
1635,1835.000,23.134107271145695,1149.0688647288544
1636,1836.000,8.344806242976574,1148.4351917570234
1637,1837.000,15.86482725443102,1147.801090745569
1638,1838.000,14.52829456165432,1147.1665794383457
1639,1839.000,16.5017473043074,1146.5316756956927
1640,1840.000,16.73014550510652,1145.8963974948936
1641,1841.000,11.3989810692824,1145.2607629307176
1642,1842.000,5.3252817840714215,1144.6247902159287
1643,1843.000,13.30755231821854,1143.9884976817814
1644,1844.000,12.502364221459175,1143.3519037785409
1645,1845.000,10.387742923964652,1142.7150270760353
1646,1846.000,9.04367273589446,1142.0778862641055
1647,1847.000,0.5343138468172128,1141.4405001531827
1648,1848.000,19.115433325227286,1140.8028876747728
1649,1849.000,0.0,1140.1650678820083
1650,1850.000,12.738005049852745,1139.5270599501473
1651,1851.000,16.69514182289231,1138.8888831771078
1652,1852.000,15.807596016008574,1138.2505569839914
1653,1853.000,4.957712084376681,1137.6121009156234
1654,1854.000,14.984783358952882,1136.973534641047
1655,1855.000,7.901245045893347,1136.3348779541066
1656,1856.000,17.243030226064775,1135.6961507739352
1657,1857.000,10.805704854484475,1135.0573731455156
1658,1858.000,10.490346759812155,1134.418565240188
1659,1859.000,6.503485643777367,1133.7797473562227
1660,1860.000,7.595961080669213,1133.1409399193308
1661,1861.000,6.837467516787683,1132.5021634832124
1662,1862.000,21.58371826990765,1131.8634387300924
1663,1863.000,14.123601528723839,1131.2247864712763
1664,1864.000,8.297985352316118,1130.586227647684
1665,1865.000,17.29465166959676,1129.9477833304031
1666,1866.000,8.450401278794288,1129.3094747212058
1667,1867.000,15.087793846832255,1128.6713231531678
1668,1868.000,17.733731908881055,1128.033350091119
1669,1869.000,11.887346867696579,1127.3955771323035
1670,1870.000,15.616018993165198,1126.7580260068348
1671,1871.000,15.721478421665552,1126.1207185783344
1672,1872.000,7.54826915560534,1125.4836768443947
1673,1873.000,17.198325062759523,1124.8469229372404
1674,1874.000,5.760959875781737,1124.2104791242182
1675,1875.000,8.585051191627144,1123.574367808373
1676,1876.000,14.794576470991842,1122.938611529008
1677,1877.000,15.12964303772742,1122.3032329622727
1678,1878.000,15.425375078293882,1121.6682549217062
1679,1879.000,13.61430164120884,1121.033700358791
1680,1880.000,4.455382636449258,1120.3995923635507
1681,1881.000,19.201673834895473,1119.7659541651046
1682,1882.000,6.022723867749846,1119.1328091322503
1683,1883.000,4.748254225984738,1118.5001807740152
1684,1884.000,23.94339325975261,1117.8680927402474
1685,1885.000,10.081047177807022,1117.236568822193
1686,1886.000,7.341163046936572,1116.6056329530634
1687,1887.000,3.557212791378788,1115.9753092086212
1688,1888.000,17.2755421922418,1115.345621807758
1689,1889.000,3.8949148868994143,1114.7165951131005
1690,1890.000,7.312243368472991,1114.088253631527
1691,1891.000,14.70213398515466,1113.4606220148453
1692,1892.000,2.623939939706588,1112.8337250602933
1693,1893.000,27.495232288802754,1112.2075877111972
1694,1894.000,10.319311942498643,1111.5822350575013
1695,1895.000,14.346748663582048,1110.957692336418
1696,1896.000,17.9404220670242,1110.333984932976
1697,1897.000,13.156839619376342,1109.7111383806237
1698,1898.000,14.698226638161714,1109.0891783618383
1699,1899.000,9.205877291271236,1108.4681307087287
1700,1900.000,22.838307596384084,1107.8480214036158
1701,1901.000,12.270422420365094,1107.228876579635
1702,1902.000,24.661558478649113,1106.610722521351
1703,1903.000,20.04169233463267,1105.9935856653674
1704,1904.000,19.90059439911738,1105.3774926008825
1705,1905.000,9.077636929616574,1104.7624700703834
1706,1906.000,11.868053029828161,1104.1485449701718
1707,1907.000,3.686104648968012,1103.535744351032
1708,1908.000,21.3972415812093,1102.9240954187908
1709,1909.000,3.4741734650003764,1102.3136255349996
1710,1910.000,10.873621782533519,1101.7043622174665
1711,1911.000,18.201821859036954,1101.096333140963
1712,1912.000,0.525829862260025,1100.48956613774
1713,1913.000,17.011620801737763,1099.8840891982622
1714,1914.000,3.5506995282689786,1099.279930471731
1715,1915.000,12.820466733242483,1098.6771182667576
1716,1916.000,13.224930948027577,1098.0756810519724
1717,1917.000,15.68308854331076,1097.4756474566893
1718,1918.000,13.403396728555435,1096.8770462714447
1719,1919.000,10.335669551264118,1096.2799064487358
1720,1920.000,14.231236896441487,1095.6842571035586
1721,1921.000,22.689162485887437,1095.0901275141125
1722,1922.000,5.608094877616622,1094.4975471223834
1723,1923.000,13.01151746519281,1093.9065455348073
1724,1924.000,11.449373477103336,1093.3171525228968
1725,1925.000,15.996686976104456,1092.7293980238956
1726,1926.000,5.848994858625474,1092.1433121413745
1727,1927.000,1.849101854046694,1091.5589251459533
1728,1928.000,21.206344524151064,1090.976267475849
1729,1929.000,12.117906262381666,1090.3953697376182
1730,1930.000,13.387200293286924,1089.8162627067131
1731,1931.000,34.73449767179204,1089.238977328208
1732,1932.000,13.10923728259877,1088.6635447174012
1733,1933.000,23.716836839525513,1088.0899961604746
1734,1934.000,15.268388884828255,1087.5183631151717
1735,1935.000,1.9534217885782255,1086.9486772114217
1736,1936.000,7.442774747982867,1086.380970252017
1737,1937.000,15.05214378673395,1085.815274213266
1738,1938.000,13.427687754337512,1085.2516212456626
1739,1939.000,19.357325325486727,1084.6900436745132
1740,1940.000,13.536965999340964,1084.130574000659
1741,1941.000,8.372668098921622,1083.5732449010784
1742,1942.000,6.0413667703946885,1083.0180892296053
1743,1943.000,9.758661982423746,1082.4651400175762
1744,1944.000,16.456469525533976,1081.914430474466
1745,1945.000,19.414871011350442,1081.3659939886495
1746,1946.000,26.978449872012106,1080.8198641279878
1747,1947.000,11.958006359466708,1080.2760746405334
1748,1948.000,9.60204254477867,1079.7346594552214
1749,1949.000,0.0,1079.1956526825265
1750,1950.000,1.8219703848251356,1078.6590886151748
1751,1951.000,4.1852362712375,1078.1250017287625
1752,1952.000,10.165824317476336,1077.5934266825236
1753,1953.000,20.07557468004552,1077.0643983199545
1754,1954.000,13.637443330476117,1076.5379516695239
1755,1955.000,7.44811705467373,1076.0141219453262
1756,1956.000,17.658032452149428,1075.4929445478506
1757,1957.000,7.2303059354048855,1074.974455064595
1758,1958.000,7.423470729219844,1074.4586892707803
1759,1959.000,6.107187869905147,1073.945683130095
1760,1960.000,6.576754204692634,1073.4354727953073
1761,1961.000,13.059136390972753,1072.9280946090273
1762,1962.000,3.4977888956093466,1072.4235851043907
1763,1963.000,11.151821994248621,1071.9219810057514
1764,1964.000,2.7368087706049664,1071.423319229395
1765,1965.000,2.831324115762982,1070.927636884237
1766,1966.000,4.905446727455683,1070.4349712725443
1767,1967.000,3.6954661093807317,1069.9453598906193
1768,1968.000,11.690748570455526,1069.4588404295446
1769,1969.000,13.472191224139578,1068.9754507758605
1770,1970.000,4.811085987699244,1068.4952290123008
1771,1971.000,6.691541581526735,1068.0182134184734
1772,1972.000,0.0,1067.5444424716788
1773,1973.000,3.758337152532704,1067.0739548474673
1774,1974.000,4.376508579482561,1066.6067894205175
1775,1975.000,14.445132734753997,1066.142985265246
1776,1976.000,8.23368634338658,1065.6825816566134
1777,1977.000,4.30735892923235,1065.2256180707677
1778,1978.000,7.2785508141375885,1064.7721341858623
1779,1979.000,13.203429117275846,1064.3221698827242
1780,1980.000,7.127907754427042,1063.875765245573
1781,1981.000,11.491876437184828,1063.4329605628152
1782,1982.000,5.187335672249446,1062.9937963277505
1783,1983.000,10.01330576073201,1062.558313239268
1784,1984.000,5.968612797354808,1062.1265522026451
1785,1985.000,7.352582669741196,1061.6985543302587
1786,1986.000,0.0,1061.2743609423196
1787,1987.000,15.99083943236974,1060.8540135676303
1788,1988.000,11.176149055670521,1060.4375539443295
1789,1989.000,0.31060997938539003,1060.0250240206146
1790,1990.000,0.7139190444515862,1059.6164659555484
1791,1991.000,0.0,1059.2119221197281
1792,1992.000,0.0,1058.81143509611
1793,1993.000,1.420072319283463,1058.4150476807165
1794,1994.000,2.6532641166015765,1058.0228028833985
1795,1995.000,0.0,1057.6347439286337
1796,1996.000,5.189376743756156,1057.2509142562437
1797,1997.000,7.044997477865536,1056.8713575221345
1798,1998.000,0.4454684008805998,1056.4961175991193
1799,1999.000,0.0,1056.1252385776681
1800,2000.000,2.9571902333950675,1055.7587647666048
