pixel_index,raman_shift_cm-1,intensity
0,200.000,-8.946854239349761
1,201.000,-7.517783675831367
2,202.000,-0.8762775147726529
3,203.000,5.136149466289737
4,204.000,-12.431578505243237
5,205.000,-12.656636197046282
6,206.000,-3.7270253718830872
7,207.000,-12.701251787619356
8,208.000,-14.55736019723605
9,209.000,0.7997816511574456
10,210.000,-10.1256849856901
11,211.000,-4.03520184618435
12,212.000,-5.500615663899509
13,213.000,-8.33858216759063
14,214.000,-9.240019081207379
15,215.000,-1.1113361239070514
16,216.000,-2.204655010067711
17,217.000,-14.196398449301455
18,218.000,-10.07695614646758
19,219.000,-10.806470801685805
20,220.000,-8.079943110349461
21,221.000,10.659620236861372
22,222.000,-9.447513446033497
23,223.000,-1.4360438403271587
24,224.000,-12.105353622639484
25,225.000,-0.20370846492960482
26,226.000,-16.260741034509465
27,227.000,-9.579612994057072
28,228.000,-9.682219001629619
29,229.000,-0.7369757106765178
30,230.000,-15.463404770052819
31,231.000,0.7018911759677735
32,232.000,-1.2801115123205022
33,233.000,-18.671284470068485
34,234.000,-13.920519327885302
35,235.000,-11.457619711851635
36,236.000,-10.575140243532928
37,237.000,5.140601460007588
38,238.000,9.071372786195525
39,239.000,0.8429881269321413
40,240.000,12.77662387858112
41,241.000,-7.437980558044217
42,242.000,1.0639402223051775
43,243.000,1.1173756293015913
44,244.000,0.5804920770267472
45,245.000,0.6937439839591661
46,246.000,-2.665234227039491
47,247.000,-7.815094128737201
48,248.000,-0.37499128954527805
49,249.000,1.425893726468928
50,250.000,4.0193043595685936
51,251.000,-1.8716239456657604
52,252.000,1.2162752596504447
53,253.000,6.223919428692909
54,254.000,-0.23401098108490714
55,255.000,2.8466774920350417
56,256.000,-2.734800685977916
57,257.000,-0.13883804491604224
58,258.000,5.108491889653067
59,259.000,-1.1239564036259821
60,260.000,3.3268995580897354
61,261.000,-2.7283237381713548
62,262.000,-4.169982801208505
63,263.000,-1.6320701356620475
64,264.000,0.3745187579734761
65,265.000,-3.513096616663688
66,266.000,2.606979248184075
67,267.000,-1.9267661356195163
68,268.000,6.044653747882592
69,269.000,7.303103418727119
70,270.000,-4.435651598982531
71,271.000,-4.1102697770894565
72,272.000,1.0067954166034951
73,273.000,5.070618518320714
74,274.000,3.901437068300197
75,275.000,5.079399610780911
76,276.000,1.8213576939890572
77,277.000,-0.2946341298746802
78,278.000,-9.572878304648611
79,279.000,5.0826627297770415
80,280.000,15.062421537446482
81,281.000,4.544072686325762
82,282.000,1.9070047482890686
83,283.000,3.3663822991055667
84,284.000,1.253591918426764
85,285.000,0.45409518977260177
86,286.000,-0.2918842994812394
87,287.000,3.9550330418829844
88,288.000,0.8203448089124663
89,289.000,-10.897544399529579
90,290.000,10.324464019222432
91,291.000,5.9966656716241005
92,292.000,-6.3365448320929545
93,293.000,13.93777012206641
94,294.000,-15.882162848152973
95,295.000,6.122312878730725
96,296.000,-8.043084072077136
97,297.000,9.4065679283392
98,298.000,15.684512512592732
99,299.000,-3.8301096830194865
100,300.000,-1.1524550185297926
101,301.000,13.991358149687528
102,302.000,8.602766468902132
103,303.000,-2.1183684099847824
104,304.000,9.897200167545975
105,305.000,7.784767859618455
106,306.000,1.1908253279482324
107,307.000,2.179813237829592
108,308.000,5.014764258121772
109,309.000,7.903762061236364
110,310.000,-5.132699676876314
111,311.000,-0.3616422767402696
112,312.000,-0.7782550553669694
113,313.000,17.38730667373153
114,314.000,2.035928600528848
115,315.000,-4.18265858152796
116,316.000,-0.5802381755324291
117,317.000,-4.668666481131652
118,318.000,-3.8279137945390858
119,319.000,3.832712591451582
120,320.000,9.429454387453745
121,321.000,-1.0379006925252838
122,322.000,4.626101068902017
123,323.000,5.008706392490637
124,324.000,5.997124002349892
125,325.000,2.5664506259298037
126,326.000,3.3487159940082734
127,327.000,10.681929840677753
128,328.000,13.194734903332062
129,329.000,5.293909922653199
130,330.000,-4.323891357401806
131,331.000,10.988153810385768
132,332.000,1.9586041764832203
133,333.000,10.537115494593479
134,334.000,-3.4834984783586833
135,335.000,-5.308798982239182
136,336.000,0.691833746281759
137,337.000,-0.46784252628350487
138,338.000,-1.3045830302531272
139,339.000,16.104123007210944
140,340.000,6.36174336208984
141,341.000,3.6173838134943708
142,342.000,9.685053143652283
143,343.000,15.054247137894492
144,344.000,10.816832584642327
145,345.000,10.150984275394023
146,346.000,3.3086160047120075
147,347.000,18.738011570208982
148,348.000,3.999142772535265
149,349.000,-1.9560485846342885
150,350.000,6.1633333053858905
151,351.000,5.436880252279366
152,352.000,-1.8085509312854242
153,353.000,6.550898570331469
154,354.000,6.266096575727886
155,355.000,1.3381899064472123
156,356.000,6.847621386964704
157,357.000,6.5058148446740915
158,358.000,2.0620941098748062
159,359.000,6.4892920157587355
160,360.000,9.957654398396699
161,361.000,-5.815484903274466
162,362.000,8.826695952534862
163,363.000,2.487417810453792
164,364.000,-0.5803524820621533
165,365.000,4.0431899252556605
166,366.000,-1.216455114523967
167,367.000,3.3770442544541766
168,368.000,9.54527789081925
169,369.000,-4.531967344039344
170,370.000,-9.704110585985006
171,371.000,11.79848303185264
172,372.000,6.693085379065337
173,373.000,6.604258327951811
174,374.000,16.843601753505595
175,375.000,-0.29431646659867283
176,376.000,1.2236225479816767
177,377.000,1.9429636802440768
178,378.000,4.018224815827693
179,379.000,3.4683798430001502
180,380.000,2.975322652644138
181,381.000,-0.3647148617553171
182,382.000,14.62939719587547
183,383.000,5.549335724185653
184,384.000,3.598637624387493
185,385.000,11.217559800241816
186,386.000,-4.662025841954119
187,387.000,10.588678606619851
188,388.000,-3.0033669427065206
189,389.000,5.451987423893058
190,390.000,-0.9586283772719639
191,391.000,8.53945157257823
192,392.000,-2.6951318053198747
193,393.000,7.034745412714187
194,394.000,1.2870631527910632
195,395.000,9.207389343438933
196,396.000,0.707346915590108
197,397.000,-1.341727197432192
198,398.000,10.695993940073038
199,399.000,-4.689461733828807
200,400.000,5.734560721279081
201,401.000,5.947130248151893
202,402.000,3.7092237918694195
203,403.000,8.229246299823615
204,404.000,3.300654721704632
205,405.000,4.759032009488237
206,406.000,7.749873117422169
207,407.000,5.769593002013494
208,408.000,5.39419162201483
209,409.000,8.808289938411292
210,410.000,-4.155955085592325
211,411.000,-2.41003948458507
212,412.000,3.318647709036668
213,413.000,10.726526465056907
214,414.000,-0.13200424457420468
215,415.000,3.255394554247175
216,416.000,9.040497837765088
217,417.000,11.877554584350548
218,418.000,7.97741177448836
219,419.000,7.639733390764206
220,420.000,7.575010417851104
221,421.000,-5.923586157503848
222,422.000,-0.1289513464921015
223,423.000,5.454575841742383
224,424.000,-3.959051599909344
225,425.000,-8.27053767653507
226,426.000,-6.028268391213999
227,427.000,9.388531254969564
228,428.000,-4.901412737086673
229,429.000,7.88394263548355
230,430.000,13.419845377502156
231,431.000,-6.185727504266538
232,432.000,1.8792059988705887
233,433.000,-2.174390102477105
234,434.000,-1.6593167957975652
235,435.000,-1.8310990666894895
236,436.000,-8.215411898874947
237,437.000,4.134356725787143
238,438.000,-3.0331091727122725
239,439.000,4.202514427454389
240,440.000,1.4896705499384666
241,441.000,-0.07238077979837954
242,442.000,-0.15507053449715613
243,443.000,0.35225231488459485
244,444.000,-0.12298620083936385
245,445.000,5.831941950902035
246,446.000,4.0095318044246255
247,447.000,4.385069395774963
248,448.000,4.468418762717761
249,449.000,5.1362229447227605
250,450.000,9.069719982951199
251,451.000,10.45238792024253
252,452.000,4.768980801101691
253,453.000,7.693199671685591
254,454.000,-3.483802420210111
255,455.000,-0.007148425163961747
256,456.000,6.145051707857817
257,457.000,-3.7826889685118203
258,458.000,2.9188145999464155
259,459.000,4.896221469024454
260,460.000,-3.58145030392609
261,461.000,-8.483242660007022
262,462.000,-1.0417365387870632
263,463.000,-10.646289878314406
264,464.000,1.2732643848690373
265,465.000,-1.854060684284491
266,466.000,-7.652617019342529
267,467.000,-7.292193552404967
268,468.000,14.88695178588199
269,469.000,-5.083664933686691
270,470.000,-0.1830066388883438
271,471.000,3.7460457439142374
272,472.000,2.46377528975961
273,473.000,1.7846630750742634
274,474.000,-0.9102708223401805
275,475.000,3.065998676679726
276,476.000,-1.7943583473542617
277,477.000,1.8235041874052058
278,478.000,6.023785364127548
279,479.000,-0.07269473270895332
280,480.000,-2.420076017330018
281,481.000,-8.235224402678966
282,482.000,-4.170697800429764
283,483.000,-1.0740471209999214
284,484.000,0.9965527264358798
285,485.000,-8.169113166067405
286,486.000,-1.4813557052380588
287,487.000,-7.432146796600762
288,488.000,-8.032927344490304
289,489.000,-0.4448882520643451
290,490.000,2.7784695786835414
291,491.000,-4.501237753090038
292,492.000,-3.608563147090763
293,493.000,0.8031284980999658
294,494.000,-0.31467971498835823
295,495.000,14.648063317271749
296,496.000,5.461088699592324
297,497.000,-10.880189462243038
298,498.000,13.537165938607359
299,499.000,-6.171270989969457
300,500.000,-10.675725139054748
301,501.000,-11.084771398710984
302,502.000,-0.3757386579954982
303,503.000,-10.72832680497271
304,504.000,-5.757509726728358
305,505.000,4.4865636906178
306,506.000,-9.198353438101321
307,507.000,-10.674125997113265
308,508.000,-0.7930698697190337
309,509.000,-7.68814793830677
310,510.000,-0.5025920843646645
311,511.000,0.23897281150584604
312,512.000,-3.0769401304228268
313,513.000,4.09131521098152
314,514.000,-8.42236104230119
315,515.000,-16.909905767457417
316,516.000,-9.614998840852877
317,517.000,-0.007287138045398933
318,518.000,3.6365924662011366
319,519.000,-12.611088902095617
320,520.000,3.656672883849751
321,521.000,-8.261940048422275
322,522.000,-7.786609570630048
323,523.000,6.113535446236938
324,524.000,2.5333981319040504
325,525.000,-2.4762733832011463
326,526.000,4.095526032037583
327,527.000,-20.630866490587437
328,528.000,-1.5063268186222558
329,529.000,-1.3411228189629583
330,530.000,-0.002390357870012849
331,531.000,-7.638430300980872
332,532.000,1.477261486676639
333,533.000,-10.942867859328999
334,534.000,-10.443000202845724
335,535.000,6.19790659284854
336,536.000,-5.6714773349679035
337,537.000,-11.720787848472014
338,538.000,-10.990320809311129
339,539.000,3.839525921385075
340,540.000,5.225951482990922
341,541.000,1.0588770153717633
342,542.000,-6.746276341129487
343,543.000,-4.520594445705569
344,544.000,-3.880815157097345
345,545.000,-8.184216333607992
346,546.000,-3.0290368331159243
347,547.000,-8.49722351308742
348,548.000,-0.6355052305905247
349,549.000,-3.0422128423077766
350,550.000,-9.7517262045493
351,551.000,-12.842050173266898
352,552.000,-1.216773604066475
353,553.000,6.4893606477793355
354,554.000,-8.391392272683674
355,555.000,4.560279779897201
356,556.000,9.919630951166937
357,557.000,-12.050609612949074
358,558.000,-11.834603766259306
359,559.000,-1.89775436231821
360,560.000,-4.481132254440922
361,561.000,-14.521754295715027
362,562.000,0.2857616609858269
363,563.000,-4.589032237012134
364,564.000,-0.9279748421939757
365,565.000,-3.163170006871951
366,566.000,-23.123896583196483
367,567.000,-4.873734423170049
368,568.000,-0.3569083786610463
369,569.000,-14.731783301416044
370,570.000,-11.17179904307352
371,571.000,-3.1778554551766547
372,572.000,-11.203704389187237
373,573.000,-9.821726696497649
374,574.000,-5.985837228445575
375,575.000,0.4620311636738279
376,576.000,-10.823030371405025
377,577.000,0.9548163150672053
378,578.000,-9.615985628156295
379,579.000,-11.475432052333645
380,580.000,-2.00245480874662
381,581.000,-8.347361748713752
382,582.000,-13.40754772360333
383,583.000,-6.3985895848474
384,584.000,-23.260320183954263
385,585.000,-13.888890372521928
386,586.000,-5.365218002251368
387,587.000,-9.945831924959293
388,588.000,-3.7488229925918404
389,589.000,4.901384942761979
390,590.000,-15.123715971141792
391,591.000,-11.317149586716482
392,592.000,-16.265778756556983
393,593.000,-12.235053333453834
394,594.000,-0.3158111704055955
395,595.000,-8.850826120633087
396,596.000,-11.556188037591141
397,597.000,-7.862279774983335
398,598.000,2.5872728132262637
399,599.000,-4.604446127201413
400,600.000,-3.2817434507926464
401,601.000,-6.462701012374623
402,602.000,5.515986332911325
403,603.000,-0.4355022704030489
404,604.000,-2.298209678126341
405,605.000,18.755144253579033
406,606.000,-1.7045103318160955
407,607.000,4.313587708779437
408,608.000,13.950779518063541
409,609.000,20.366851238327627
410,610.000,15.073713011443715
411,611.000,31.64589497885106
412,612.000,38.012899281543014
413,613.000,45.07434506005359
414,614.000,47.767791454445046
415,615.000,70.10066260429335
416,616.000,79.11247164867643
417,617.000,115.68424472615993
418,618.000,133.7179489747847
419,619.000,160.8117785320527
420,620.000,162.0831885349154
421,621.000,151.17596111975854
422,622.000,125.89461942239063
423,623.000,102.40376357802904
424,624.000,84.86899672128686
425,625.000,72.2214139861594
426,626.000,48.589295506011695
427,627.000,35.38467241356477
428,628.000,26.331785840882617
429,629.000,31.648146919359192
430,630.000,18.92240977970448
431,631.000,10.083941551932526
432,632.000,14.769052365347079
433,633.000,1.0231583485292504
434,634.000,-9.031374370676645
435,635.000,5.360155334824981
436,636.000,4.091925591366476
437,637.000,-11.643157475494945
438,638.000,-4.785346740991599
439,639.000,-13.633424081157727
440,640.000,-8.472548372842994
441,641.000,-15.077763493725683
442,642.000,-5.255972322325874
443,643.000,-9.221650738018297
444,644.000,-0.31661962104635677
445,645.000,-1.562396852534448
446,646.000,-9.524092314501672
447,647.000,-11.619620889874568
448,648.000,-3.209714462501097
449,649.000,-10.723011917163035
450,650.000,-12.028744139589435
451,651.000,-16.793048016470152
452,652.000,-11.807374435468546
453,653.000,-20.845322285234943
454,654.000,-8.397801455419653
455,655.000,-13.018003836686603
456,656.000,-9.332337320725742
457,657.000,-17.86419680026711
458,658.000,-13.757948169093424
459,659.000,-11.549790322053695
460,660.000,-14.861130155076012
461,661.000,-15.876530565180929
462,662.000,-3.7467104504944473
463,663.000,-15.918202710262221
464,664.000,-23.042988244861135
465,665.000,-19.936902955813366
466,666.000,-19.600239745800195
467,667.000,-14.087357518674025
468,668.000,-18.484706179472028
469,669.000,-11.626437634429635
470,670.000,-8.00504179099346
471,671.000,-11.582422557834434
472,672.000,-10.766333844861151
473,673.000,-20.96974356323301
474,674.000,-15.95169362537331
475,675.000,-19.729864944982864
476,676.000,-9.708789437052474
477,677.000,-15.591529017876837
478,678.000,-17.451868605067148
479,679.000,-6.474478117564786
480,680.000,-19.616252475654164
481,681.000,-24.113975600976232
482,682.000,-21.496743416541335
483,683.000,-18.876829846742567
484,684.000,-25.95717581736926
485,685.000,-16.530591255619242
486,686.000,-18.534978090113327
487,687.000,-23.30964925090757
488,688.000,-19.598936669506884
489,689.000,-9.404072278877834
490,690.000,-19.215204013462312
491,691.000,-2.20714180919083
492,692.000,-22.376971603494326
493,693.000,-11.884798335319829
494,694.000,-21.500133945141556
495,695.000,-24.70513937497435
496,696.000,-5.778537568388288
497,697.000,-19.761273470520337
498,698.000,-9.039783028088323
499,699.000,-11.57281018940364
500,700.000,-20.725489904385427
501,701.000,-30.551994124572275
502,702.000,-15.137280803136946
503,703.000,-19.722607894898033
504,704.000,-10.17028535633483
505,705.000,-17.14589714559895
506,706.000,-18.930450222528975
507,707.000,-29.617831548662025
508,708.000,-22.827023087248563
509,709.000,-14.702987803264591
510,710.000,-19.51537266342507
511,711.000,-23.44043963619731
512,712.000,-18.289039691813855
513,713.000,-5.962371802285929
514,714.000,-26.674116941416514
515,715.000,-32.57543408481354
516,716.000,-17.86852120990352
517,717.000,-15.182665295943593
518,718.000,-17.820818324036054
519,719.000,-24.577558277140724
520,720.000,-18.959956140088366
521,721.000,-9.307689899593925
522,722.000,-19.15791454426983
523,723.000,-18.18694406463885
524,724.000,-21.16508045314754
525,725.000,-15.736863704179655
526,726.000,-25.974691814068365
527,727.000,-14.91509478111118
528,728.000,-25.45107160558132
529,729.000,-21.22914528974161
530,730.000,-9.607650837858614
531,731.000,-10.057444256214353
532,732.000,-14.353204553120122
533,733.000,-22.248199738930225
534,734.000,-11.618210826053996
535,735.000,-23.905958828970142
536,736.000,-16.25789876423903
537,737.000,-12.617525650516768
538,738.000,-25.72545050856752
539,739.000,-20.90178636127723
540,740.000,-20.678480233666733
541,741.000,-26.72276615290491
542,742.000,-18.147304148321837
543,743.000,-27.773415251421852
544,744.000,-17.27370449589762
545,745.000,-14.837573917641635
546,746.000,-12.582975554760878
547,747.000,-19.82290144758997
548,748.000,-26.420542638703182
549,749.000,-20.827362172929043
550,750.000,-20.427157097362397
551,751.000,-22.658110461377987
552,752.000,-16.271408316644283
553,753.000,-13.91381971713588
554,754.000,-22.464583719146844
555,755.000,-26.999562381304145
556,756.000,-16.66417176458083
557,757.000,-15.702422932308536
558,758.000,-26.24275195019186
559,759.000,-21.255041886320896
560,760.000,-33.176422811184125
561,761.000,-29.65542179768238
562,762.000,-23.39935592114125
563,763.000,-23.433232259324882
564,764.000,-4.073552892448902
565,765.000,-28.480541903193625
566,766.000,-24.422437376717312
567,767.000,-16.6237144006692
568,768.000,-15.619920065203132
569,769.000,-23.86788446299022
570,770.000,-18.841927689232193
571,771.000,-19.45906084167484
572,772.000,-4.149167020620894
573,773.000,-15.407406328943466
574,774.000,-18.756822872099292
575,775.000,-21.398740758141457
576,776.000,-20.56283409773289
577,777.000,-19.783700004159755
578,778.000,-22.239751593344636
579,779.000,-14.245144983859177
580,780.000,-20.341379296937703
581,781.000,-9.280925656490922
582,782.000,-0.9949571891179403
583,783.000,-0.3957530241200402
584,784.000,-11.240429293514467
585,785.000,8.2416218679532
586,786.000,11.035179322795784
587,787.000,20.694512930770657
588,788.000,17.63259054886771
589,789.000,22.52865503129442
590,790.000,28.724990229464538
591,791.000,50.959163991983814
592,792.000,47.936595164636515
593,793.000,55.47943659037389
594,794.000,74.40155910929832
595,795.000,63.48268755865308
596,796.000,57.24311477280662
597,797.000,63.64529558324102
598,798.000,47.241217818538075
599,799.000,46.805856304365875
600,800.000,32.42674086346676
601,801.000,21.359128315642806
602,802.000,9.121976477743033
603,803.000,-4.6889878363493835
604,804.000,6.295816184269825
605,805.000,4.60833734751111
606,806.000,-6.019953541719133
607,807.000,-1.5045246815344626
608,808.000,-10.125535273080118
609,809.000,-11.128376520547135
610,810.000,-16.337788631184253
611,811.000,-8.160947815312511
612,812.000,-22.178847286337486
613,813.000,-31.55022326076289
614,814.000,-12.180194958203856
615,815.000,-15.381762601399714
616,816.000,-31.07801541622746
617,817.000,-24.520621631715244
618,818.000,-24.433930480055324
619,819.000,-19.99569219661612
620,820.000,-25.75287501995797
621,821.000,-13.90154219184376
622,822.000,-27.776389957253514
623,823.000,-21.982805564397836
624,824.000,-30.642639264729496
625,825.000,-20.57071931295843
626,826.000,-26.497608967063798
627,827.000,-20.494502488307717
628,828.000,-34.81299014124818
629,829.000,-32.655413193752565
630,830.000,-27.751781917010476
631,831.000,-23.378885585546755
632,832.000,-25.203792477235993
633,833.000,-22.134636873313752
634,834.000,-21.764287058390664
635,835.000,-27.545076320466592
636,836.000,-22.814852950942395
637,837.000,-27.922657244633683
638,838.000,-32.80025849978426
639,839.000,-16.572609018078992
640,840.000,-31.49087010465621
641,841.000,-21.936576068123145
642,842.000,-27.128442220566853
643,843.000,-31.231776877568677
644,844.000,-25.01617035821664
645,845.000,-37.11926998511933
646,846.000,-21.80795408441918
647,847.000,-38.66838398580444
648,848.000,-28.717669022523978
649,849.000,-35.11023653139955
650,850.000,-38.82342285283926
651,851.000,-17.52942633085013
652,852.000,-16.52209531305266
653,853.000,-33.350543150692715
654,854.000,-30.766748198654795
655,855.000,-25.758921815476697
656,856.000,-29.543585363361103
657,857.000,-31.09222420818878
658,858.000,-23.008082719533263
659,859.000,-27.71762027067291
660,860.000,-37.948945238603415
661,861.000,-33.27090600405302
662,862.000,-26.718935951493904
663,863.000,-38.14934946915628
664,864.000,-17.963400949041443
665,865.000,-38.46583978693468
666,866.000,-29.302930382418708
667,867.000,-44.69074313888677
668,868.000,-32.59779046355595
669,869.000,-18.762463767480313
670,870.000,-25.519253465564134
671,871.000,-24.43953097657493
672,872.000,-35.06536972315678
673,873.000,-29.943982131843768
674,874.000,-20.093440633072532
675,875.000,-30.865024661196003
676,876.000,-28.386132654496578
677,877.000,-30.733396055198796
678,878.000,-25.742186309483486
679,879.000,-21.16013386749978
680,880.000,-18.94810618337931
681,881.000,-30.20553171524932
682,882.000,-31.267670925244715
683,883.000,-26.724524279522598
684,884.000,-39.73005524827465
685,885.000,-41.73494530574146
686,886.000,-34.78272693022393
687,887.000,-36.355935604098136
688,888.000,-28.181690813827004
689,889.000,-34.428225049975026
690,890.000,-25.188310807220887
691,891.000,-23.76319358436956
692,892.000,-42.70271388436754
693,893.000,-44.1060742143145
694,894.000,-34.23396808547682
695,895.000,-40.661765013300965
696,896.000,-28.882813517426825
697,897.000,-36.85713312170037
698,898.000,-34.96174135418789
699,899.000,-37.758069747187506
700,900.000,-33.37541783724407
701,901.000,-35.85897316516139
702,902.000,-23.361703276015533
703,903.000,-29.159795719168415
704,904.000,-38.35219004828048
705,905.000,-27.26865882132438
706,906.000,-36.913298600597955
707,907.000,-33.155104952736906
708,908.000,-27.49344844872917
709,909.000,-33.686019663927254
710,910.000,-22.703615178061227
711,911.000,-28.748520575252883
712,912.000,-41.171128444027545
713,913.000,-44.68177937732935
714,914.000,-33.26690197253174
715,915.000,-29.96413283145307
716,916.000,-30.180318560368278
717,917.000,-36.510024770023165
718,918.000,-32.89522907564651
719,919.000,-47.02136309696368
720,920.000,-39.53538545821061
721,921.000,-22.23070078814601
722,922.000,-39.54327372006446
723,923.000,-40.841234891810586
724,924.000,-28.57606294579159
725,925.000,-33.74823252899034
726,926.000,-37.26599929297913
727,927.000,-20.275273893931626
728,928.000,-36.41515599263835
729,929.000,-36.73131925451719
730,930.000,-24.4479053496284
731,931.000,-29.73090595268752
732,932.000,-34.050403743078164
733,933.000,-28.109827404864973
734,934.000,-33.4278096268074
735,935.000,-34.09042910237315
736,936.000,-27.759697529750838
737,937.000,-27.03985061186279
738,938.000,-32.4756810563789
739,939.000,-28.68181857572972
740,940.000,-18.97734888712
741,941.000,-29.641430712541023
742,942.000,-31.127029778784163
743,943.000,-33.64051581745457
744,944.000,-28.465542564983934
745,945.000,-36.291321762643065
746,946.000,-37.39056515655659
747,947.000,-37.540633497714566
748,948.000,-27.705426541987322
749,949.000,-40.66554705013641
750,950.000,-31.268628787830266
751,951.000,-32.23736552565606
752,952.000,-35.777718039132424
753,953.000,-26.23720310872409
754,954.000,-19.213836519853885
755,955.000,-39.68656206291632
756,956.000,-33.94801453329114
757,957.000,-28.512653731356068
758,958.000,-32.631122462499775
759,959.000,-19.102738537135792
760,960.000,-28.767874770715707
761,961.000,-25.880432983740775
762,962.000,-25.415036001777594
763,963.000,-21.056609655469288
764,964.000,-30.320123780549693
765,965.000,-23.592882217856413
766,966.000,-27.520226813343584
767,967.000,-20.828486418096077
768,968.000,-18.36628488834083
769,969.000,-19.835955085462274
770,970.000,-23.058271876014032
771,971.000,-19.582803131732703
772,972.000,-12.774086729550845
773,973.000,-30.60692755160983
774,974.000,-20.288609485274606
775,975.000,-20.872407423144182
776,976.000,-30.254692263067568
777,977.000,-21.62220590815548
778,978.000,-21.570976266792968
779,979.000,-15.251472252654935
780,980.000,-11.296393784716884
781,981.000,-20.1440027872693
782,982.000,-12.443037189930465
783,983.000,-12.360589927660612
784,984.000,-3.0823409407728377
785,985.000,-4.109053174949395
786,986.000,3.7701984187476683
787,987.000,6.243415883861644
788,988.000,21.75296625853025
789,989.000,33.263384575468535
790,990.000,33.245913861959934
791,991.000,51.93321413984063
792,992.000,60.17509442548567
793,993.000,88.33276272979924
794,994.000,116.94494605819796
795,995.000,158.96202741059847
796,996.000,235.43099678140538
797,997.000,327.3111641594976
798,998.000,465.98975452821423
799,999.000,658.9300338653431
800,1000.000,861.3278911431057
801,1001.000,964.0005823281447
802,1002.000,858.965296381512
803,1003.000,670.0803052586534
804,1004.000,470.48343090939693
805,1005.000,327.66697927793916
806,1006.000,241.78668830283186
807,1007.000,174.322059916969
808,1008.000,121.20333904757376
809,1009.000,102.7439656161846
810,1010.000,72.07358553864265
811,1011.000,60.04572872507924
812,1012.000,52.16313507990071
813,1013.000,41.71751950177736
814,1014.000,17.553984883628573
815,1015.000,20.931221112610956
816,1016.000,33.25311307010361
817,1017.000,17.026241631697076
818,1018.000,20.73573166717847
819,1019.000,29.42508204051751
820,1020.000,24.45487960985679
821,1021.000,30.88131822749415
822,1022.000,37.918126739873514
823,1023.000,53.57172998756846
824,1024.000,69.92593780527113
825,1025.000,81.70965202177786
826,1026.000,114.18138445997761
827,1027.000,151.16409593683602
828,1028.000,203.96838326338434
829,1029.000,289.4326522447061
830,1030.000,352.2709086799241
831,1031.000,392.10835636218485
832,1032.000,356.5962370786483
833,1033.000,288.7528066104737
834,1034.000,209.26633073280573
835,1035.000,158.20737321476167
836,1036.000,103.76696981941859
837,1037.000,73.83254730380008
838,1038.000,46.08030041886241
839,1039.000,35.852436909482094
840,1040.000,33.47841951444184
841,1041.000,11.261977966419181
842,1042.000,10.241092991970163
843,1043.000,2.379544311519794
844,1044.000,-6.000792360654259
845,1045.000,-11.251630316432966
846,1046.000,-8.031974853869542
847,1047.000,-20.371970277203673
848,1048.000,-27.90694489687303
849,1049.000,-9.064937029527755
850,1050.000,-17.654515998043053
851,1051.000,-10.692670131532168
852,1052.000,-22.974170765360896
853,1053.000,-24.3144262411588
854,1054.000,-20.437721906833758
855,1055.000,-21.587749116585655
856,1056.000,-20.50372623091721
857,1057.000,-28.70141361664969
858,1058.000,-29.24651064693535
859,1059.000,-33.31170970127005
860,1060.000,-27.8739171655061
861,1061.000,-23.949392431867864
862,1062.000,-31.689265898961366
863,1063.000,-37.33964897179089
864,1064.000,-15.68816006176985
865,1065.000,-34.25010958673465
866,1066.000,-21.319414970958405
867,1067.000,-27.134488645163856
868,1068.000,-39.166023046536566
869,1069.000,-33.95242861873726
870,1070.000,-23.54100781191596
871,1071.000,-20.27285708272575
872,1072.000,-34.21725189433482
873,1073.000,-39.47723871643939
874,1074.000,-31.216768025278498
875,1075.000,-28.93358030364584
876,1076.000,-32.088730040903556
877,1077.000,-38.84755673299446
878,1078.000,-37.28372388245748
879,1079.000,-24.41584199843828
880,1080.000,-35.59987759670389
881,1081.000,-33.7023321996553
882,1082.000,-35.26033933634153
883,1083.000,-46.02673154247236
884,1084.000,-25.63853536043007
885,1085.000,-35.13507433928521
886,1086.000,-28.5349680348088
887,1087.000,-37.474125009483714
888,1088.000,-32.619234832521215
889,1089.000,-33.84974307987113
890,1090.000,-24.219936334236763
891,1091.000,-36.25613318508772
892,1092.000,-24.801194228672784
893,1093.000,-37.02481106803316
894,1094.000,-30.02749231301641
895,1095.000,-37.1845515802886
896,1096.000,-30.775922493347707
897,1097.000,-33.29063568253787
898,1098.000,-34.4759797850611
899,1099.000,-24.742150444991466
900,1100.000,-26.22806531328797
901,1101.000,-31.325233047807387
902,1102.000,-39.45692731331883
903,1103.000,-34.2386147815148
904,1104.000,-42.7468711310255
905,1105.000,-32.07268404743331
906,1106.000,-43.00991122328355
907,1107.000,-30.083276358099283
908,1108.000,-27.05312015839445
909,1109.000,-33.11529733768543
910,1110.000,-39.70488961650722
911,1111.000,-30.260761722423013
912,1112.000,-27.45722239004158
913,1113.000,-25.346450361025745
914,1114.000,-32.69733438410958
915,1115.000,-27.90845321510983
916,1116.000,-41.24839261693842
917,1117.000,-29.07838435961753
918,1118.000,-40.00084722029146
919,1119.000,-27.501204983240314
920,1120.000,-26.252369439892618
921,1121.000,-40.48223638883883
922,1122.000,-28.824880635845375
923,1123.000,-26.7177909938664
924,1124.000,-19.319643283058213
925,1125.000,-16.460233330791652
926,1126.000,-33.6653289716653
927,1127.000,-20.938835047519888
928,1128.000,-38.30244740744888
929,1129.000,-39.31533290781522
930,1130.000,-34.68307641226147
931,1131.000,-28.363906791724276
932,1132.000,-22.53220192444769
933,1133.000,-28.784746695996546
934,1134.000,-25.554789999268223
935,1135.000,-27.865827734507775
936,1136.000,-19.19736880931964
937,1137.000,-31.17513313868176
938,1138.000,-17.559088644958138
939,1139.000,-19.196976257912638
940,1140.000,-16.309740914721488
941,1141.000,-20.489989559987407
942,1142.000,-7.122149145751564
943,1143.000,-13.648658631507942
944,1144.000,-21.04882898421556
945,1145.000,-12.31552317831256
946,1146.000,2.8772068042710544
947,1147.000,5.973518974100443
948,1148.000,14.393818334221805
949,1149.000,26.588162880151003
950,1150.000,40.96214459985799
951,1151.000,52.39719447375592
952,1152.000,70.29788947468569
953,1153.000,84.4648995679056
954,1154.000,91.58734871107504
955,1155.000,99.44772785424266
956,1156.000,98.31085793983448
957,1157.000,84.01248390263913
958,1158.000,77.11401566979339
959,1159.000,41.82975716077317
960,1160.000,35.96492128737577
961,1161.000,30.973813953709623
962,1162.000,13.873329056179955
963,1163.000,10.387436483475767
964,1164.000,4.357199116556103
965,1165.000,-5.777449171361468
966,1166.000,-2.7019195148161543
967,1167.000,-3.5353570561153447
968,1168.000,-21.839042945349547
969,1169.000,-8.164197340404371
970,1170.000,9.953684593026765
971,1171.000,-2.2811493185720337
972,1172.000,-11.914992256551614
973,1173.000,-13.019469410110787
974,1174.000,12.54474202369056
975,1175.000,-1.0600661600831245
976,1176.000,8.018389825746226
977,1177.000,7.969841760454983
978,1178.000,25.039372415405296
979,1179.000,47.150228554032765
980,1180.000,53.808220931831784
981,1181.000,65.30039229634303
982,1182.000,81.38069738714034
983,1183.000,97.27667193581783
984,1184.000,85.145001665976
985,1185.000,63.224449293208636
986,1186.000,45.49601852509045
987,1187.000,27.640734061162448
988,1188.000,29.391609592920076
989,1189.000,10.75226480379979
990,1190.000,-5.549559630834892
991,1191.000,-7.004427043706073
992,1192.000,-12.60612477563518
993,1193.000,-16.022574175554382
994,1194.000,-10.932576600522225
995,1195.000,-30.971222415735156
996,1196.000,-22.566653994541866
997,1197.000,-26.26447271845518
998,1198.000,-23.530200977165805
999,1199.000,-25.770166168557125
1000,1200.000,-21.991980698714997
1001,1201.000,-24.879369981944137
1002,1202.000,-26.8401474407799
1003,1203.000,-27.699345506001237
1004,1204.000,-20.742294616644813
1005,1205.000,-28.08431022001696
1006,1206.000,-22.235694771708495
1007,1207.000,-35.66916473560627
1008,1208.000,-38.10198558390766
1009,1209.000,-34.59865879713266
1010,1210.000,-28.242153864138345
1011,1211.000,-24.831362282130158
1012,1212.000,-41.61800755667787
1013,1213.000,-44.10247320172584
1014,1214.000,-28.097461739608434
1015,1215.000,-32.45190770106183
1016,1216.000,-47.58352162523829
1017,1217.000,-37.02174305971812
1018,1218.000,-28.88073256052394
1019,1219.000,-35.61482069213366
1020,1220.000,-38.320675027492825
1021,1221.000,-42.263514148029344
1022,1222.000,-39.60821964366528
1023,1223.000,-45.527196112831234
1024,1224.000,-31.140506162477095
1025,1225.000,-39.59165640808942
1026,1226.000,-30.203796473701004
1027,1227.000,-40.24170999190551
1028,1228.000,-35.146852603869775
1029,1229.000,-41.19951695934924
1030,1230.000,-27.030769716697932
1031,1231.000,-33.375805542884564
1032,1232.000,-23.733318113504083
1033,1233.000,-32.80813611279109
1034,1234.000,-34.66878023363347
1035,1235.000,-38.37906017758496
1036,1236.000,-37.6938486548795
1037,1237.000,-40.03982238444269
1038,1238.000,-28.487107093906616
1039,1239.000,-27.23888051962217
1040,1240.000,-34.105130406672515
1041,1241.000,-41.65885650888595
1042,1242.000,-29.443466588849788
1043,1243.000,-21.78030741792304
1044,1244.000,-25.673161776249117
1045,1245.000,-36.152663452770184
1046,1246.000,-38.05041424523961
1047,1247.000,-41.60077096023588
1048,1248.000,-36.89809541317413
1049,1249.000,-31.585734428321757
1050,1250.000,-29.52398083880871
1051,1251.000,-33.85605348664353
1052,1252.000,-33.9642712227253
1053,1253.000,-26.903331906856238
1054,1254.000,-34.92011540775616
1055,1255.000,-41.121026603073915
1056,1256.000,-46.07826137940265
1057,1257.000,-33.37893063229194
1058,1258.000,-35.73317526626056
1059,1259.000,-40.55299919481081
1060,1260.000,-38.95545034044062
1061,1261.000,-39.48190263465676
1062,1262.000,-42.76138101799074
1063,1263.000,-30.935437440006126
1064,1264.000,-26.53789485931884
1065,1265.000,-42.00272524360457
1066,1266.000,-29.437363569615172
1067,1267.000,-26.81732582319114
1068,1268.000,-47.42502399927457
1069,1269.000,-42.02534810192151
1070,1270.000,-26.332008144317342
1071,1271.000,-48.3455701487876
1072,1272.000,-37.75252814681335
1073,1273.000,-52.74452617904217
1074,1274.000,-43.12528829530311
1075,1275.000,-29.74175855461931
1076,1276.000,-38.149101025220716
1077,1277.000,-44.51794078455805
1078,1278.000,-30.92312691931511
1079,1279.000,-33.06233152542336
1080,1280.000,-42.0522847080731
1081,1281.000,-36.345555581729286
1082,1282.000,-36.150920270142024
1083,1283.000,-42.91485790636125
1084,1284.000,-40.87883063275012
1085,1285.000,-39.740513600997474
1086,1286.000,-23.948774972130877
1087,1287.000,-38.04961691653125
1088,1288.000,-37.46547161394437
1089,1289.000,-38.964863253494514
1090,1290.000,-39.28225803369901
1091,1291.000,-39.89537616247867
1092,1292.000,-20.815742857174655
1093,1293.000,-36.93493834455762
1094,1294.000,-42.379202860844316
1095,1295.000,-39.52481865170853
1096,1296.000,-34.139686972295976
1097,1297.000,-44.37064808723653
1098,1298.000,-27.120479270656915
1099,1299.000,-32.5586588061949
1100,1300.000,-26.190164987012395
1101,1301.000,-37.64804911580836
1102,1302.000,-41.647167504831486
1103,1303.000,-29.60589247589428
1104,1304.000,-43.11241336038643
1105,1305.000,-27.920703499286446
1106,1306.000,-42.87122124317716
1107,1307.000,-37.86661195225611
1108,1308.000,-43.44542199635157
1109,1309.000,-39.47738675493429
1110,1310.000,-39.41003461713012
1111,1311.000,-34.66518998173433
1112,1312.000,-42.27726325722483
1113,1313.000,-40.57237486177405
1114,1314.000,-40.686544223264264
1115,1315.000,-33.155697779298634
1116,1316.000,-29.163928977215164
1117,1317.000,-28.571376274100885
1118,1318.000,-43.180755136803555
1119,1319.000,-35.51126204194588
1120,1320.000,-39.024187475938106
1121,1321.000,-36.33425893499134
1122,1322.000,-28.831077925131467
1123,1323.000,-36.129704962211235
1124,1324.000,-37.647820571924285
1125,1325.000,-31.680471289817433
1126,1326.000,-32.18614366130464
1127,1327.000,-29.815982241680558
1128,1328.000,-39.997306596133285
1129,1329.000,-34.20275729975583
1130,1330.000,-24.429667937562726
1131,1331.000,-32.51091810450089
1132,1332.000,-23.848912405462897
1133,1333.000,-44.92875045530127
1134,1334.000,-42.946579878840566
1135,1335.000,-27.68415131089114
1136,1336.000,-43.93709539626275
1137,1337.000,-35.84017578977614
1138,1338.000,-43.855582156278615
1139,1339.000,-27.994606170655743
1140,1340.000,-40.38621451784343
1141,1341.000,-33.12776789284317
1142,1342.000,-42.62619300073629
1143,1343.000,-38.80565755669295
1144,1344.000,-31.485004285988452
1145,1345.000,-19.91734292401611
1146,1346.000,-27.659208216300385
1147,1347.000,-35.300636918509326
1148,1348.000,-31.238590796467633
1149,1349.000,-28.589617626171275
1150,1350.000,-33.1918591937997
1151,1351.000,-46.049817295729326
1152,1352.000,-22.19265473854557
1153,1353.000,-20.46241633905879
1154,1354.000,-40.220808924313815
1155,1355.000,-28.497810331606843
1156,1356.000,-28.487903408495185
1157,1357.000,-28.457253012813908
1158,1358.000,-28.81026001268583
1159,1359.000,-38.606210286537134
1160,1360.000,-29.25564672310793
1161,1361.000,-30.304418221470087
1162,1362.000,-42.232059691033555
1163,1363.000,-40.13486305156721
1164,1364.000,-24.783337233205657
1165,1365.000,-40.09321017646653
1166,1366.000,-40.932430832260934
1167,1367.000,-37.33953916190899
1168,1368.000,-34.47310613715126
1169,1369.000,-37.54352574016366
1170,1370.000,-36.85777296356832
1171,1371.000,-41.33758281044811
1172,1372.000,-30.729169294361554
1173,1373.000,-19.795809439352524
1174,1374.000,-28.334213279965297
1175,1375.000,-29.725586861258762
1176,1376.000,-29.27799523881754
1177,1377.000,-34.19435447876617
1178,1378.000,-27.670741657782628
1179,1379.000,-43.02704186311121
1180,1380.000,-29.49715119257553
1181,1381.000,-33.316404754591304
1182,1382.000,-24.393118668181387
1183,1383.000,-37.838713062986244
1184,1384.000,-32.08168707927962
1185,1385.000,-23.615331867980103
1186,1386.000,-35.0883715906657
1187,1387.000,-36.02951041958454
1188,1388.000,-34.435163537672
1189,1389.000,-28.191987138560307
1190,1390.000,-20.717775426593562
1191,1391.000,-36.19017061683962
1192,1392.000,-45.610922935105464
1193,1393.000,-30.713334617948476
1194,1394.000,-36.32659991268929
1195,1395.000,-24.91986207742775
1196,1396.000,-34.88788438105371
1197,1397.000,-38.18647710325922
1198,1398.000,-34.96231853455515
1199,1399.000,-33.29100697628178
1200,1400.000,-32.693070740622716
1201,1401.000,-33.194809150618994
1202,1402.000,-33.44559054017964
1203,1403.000,-28.816700254098123
1204,1404.000,-38.181340648063724
1205,1405.000,-35.34759308867524
1206,1406.000,-25.96719795345257
1207,1407.000,-27.012817630853533
1208,1408.000,-23.399329520282436
1209,1409.000,-30.79116403210878
1210,1410.000,-28.182551587674425
1211,1411.000,-23.37817661931126
1212,1412.000,-28.68444557035218
1213,1413.000,-21.453979895146176
1214,1414.000,-22.964750059068365
1215,1415.000,-39.93429253853719
1216,1416.000,-15.774067821024119
1217,1417.000,-30.934110405068395
1218,1418.000,-21.642793800291884
1219,1419.000,-18.042935527407735
1220,1420.000,-22.423376118238593
1221,1421.000,-31.571019115725903
1222,1422.000,-23.347363073947008
1223,1423.000,-18.399638558123115
1224,1424.000,-19.573338144638
1225,1425.000,-20.229617421047124
1226,1426.000,-10.48000598609292
1227,1427.000,-17.648016449717716
1228,1428.000,-8.383768433076284
1229,1429.000,-6.721116568549405
1230,1430.000,-3.7565274997571123
1231,1431.000,-7.263334881572064
1232,1432.000,-8.799300380131854
1233,1433.000,-6.081271672853518
1234,1434.000,-7.441505448446151
1235,1435.000,-2.4794794069237014
1236,1436.000,-1.1616812596178079
1237,1437.000,2.417526270807002
1238,1438.000,18.026318450341705
1239,1439.000,34.86987153362065
1240,1440.000,36.54157676390582
1241,1441.000,47.863282373074526
1242,1442.000,64.16673158160711
1243,1443.000,78.50745759857432
1244,1444.000,90.48870862162084
1245,1445.000,103.93275383695527
1246,1446.000,135.16303041933634
1247,1447.000,139.64603053205929
1248,1448.000,169.82274032694068
1249,1449.000,178.78057994430947
1250,1450.000,187.63666751299115
1251,1451.000,170.79916815029424
1252,1452.000,159.30860896199715
1253,1453.000,150.02427504233833
1254,1454.000,133.11748147399635
1255,1455.000,111.70852132808386
1256,1456.000,99.91460266413083
1257,1457.000,80.74353653007074
1258,1458.000,58.926067962228444
1259,1459.000,45.91931798530845
1260,1460.000,35.94603361237796
1261,1461.000,32.87571184485796
1262,1462.000,15.952708672507015
1263,1463.000,13.148213073408442
1264,1464.000,-3.9755579860402577
1265,1465.000,10.333182448855723
1266,1466.000,7.876926321077917
1267,1467.000,-6.158450438120781
1268,1468.000,-16.040891909227184
1269,1469.000,-6.268240184482238
1270,1470.000,2.925704632107454
1271,1471.000,-12.768516575247304
1272,1472.000,-16.467586934126302
1273,1473.000,-7.380428583918956
1274,1474.000,-25.000252675831916
1275,1475.000,-11.163798372906058
1276,1476.000,-9.680891850028502
1277,1477.000,-11.531385293944595
1278,1478.000,-28.197177903273314
1279,1479.000,-24.948827888518963
1280,1480.000,-17.192195472084677
1281,1481.000,-19.59770888828666
1282,1482.000,-14.378187383364548
1283,1483.000,-24.94968821549901
1284,1484.000,-21.696480654819197
1285,1485.000,-18.06277698342251
1286,1486.000,-27.71538449538275
1287,1487.000,-19.688553496764598
1288,1488.000,-30.49458130563835
1289,1489.000,-20.92284925209151
1290,1490.000,-17.538347678241507
1291,1491.000,-23.30947593825249
1292,1492.000,-24.733406398342595
1293,1493.000,-40.67662743680353
1294,1494.000,-27.64234444400722
1295,1495.000,-29.569021822426066
1296,1496.000,-22.52363098664
1297,1497.000,-34.26646836335294
1298,1498.000,-32.23610639140634
1299,1499.000,-30.326936521789094
1300,1500.000,-33.18761921765372
1301,1501.000,-25.675276954331366
1302,1502.000,-32.78033521933821
1303,1503.000,-38.568319512394964
1304,1504.000,-29.139980345438516
1305,1505.000,-22.260041242633406
1306,1506.000,-23.14691474038773
1307,1507.000,-31.117781387361447
1308,1508.000,-27.313499744486762
1309,1509.000,-27.406483384975218
1310,1510.000,-19.637830894333774
1311,1511.000,-32.4621508703774
1312,1512.000,-24.736927923242547
1313,1513.000,-29.70185767539874
1314,1514.000,-32.4088877616648
1315,1515.000,-20.254196829218472
1316,1516.000,-24.656759537614107
1317,1517.000,-37.097721558789544
1318,1518.000,-21.203542577086182
1319,1519.000,-24.8839632892566
1320,1520.000,-25.780920404482686
1321,1521.000,-28.914022644383294
1322,1522.000,-27.844822743032637
1323,1523.000,-21.626986446970704
1324,1524.000,-22.254897515215816
1325,1525.000,-22.701704719280542
1326,1526.000,-19.73736184318227
1327,1527.000,-13.834608683458328
1328,1528.000,-37.18962104917841
1329,1529.000,-29.16024676195616
1330,1530.000,-8.989790655964498
1331,1531.000,-32.256382577950035
1332,1532.000,-25.043327387242243
1333,1533.000,-34.656760955770096
1334,1534.000,-31.87920616807287
1335,1535.000,-30.94194092131579
1336,1536.000,-40.7047611253015
1337,1537.000,-38.431182702481465
1338,1538.000,-21.37946858797659
1339,1539.000,-22.79227772957961
1340,1540.000,-28.180924087777385
1341,1541.000,-24.29765163575962
1342,1542.000,-33.630551359431365
1343,1543.000,-28.940198257431348
1344,1544.000,-31.050814341138675
1345,1545.000,-18.686232634690214
1346,1546.000,-23.900233174992536
1347,1547.000,-13.368202011735548
1348,1548.000,-22.847797207404483
1349,1549.000,-22.120765837293902
1350,1550.000,-31.219649989523077
1351,1551.000,-27.55911776504422
1352,1552.000,-20.16233027765975
1353,1553.000,-32.44096065403414
1354,1554.000,-10.290736033707617
1355,1555.000,-19.574953569109084
1356,1556.000,-24.31910142556785
1357,1557.000,-24.694316781328325
1358,1558.000,-14.490896827565166
1359,1559.000,-9.179409768391906
1360,1560.000,-14.242826820878008
1361,1561.000,-11.68500421505928
1362,1562.000,-11.806299193954374
1363,1563.000,-14.560796013575327
1364,1564.000,-11.078757942940229
1365,1565.000,-11.671082264088682
1366,1566.000,-9.99533327209383
1367,1567.000,1.394146724923985
1368,1568.000,-10.165105594215447
1369,1569.000,6.109570436234662
1370,1570.000,-6.488559531064766
1371,1571.000,7.074630143446257
1372,1572.000,23.263226086214218
1373,1573.000,15.309121910561771
1374,1574.000,25.60139021667169
1375,1575.000,31.93070959157376
1376,1576.000,61.486617609131144
1377,1577.000,71.4941558300311
1378,1578.000,74.00646780176544
1379,1579.000,109.59514505862398
1380,1580.000,127.64405612167548
1381,1581.000,163.6711064987585
1382,1582.000,188.07610268446615
1383,1583.000,194.82688316013468
1384,1584.000,188.7095833938281
1385,1585.000,184.0099418403263
1386,1586.000,139.67937994111116
1387,1587.000,135.73499712435455
1388,1588.000,107.4386088049041
1389,1589.000,97.1357653842706
1390,1590.000,110.29062325061295
1391,1591.000,92.49488877872955
1392,1592.000,98.68312533003859
1393,1593.000,111.69908225257018
1394,1594.000,132.55974788095227
1395,1595.000,142.35743953639417
1396,1596.000,187.99105752667674
1397,1597.000,231.59309914613846
1398,1598.000,278.56892867566125
1399,1599.000,385.8207703826579
1400,1600.000,475.43122552106
1401,1601.000,563.1754083313037
1402,1602.000,602.500867040314
1403,1603.000,567.6121138614963
1404,1604.000,469.17739199472067
1405,1605.000,376.2768486263078
1406,1606.000,283.5933219290175
1407,1607.000,227.4848330620366
1408,1608.000,173.988162170961
1409,1609.000,132.83952038778762
1410,1610.000,96.61095483089798
1411,1611.000,71.73443960504756
1412,1612.000,57.46801680135036
1413,1613.000,57.96034849726698
1414,1614.000,37.191177756588786
1415,1615.000,18.03043362943049
1416,1616.000,18.246378152211037
1417,1617.000,15.925172347643866
1418,1618.000,16.10764022472108
1419,1619.000,8.472180778703887
1420,1620.000,1.3624979911053288
1421,1621.000,10.673773829679703
1422,1622.000,-0.18336775158877572
1423,1623.000,-4.193499812506843
1424,1624.000,-8.887962426675358
1425,1625.000,-8.044900681509944
1426,1626.000,-15.310896678251538
1427,1627.000,-20.83782253197751
1428,1628.000,-4.200075371620187
1429,1629.000,-7.1346343399736725
1430,1630.000,-12.628563593712443
1431,1631.000,-14.552008303401408
1432,1632.000,-12.441972653510447
1433,1633.000,-4.597742842426442
1434,1634.000,-30.77856308246737
1435,1635.000,-22.58740659989735
1436,1636.000,-20.081339634933784
1437,1637.000,-9.859280441767396
1438,1638.000,-19.906133288573074
1439,1639.000,-24.67747945752103
1440,1640.000,-26.78240924479178
1441,1641.000,-19.633270960589925
1442,1642.000,-28.13708692915543
1443,1643.000,-27.999394488779217
1444,1644.000,-27.686494991814698
1445,1645.000,-12.486058804690629
1446,1646.000,-13.611329307924734
1447,1647.000,-21.557337896139643
1448,1648.000,-15.242386978069817
1449,1649.000,-19.601824976583202
1450,1650.000,-24.821926328685322
1451,1651.000,-22.027595485539223
1452,1652.000,-20.52569991247674
1453,1653.000,-13.244894089009676
1454,1654.000,-32.70338550884571
1455,1655.000,-25.869310679902128
1456,1656.000,-24.262549124312272
1457,1657.000,-18.423863378451188
1458,1658.000,-17.77946299293444
1459,1659.000,-23.645577532643074
1460,1660.000,-26.89815257673149
1461,1661.000,-34.64193471863791
1462,1662.000,-43.08116156610504
1463,1663.000,-29.928342741187862
1464,1664.000,-27.860811880267192
1465,1665.000,-22.404091634064116
1466,1666.000,-21.158047667653364
1467,1667.000,-17.34013066047578
1468,1668.000,-8.643429306353028
1469,1669.000,-21.76021531349579
1470,1670.000,-23.948582404524814
1471,1671.000,-19.662124316477502
1472,1672.000,-25.462624800826006
1473,1673.000,-28.226286623483475
1474,1674.000,-25.965645564827582
1475,1675.000,-20.435617419703476
1476,1676.000,-28.88681399744314
1477,1677.000,-31.767739121875593
1478,1678.000,-32.909816631344256
1479,1679.000,-26.991559378714555
1480,1680.000,-20.849172231390185
1481,1681.000,-32.893341071326404
1482,1682.000,-25.193581795042974
1483,1683.000,-18.105106313636043
1484,1684.000,-29.3740515527943
1485,1685.000,-25.301946452807897
1486,1686.000,-19.541845968587268
1487,1687.000,-26.094410069668584
1488,1688.000,-27.269080740234813
1489,1689.000,-25.738300979125597
1490,1690.000,-28.92467279984885
1491,1691.000,-24.500989230596588
1492,1692.000,-27.68296231425552
1493,1693.000,-19.82152810842399
1494,1694.000,-24.057644685421337
1495,1695.000,-18.158832132302678
1496,1696.000,-24.010961550873617
1497,1697.000,-30.38404905770085
1498,1698.000,-22.558151784125585
1499,1699.000,-31.629782876279705
1500,1700.000,-18.981766495094462
1501,1701.000,-27.35492581631911
1502,1702.000,-23.636823030527694
1503,1703.000,-22.973683343137736
1504,1704.000,-17.158148974421465
1505,1705.000,-32.13220515951707
1506,1706.000,-22.085328148445114
1507,1707.000,-17.252634206120774
1508,1708.000,-20.33691961236468
1509,1709.000,-25.584391661919653
1510,1710.000,-24.679995664461785
1511,1711.000,-16.728944944613204
1512,1712.000,-12.913485841958163
1513,1713.000,-22.018309711052325
1514,1714.000,-22.561582921437093
1515,1715.000,-24.026609857656467
1516,1716.000,-25.03464891926592
1517,1717.000,-18.76528652084653
1518,1718.000,-21.365079092018277
1519,1719.000,-31.452238077455377
1520,1720.000,-21.721250936896695
1521,1721.000,-26.387041145159174
1522,1722.000,-23.04308419215272
1523,1723.000,-23.264899582892667
1524,1724.000,-13.838633837512361
1525,1725.000,-23.894401491276994
1526,1726.000,-17.858738094596447
1527,1727.000,-28.38267221303863
1528,1728.000,-21.13241942734294
1529,1729.000,-24.80198633343298
1530,1730.000,-26.763098542428907
1531,1731.000,-20.768880680664324
1532,1732.000,-21.586528389694422
1533,1733.000,-27.755153326312666
1534,1734.000,-32.243053162562774
1535,1735.000,-9.852055585750804
1536,1736.000,-36.58178929846326
1537,1737.000,-15.571608018570942
1538,1738.000,-16.26010447925364
1539,1739.000,-26.523546429003773
1540,1740.000,-29.13381763164375
1541,1741.000,-21.521234866340592
1542,1742.000,-26.415413927615646
1543,1743.000,-23.103461625359614
1544,1744.000,-17.882863784845085
1545,1745.000,-25.24856324674238
1546,1746.000,-27.051313867127874
1547,1747.000,-26.162845517501637
1548,1748.000,-32.670383084798004
1549,1749.000,-17.340838471400275
1550,1750.000,-21.9137615951513
1551,1751.000,-20.920538389371586
1552,1752.000,-15.138714802867526
1553,1753.000,-20.15205879994778
1554,1754.000,-23.230584360433568
1555,1755.000,-18.9331514796761
1556,1756.000,-17.96963316856477
1557,1757.000,-13.046456453544806
1558,1758.000,-15.19505237662679
1559,1759.000,-27.193426995403115
1560,1760.000,-10.088347383058363
1561,1761.000,-12.109626628384603
1562,1762.000,-12.174207835793595
1563,1763.000,-29.452780125330946
1564,1764.000,-23.6233796326851
1565,1765.000,-18.359387509208545
1566,1766.000,-17.245917921923365
1567,1767.000,-17.835606053539095
1568,1768.000,-19.63584510246187
1569,1769.000,-31.238610282813625
1570,1770.000,-17.278369824439096
1571,1771.000,-23.422427972921696
1572,1772.000,-21.92288998959839
1573,1773.000,-32.44867515156898
1574,1774.000,-19.05130675171199
1575,1775.000,-29.712300098699416
1576,1776.000,-25.353374517005022
1577,1777.000,-11.440569346921393
1578,1778.000,-13.996568944572573
1579,1779.000,-12.542412681925953
1580,1780.000,-19.190214946807373
1581,1781.000,-27.532246142911845
1582,1782.000,-13.912592689819803
1583,1783.000,-6.81978602300569
1584,1784.000,-18.877147593857217
1585,1785.000,-11.431927869684614
1586,1786.000,-15.300473333732953
1587,1787.000,-22.61691448519923
1588,1788.000,-6.223662839242024
1589,1789.000,-22.0955819269966
1590,1790.000,-21.23336729558673
1591,1791.000,-11.18508250814034
1592,1792.000,-32.94939414379837
1593,1793.000,-12.212992797733932
1594,1794.000,-19.30589208115839
1595,1795.000,-10.682051621342225
1596,1796.000,-23.559887061622476
1597,1797.000,-18.982032061417613
1598,1798.000,-14.890172296240507
1599,1799.000,-24.13072945771455
1600,1800.000,-9.310066253581681
1601,1801.000,-16.675687407718442
1602,1802.000,-19.898722660152544
1603,1803.000,-26.499196767068042
1604,1804.000,-15.303552500824708
1605,1805.000,-13.737222649970818
1606,1806.000,-5.647336019252407
1607,1807.000,-5.184362429632074
1608,1808.000,-4.003700718296841
1609,1809.000,-6.331732738674646
1610,1810.000,-13.028152360447166
1611,1811.000,-13.471676469561999
1612,1812.000,-6.020110968245945
1613,1813.000,-6.983668775018032
1614,1814.000,-27.58373282470552
1615,1815.000,-12.90153406845252
1616,1816.000,-10.368784473737378
1617,1817.000,-13.506665024380709
1618,1818.000,-9.03032172056669
1619,1819.000,-8.939450578848437
1620,1820.000,-14.443151632163563
1621,1821.000,-7.04604692985049
1622,1822.000,-14.883752537657074
1623,1823.000,-23.70066953775654
1624,1824.000,-10.082555028759998
1625,1825.000,-15.499516125730224
1626,1826.000,-7.993778960194959
1627,1827.000,-12.07835368015526
1628,1828.000,-7.650384450108504
1629,1829.000,-16.249998451053443
1630,1830.000,-6.679184880504863
1631,1831.000,-0.6647089525094998
1632,1832.000,-9.58182789765624
1633,1833.000,-9.803744963091503
1634,1834.000,-19.444913412532742
1635,1835.000,0.9689344737228112
1636,1836.000,-13.755093601220779
1637,1837.000,-6.168865950869758
1638,1838.000,-7.438245905350868
1639,1839.000,-5.3966818114258785
1640,1840.000,-5.09920103250829
1641,1841.000,-10.360298948673744
1642,1842.000,-16.362934956671552
1643,1843.000,-8.308591469940438
1644,1844.000,-9.04068391861938
1645,1845.000,-11.081173749566005
1646,1846.000,-12.350063426362794
1647,1847.000,-20.783179429334723
1648,1848.000,-2.124741255561503
1649,1849.000,-23.16819541889072
1650,1850.000,-8.344250449950778
1651,1851.000,-4.306485896164986
1652,1852.000,-5.112273321761677
1653,1853.000,-15.879254307792962
1654,1854.000,-5.768121452142623
1655,1855.000,-12.766425369541366
1656,1856.000,-3.3382186915798684
1657,1857.000,-9.687921066724812
1658,1858.000,-9.914440160325512
1659,1859.000,-13.81123165463464
1660,1860.000,-12.627441248814876
1661,1861.000,-13.293359658955524
1662,1862.000,1.5467413819121703
1663,1863.000,-5.818234876194083
1664,1864.000,-11.547405200218918
1665,1865.000,-2.4529723740906775
1666,1866.000,-11.198120198726656
1667,1867.000,-4.460273492053602
1668,1868.000,-1.7125140890109378
1669,1869.000,-7.455694841572722
1670,1870.000,-3.6224196187595226
1671,1871.000,-3.4109423066468025
1672,1872.000,-11.47670280838338
1673,1873.000,-1.7177510442018047
1674,1874.000,-13.044756951432873
1675,1875.000,-10.108826484516385
1676,1876.000,-3.7859656150194496
1677,1877.000,-3.3360503316419
1678,1878.000,-2.923939640239041
1679,1879.000,-4.617087563825635
1680,1880.000,-13.65651714259684
1681,1881.000,1.2108445660660436
1682,1882.000,-11.845436512424385
1683,1883.000,-12.99562146987114
1684,1884.000,6.3254355846936505
1685,1885.000,-7.409341475005249
1686,1886.000,-10.019987792500615
1687,1887.000,-13.673013528591127
1688,1888.000,0.17794513864009787
1689,1889.000,-13.0683299861862
1690,1890.000,-9.514908115756725
1691,1891.000,-1.9871644800807644
1692,1892.000,-13.925727326501828
1693,1893.000,11.086993080285993
1694,1894.000,-5.945683541770904
1695,1895.000,-1.7731684921013766
1696,1896.000,1.9674369124786608
1697,1897.000,-2.6673406622503535
1698,1898.000,-0.9752565679200416
1699,1899.000,-6.314997173591337
1700,1900.000,7.471973134236805
1701,1901.000,-2.9394210483910683
1702,1902.000,9.610176857105216
1703,1903.000,5.15076341182089
1704,1904.000,5.172129159362612
1705,1905.000,-5.486333374172773
1706,1906.000,-2.5293706802069664
1707,1907.000,-10.54270026769359
1708,1908.000,7.339148336864582
1709,1909.000,-10.41109441059325
1710,1910.000,-2.83668607169966
1711,1911.000,4.668629774324472
1712,1912.000,-12.828069469337379
1713,1913.000,3.8392125828834196
1714,1914.000,-9.437997701069207
1715,1915.000,0.017722029110927906
1716,1916.000,0.6104021060764353
1717,1917.000,3.2590608448160765
1718,1918.000,1.1721775426403838
1719,1919.000,-1.7004115208328585
1720,1920.000,2.3926459163112668
1721,1921.000,11.05043609827112
1722,1922.000,-5.828369748491468
1723,1923.000,1.7797345847477573
1724,1924.000,0.4247152889515746
1725,1925.000,5.1816195373121445
1726,1926.000,-4.753992514759375
1727,1927.000,-8.539292729650697
1728,1928.000,11.035079012440065
1729,1929.000,2.166329813491757
1730,1930.000,3.6578967576490413
1731,1931.000,25.230074911201427
1732,1932.000,3.8323273225807952
1733,1933.000,14.670096022339749
1734,1934.000,6.45449802314306
1735,1935.000,-6.624913680247801
1736,1936.000,-0.8972751109868113
1737,1937.000,6.9531346898440916
1738,1938.000,5.572499663219105
1739,1939.000,11.748763732157386
1740,1940.000,6.177861801711288
1741,1941.000,1.265877758949955
1742,1942.000,-0.8102275270523478
1743,1943.000,3.165171794770913
1744,1944.000,10.124017557465777
1745,1945.000,13.346417576041858
1746,1946.000,21.17698164746298
1747,1947.000,6.426536550631681
1748,1948.000,4.343611046375827
1749,1949.000,-5.465228122563985
1750,1950.000,-2.881157231547377
1751,1951.000,-0.23557157404820828
1752,1952.000,6.030484538336395
1753,1953.000,16.228878775863677
1754,1954.000,10.08259479064077
1755,1955.000,4.18834721660869
1756,1956.000,14.69660066952838
1757,1957.000,4.570499746966789
1758,1958.000,5.068606028285558
1759,1959.000,4.060609074628701
1760,1960.000,4.841834428905713
1761,1961.000,11.639277615780884
1762,1962.000,2.396422141660878
1763,1963.000,10.37240749467901
1764,1964.000,2.2828361446847794
1765,1965.000,2.7063125432271136
1766,1966.000,5.112945123546751
1767,1967.000,4.239053300556861
1768,1968.000,12.574033470832092
1769,1969.000,14.69881301259943
1770,1970.000,6.384714285718019
1771,1971.000,8.615876631673018
1772,1972.000,1.7588503735530594
1773,1973.000,6.395309816051167
1774,1974.000,7.375474245435498
1775,1975.000,17.809915929546833
1776,1976.000,11.968143117784166
1777,1977.000,8.415377041088277
1778,1978.000,11.764049911928169
1779,1979.000,18.07036092429371
1780,1980.000,12.38025625367436
1781,1981.000,17.13365805705439
1782,1982.000,11.222599472890124
1783,1983.000,16.446133621109084
1784,1984.000,12.803119603081086
1785,1985.000,14.592916501620493
1786,1986.000,7.021897380965129
1787,1987.000,24.055405286760333
1788,1988.000,19.65918724605308
1789,1989.000,9.2164032672747
1790,1990.000,10.046784340229806
1791,1991.000,7.650471436076714
1792,1992.000,7.425769507324276
1793,1993.000,12.060399487809718
1794,1994.000,13.738276292693172
1795,1995.000,2.3414958184364423
1796,1996.000,17.177265942796566
1797,1997.000,19.491149524809316
1798,1998.000,13.354480404776723
1799,1999.000,12.799849404253564
1800,2000.000,16.805857326034584
