pixel_index,raman_shift_cm-1,intensity
0,200.000,0.01818849959949365
1,201.000,0.013743679066504071
2,202.000,0.011367045246833416
3,203.000,0.01847945467876125
4,204.000,0.022812669390398395
5,205.000,0.020951257921267372
6,206.000,0.02253527172264638
7,207.000,0.0119004362348703
8,208.000,0.02821737811710382
9,209.000,0.017977709283198105
10,210.000,0.026963861360568254
11,211.000,0.019123198110981274
12,212.000,0.018931949040127072
13,213.000,0.016627212347019464
14,214.000,0.034173564074092506
15,215.000,0.02665484330359571
16,216.000,0.028766861382315753
17,217.000,0.013069696577210644
18,218.000,0.022349289162357327
19,219.000,0.019767751924727614
20,220.000,0.026574306307960847
21,221.000,0.019889147271240623
22,222.000,0.01811564959608806
23,223.000,0.023365592899673587
24,224.000,0.021312734611086247
25,225.000,0.02580314492106634
26,226.000,0.01822103021389744
27,227.000,0.02412213155292641
28,228.000,0.019676380438279822
29,229.000,0.022338580687810448
30,230.000,0.018969561987476395
31,231.000,0.022579405527086028
32,232.000,0.023033973340706382
33,233.000,0.020598218505138734
34,234.000,0.030271128213112463
35,235.000,0.016291307265650545
36,236.000,0.01884157792896057
37,237.000,0.017918285828262583
38,238.000,0.028045189491168177
39,239.000,0.02648151374577433
40,240.000,0.022023944244083694
41,241.000,0.017440318732747855
42,242.000,0.02105651640023427
43,243.000,0.021870168533330268
44,244.000,0.0212713702564321
45,245.000,0.030157445062081935
46,246.000,0.01879123443067215
47,247.000,0.017397841557528864
48,248.000,0.02587502072179975
49,249.000,0.02267795412456352
50,250.000,0.018813569359796313
51,251.000,0.02189727850958197
52,252.000,0.02091132918269034
53,253.000,0.025183229226045267
54,254.000,0.022513393360147686
55,255.000,0.023424341682907777
56,256.000,0.02436814729300751
57,257.000,0.02162330557619893
58,258.000,0.015513163608260777
59,259.000,0.016880662077441832
60,260.000,0.022193635809239696
61,261.000,0.019599859484108504
62,262.000,0.02804525152994531
63,263.000,0.019792843702010673
64,264.000,0.019273150682093815
65,265.000,0.02494754003428932
66,266.000,0.01957233947031418
67,267.000,0.01842810498905619
68,268.000,0.019318280984391183
69,269.000,0.02647449076233157
70,270.000,0.017636934157824156
71,271.000,0.021282430607168036
72,272.000,0.010301297573497183
73,273.000,0.02649946815561929
74,274.000,0.022520149770719946
75,275.000,0.014347640132886866
76,276.000,0.022114163166375045
77,277.000,0.016492108369471608
78,278.000,0.024921914141909366
79,279.000,0.03176776621303347
80,280.000,0.02526242657183639
81,281.000,0.031352974949114994
82,282.000,0.01622841351661908
83,283.000,0.02196611731830348
84,284.000,0.020750060350886185
85,285.000,0.00836905333057332
86,286.000,0.014895374680068327
87,287.000,0.016400892949322544
88,288.000,0.025953515284568646
89,289.000,0.02434140470263915
90,290.000,0.017911229886719473
91,291.000,0.021425483303036195
92,292.000,0.02353481432722162
93,293.000,0.02264678836325668
94,294.000,0.024314683438100428
95,295.000,0.02754295844830278
96,296.000,0.017058786069508603
97,297.000,0.018479933540572254
98,298.000,0.01990846168740307
99,299.000,0.025522693782252255
100,300.000,0.015001708174720253
101,301.000,0.028462763775854653
102,302.000,0.023798624533425378
103,303.000,0.02381144038768303
104,304.000,0.023777684507430844
105,305.000,0.018366693385184697
106,306.000,0.0235665074181341
107,307.000,0.01127056525483099
108,308.000,0.022424402611772417
109,309.000,0.01795590556110315
110,310.000,0.016837766140477186
111,311.000,0.017290679263588665
112,312.000,0.0207020433067403
113,313.000,0.019864382166893412
114,314.000,0.026615025071590446
115,315.000,0.01416245147507395
116,316.000,0.014860909231302668
117,317.000,0.0199418928334312
118,318.000,0.025274770349774284
119,319.000,0.015173154274042077
120,320.000,0.015982730265609185
121,321.000,0.024142911635198654
122,322.000,0.018389380190497916
123,323.000,0.02130054980751476
124,324.000,0.02041063166084723
125,325.000,0.016878912390055473
126,326.000,0.023680882689272032
127,327.000,0.03622935563361121
128,328.000,0.012116679178062395
129,329.000,0.033228102804128
130,330.000,0.024195600005391556
131,331.000,0.022549064687643894
132,332.000,0.02919065505440992
133,333.000,0.027759099609126137
134,334.000,0.0
135,335.000,0.029788601267478388
136,336.000,0.006702032614744802
137,337.000,0.011776451738767834
138,338.000,0.013160198551422664
139,339.000,0.015371507754234025
140,340.000,0.02511499529540081
141,341.000,0.0307627816444765
142,342.000,0.016148416452216468
143,343.000,0.017467270703989044
144,344.000,0.024315957171743462
145,345.000,0.02139397051231976
146,346.000,0.020150042624274975
147,347.000,0.02102608444133822
148,348.000,0.03198972738663672
149,349.000,0.022476720688014304
150,350.000,0.027667793069523158
151,351.000,0.01981436728025263
152,352.000,0.02870783536329624
153,353.000,0.032756958035386245
154,354.000,0.028597362718982403
155,355.000,0.021794613057628098
156,356.000,0.016313302920212255
157,357.000,0.018278839691271587
158,358.000,0.010596776636716106
159,359.000,0.03205312810880008
160,360.000,0.020933314174337234
161,361.000,0.0075013838403555
162,362.000,0.021574308513245505
163,363.000,0.014042577047956618
164,364.000,0.020983597572560297
165,365.000,0.02059851415868601
166,366.000,0.020501653209817748
167,367.000,0.014262240848094123
168,368.000,0.025247214469811933
169,369.000,0.019774301862494723
170,370.000,0.02207914421539464
171,371.000,0.023019847886637666
172,372.000,0.01244078235143745
173,373.000,0.01803747104334019
174,374.000,0.019482357070860656
175,375.000,0.016652205250001464
176,376.000,0.025141999611860207
177,377.000,0.021207114562371367
178,378.000,0.020038727609690363
179,379.000,0.02035639716800543
180,380.000,0.018183672207147904
181,381.000,0.01992453360810437
182,382.000,0.027022135159415008
183,383.000,0.024419122811337977
184,384.000,0.012807372393590423
185,385.000,0.023418065103502417
186,386.000,0.029803618528968404
187,387.000,0.020126330240427256
188,388.000,0.022891533277762423
189,389.000,0.020848383088440673
190,390.000,0.027964670913295277
191,391.000,0.021625925745176952
192,392.000,0.02370322634259923
193,393.000,0.018446163119981672
194,394.000,0.01927850831211288
195,395.000,0.019583707106868107
196,396.000,0.015163450052200057
197,397.000,0.018602134421832114
198,398.000,0.019327103092370828
199,399.000,0.01678806144772207
200,400.000,0.010738198875972712
201,401.000,0.019534354290302054
202,402.000,0.02287969744231231
203,403.000,0.016862419768896734
204,404.000,0.018958435720539756
205,405.000,0.02747872601878347
206,406.000,0.0184112856949616
207,407.000,0.02097785316954004
208,408.000,0.02421435025642444
209,409.000,0.014814133932055355
210,410.000,0.02518625846321002
211,411.000,0.023730072654048112
212,412.000,0.013178262498483504
213,413.000,0.021371738334920225
214,414.000,0.01989802657121794
215,415.000,0.029791497702885833
216,416.000,0.018123717545183167
217,417.000,0.01433258409716114
218,418.000,0.02632759263163699
219,419.000,0.016299456640640638
220,420.000,0.015867035701101262
221,421.000,0.01970601267856438
222,422.000,0.02373057865782411
223,423.000,0.024333562613467044
224,424.000,0.017332988740238215
225,425.000,0.018698017290604625
226,426.000,0.023421385147434984
227,427.000,0.0211567642785917
228,428.000,0.019351078171665474
229,429.000,0.028756056941535494
230,430.000,0.016282205983173797
231,431.000,0.019715465837230186
232,432.000,0.017527333933813765
233,433.000,0.027879956963118686
234,434.000,0.02542279971879567
235,435.000,0.03293036708039083
236,436.000,0.02405333733457596
237,437.000,0.026267635061604577
238,438.000,0.016552028134624204
239,439.000,0.014832785308787181
240,440.000,0.024242650601712403
241,441.000,0.017583001134665
242,442.000,0.029263466283579804
243,443.000,0.026311164957323066
244,444.000,0.022125532741640756
245,445.000,0.018608222946194287
246,446.000,0.02050843288493143
247,447.000,0.014597309375327628
248,448.000,0.011344019166957745
249,449.000,0.023878949240119733
250,450.000,0.01914671371558277
251,451.000,0.02352102233158
252,452.000,0.010996776499067568
253,453.000,0.02464718220286233
254,454.000,0.014898684061086074
255,455.000,0.02767353456447574
256,456.000,0.032548010464642764
257,457.000,0.024506204897960484
258,458.000,0.023916974163723462
259,459.000,0.023242106652499983
260,460.000,0.023852264811104935
261,461.000,0.015288938988648025
262,462.000,0.020432179472986502
263,463.000,0.024068074452212984
264,464.000,0.023774435226478444
265,465.000,0.02067705621989365
266,466.000,0.02466173320416795
267,467.000,0.02210238646163439
268,468.000,0.013846814656065914
269,469.000,0.034654198837023996
270,470.000,0.0265078821647681
271,471.000,0.0212573087798523
272,472.000,0.018164289936072966
273,473.000,0.023490892811722477
274,474.000,0.015540325929730684
275,475.000,0.01688230707439178
276,476.000,0.03672296425581086
277,477.000,0.0232961647225693
278,478.000,0.022288523149510384
279,479.000,0.015595924306313536
280,480.000,0.020396951141133268
281,481.000,0.024548660747349835
282,482.000,0.017232158278989263
283,483.000,0.029622980997071814
284,484.000,0.015541025804685226
285,485.000,0.02313604070007445
286,486.000,0.028072652312964828
287,487.000,0.01689694822579542
288,488.000,0.016945381123619287
289,489.000,0.022777648500706203
290,490.000,0.019239500461633932
291,491.000,0.02694050085290959
292,492.000,0.02118032835098783
293,493.000,0.021077102611327968
294,494.000,0.014550565095468882
295,495.000,0.012380320716340822
296,496.000,0.029995803997614975
297,497.000,0.022915160358291577
298,498.000,0.03525716728297264
299,499.000,0.022975206139710228
300,500.000,0.0270780747492721
301,501.000,0.02519319420462243
302,502.000,0.026048468541040037
303,503.000,0.014380914243260375
304,504.000,0.014554426039989583
305,505.000,0.035086512178059276
306,506.000,0.013775441951040829
307,507.000,0.009803525567738298
308,508.000,0.027029834753270886
309,509.000,0.03310236474321561
310,510.000,0.02497958790945853
311,511.000,0.022788365699456123
312,512.000,0.016654646088139335
313,513.000,0.029722384566446682
314,514.000,0.020096819169629288
315,515.000,0.022707423513058104
316,516.000,0.017439281521942646
317,517.000,0.02006725187618954
318,518.000,0.017947118349935644
319,519.000,0.029239980729010982
320,520.000,0.024738799905706876
321,521.000,0.022256193191776383
322,522.000,0.015476069266314056
323,523.000,0.017316713254799446
324,524.000,0.015823544579618487
325,525.000,0.01939760143838068
326,526.000,0.022749100969665603
327,527.000,0.025617036344511235
328,528.000,0.02814235675649854
329,529.000,0.017269050994910294
330,530.000,0.021659166897450108
331,531.000,0.026154298939983642
332,532.000,0.013729971404825117
333,533.000,0.017422062853220264
334,534.000,0.025777792387048144
335,535.000,0.010031455065573026
336,536.000,0.03009996322699953
337,537.000,0.017956025761233847
338,538.000,0.013399307630768135
339,539.000,0.011717754331395956
340,540.000,0.01559605516935905
341,541.000,0.015221156777849574
342,542.000,0.020118139183133772
343,543.000,0.021221319503623284
344,544.000,0.009342044307891066
345,545.000,0.014840727241616235
346,546.000,0.025131244608230477
347,547.000,0.03638855295187263
348,548.000,0.0354921498142828
349,549.000,0.027378560535676923
350,550.000,0.017892685139135844
351,551.000,0.023114476408884997
352,552.000,0.023702833753462677
353,553.000,0.023346505312790037
354,554.000,0.027500702286227325
355,555.000,0.02003021666495228
356,556.000,0.019939376385533697
357,557.000,0.02033480767356277
358,558.000,0.025513669078891032
359,559.000,0.012305400168748381
360,560.000,0.022835405632862148
361,561.000,0.018223296567974622
362,562.000,0.03462134639646382
363,563.000,0.019755739666505026
364,564.000,0.026663581077612682
365,565.000,0.022382681534149747
366,566.000,0.016154763794601998
367,567.000,0.01730483961446952
368,568.000,0.0067884458458013315
369,569.000,0.02984182859954765
370,570.000,0.02414750444341836
371,571.000,0.01867014830868892
372,572.000,0.024157425800980348
373,573.000,0.02887280810396648
374,574.000,0.030662285611010535
375,575.000,0.027465612572266755
376,576.000,0.021960230419966992
377,577.000,0.02621110513400882
378,578.000,0.03286051917218499
379,579.000,0.024855071236970963
380,580.000,0.029245448865601813
381,581.000,0.028770550750843442
382,582.000,0.021895233168648328
383,583.000,0.028389628781816605
384,584.000,0.018477051645503197
385,585.000,0.017911490643454615
386,586.000,0.03002202410515716
387,587.000,0.02298201004872123
388,588.000,0.03295556936424566
389,589.000,0.03234071273762869
390,590.000,0.026141518951894024
391,591.000,0.02770019282088143
392,592.000,0.01981862275262167
393,593.000,0.02568014819861856
394,594.000,0.03130280496553138
395,595.000,0.025434699531734703
396,596.000,0.021801913276856173
397,597.000,0.02637408100154006
398,598.000,0.026177080742174348
399,599.000,0.019906463844908174
400,600.000,0.032438488758459685
401,601.000,0.03290907517820724
402,602.000,0.03250063319538607
403,603.000,0.040263311763403725
404,604.000,0.032810184398099615
405,605.000,0.03202862860796747
406,606.000,0.03833200391827223
407,607.000,0.04058149798840961
408,608.000,0.03909048709944585
409,609.000,0.0387838265160044
410,610.000,0.05938591953664633
411,611.000,0.05218142420297777
412,612.000,0.06816985718930384
413,613.000,0.06828745944620863
414,614.000,0.07696740847611867
415,615.000,0.10331873578678892
416,616.000,0.11708654890695404
417,617.000,0.13856528183724504
418,618.000,0.16169214079830366
419,619.000,0.19097992434380817
420,620.000,0.20231609075867904
421,621.000,0.18299331777908096
422,622.000,0.16399065810400354
423,623.000,0.13510073117497162
424,624.000,0.11913110466232023
425,625.000,0.100997023733288
426,626.000,0.0871348816218464
427,627.000,0.07552805940945743
428,628.000,0.07071714417517605
429,629.000,0.050876974579771014
430,630.000,0.04330861891014338
431,631.000,0.04683633474109819
432,632.000,0.0411997609316336
433,633.000,0.0383464686469034
434,634.000,0.036893240342570174
435,635.000,0.039929165093624194
436,636.000,0.03161841367321852
437,637.000,0.02833414672794088
438,638.000,0.0338387078357995
439,639.000,0.03602592272854142
440,640.000,0.03035780317026003
441,641.000,0.03192982894731376
442,642.000,0.03014287176559078
443,643.000,0.025025503390029003
444,644.000,0.02287114772333852
445,645.000,0.02523061618886089
446,646.000,0.02685328111775032
447,647.000,0.038112933363941066
448,648.000,0.017469747408294944
449,649.000,0.022704933237769703
450,650.000,0.031072246574515593
451,651.000,0.03063053048132092
452,652.000,0.03056406756389246
453,653.000,0.028624037454438273
454,654.000,0.024349738255248863
455,655.000,0.020938193911901184
456,656.000,0.01865468417413236
457,657.000,0.0384029375050779
458,658.000,0.02182342037604795
459,659.000,0.015264010063154943
460,660.000,0.0198641437053438
461,661.000,0.024797939339365832
462,662.000,0.03229247758840694
463,663.000,0.026550839171153987
464,664.000,0.013438159414948353
465,665.000,0.02406713611570883
466,666.000,0.02349656063562721
467,667.000,0.023295568568695278
468,668.000,0.031232249427523857
469,669.000,0.025423977486205326
470,670.000,0.025196062528708988
471,671.000,0.011277528138208398
472,672.000,0.02489933493510024
473,673.000,0.016962216896764047
474,674.000,0.02134100296762975
475,675.000,0.02586512747555865
476,676.000,0.03503057258820219
477,677.000,0.019650547103738834
478,678.000,0.018457792482626634
479,679.000,0.025539909542906962
480,680.000,0.013990333612118473
481,681.000,0.025381763975789152
482,682.000,0.024746155378220835
483,683.000,0.019977018413559804
484,684.000,0.02432723853562294
485,685.000,0.025265137860268325
486,686.000,0.0264249401971634
487,687.000,0.023038731908783742
488,688.000,0.02633723287599009
489,689.000,0.0250408027340838
490,690.000,0.026083752126179156
491,691.000,0.02204049599595189
492,692.000,0.016741748531235584
493,693.000,0.01849639320363064
494,694.000,0.01900355148249873
495,695.000,0.017749935851662103
496,696.000,0.030202371799641834
497,697.000,0.03290878534079531
498,698.000,0.02733121816323237
499,699.000,0.024827167358243127
500,700.000,0.022197496753760402
501,701.000,0.008542000962172966
502,702.000,0.01395183661219499
503,703.000,0.01910392053034275
504,704.000,0.023883139765643963
505,705.000,0.01885760816735848
506,706.000,0.024340024339847915
507,707.000,0.03414603727480694
508,708.000,0.021516431180958865
509,709.000,0.013652719556310686
510,710.000,0.01843960251929974
511,711.000,0.013221077978909056
512,712.000,0.030236943877555694
513,713.000,0.018225632715676076
514,714.000,0.033318479731429866
515,715.000,0.02459684258199749
516,716.000,0.020094958006315264
517,717.000,0.027358761441568114
518,718.000,0.014955664739171945
519,719.000,0.02570851930688669
520,720.000,0.023160974472346992
521,721.000,0.029698836003744834
522,722.000,0.023795059242451955
523,723.000,0.022754212383287915
524,724.000,0.024181478428746413
525,725.000,0.018459861088101697
526,726.000,0.016336896073285166
527,727.000,0.027099734037339035
528,728.000,0.015359965633619407
529,729.000,0.034553411996790205
530,730.000,0.022820306945477136
531,731.000,0.020323651356593458
532,732.000,0.023306175260873422
533,733.000,0.01706222631357187
534,734.000,0.02111435301957341
535,735.000,0.021911955527153644
536,736.000,0.023908985701811554
537,737.000,0.02895210917083812
538,738.000,0.02470816438207335
539,739.000,0.014506650365460986
540,740.000,0.0195524036970245
541,741.000,0.015730830535259276
542,742.000,0.019148988793862984
543,743.000,0.01872028630352808
544,744.000,0.03225756720528652
545,745.000,0.03606073617607256
546,746.000,0.017626469960962246
547,747.000,0.02683418674537552
548,748.000,0.03937613107777724
549,749.000,0.013540952821880064
550,750.000,0.010469770658296032
551,751.000,0.013151710871226008
552,752.000,0.025999298932737707
553,753.000,0.015018922966019069
554,754.000,0.01895826705261442
555,755.000,0.021313032203345312
556,756.000,0.016964272900612507
557,757.000,0.028425322404498344
558,758.000,0.025126207835011904
559,759.000,0.02768889497795178
560,760.000,0.030296880121758466
561,761.000,0.03255075955795452
562,762.000,0.02105599488676399
563,763.000,0.03394731834744343
564,764.000,0.022990602419354304
565,765.000,0.023652239191998048
566,766.000,0.025940543364012268
567,767.000,0.025964824759769013
568,768.000,0.03793800339954081
569,769.000,0.03450427146916466
570,770.000,0.01863050068332078
571,771.000,0.03350387777011561
572,772.000,0.026294123680729045
573,773.000,0.02262316516015109
574,774.000,0.018815795000926002
575,775.000,0.031090436537842485
576,776.000,0.03071341331821616
577,777.000,0.03690587783534357
578,778.000,0.03787619823717687
579,779.000,0.03922229914438202
580,780.000,0.03874056222380052
581,781.000,0.03593987882208002
582,782.000,0.03778757293597315
583,783.000,0.04051168109959235
584,784.000,0.03238253365890831
585,785.000,0.04829892411528741
586,786.000,0.05918777834539488
587,787.000,0.06067926421874609
588,788.000,0.05775115413814807
589,789.000,0.0638415270620101
590,790.000,0.08429477451596898
591,791.000,0.09257844019402026
592,792.000,0.08663580195498823
593,793.000,0.10948273226005892
594,794.000,0.11511246726370039
595,795.000,0.11105210975681376
596,796.000,0.11171945312759794
597,797.000,0.11284155527511334
598,798.000,0.09046824450437853
599,799.000,0.08416919058264352
600,800.000,0.08169477686471831
601,801.000,0.06755497729814544
602,802.000,0.07155456006798208
603,803.000,0.05909838143690057
604,804.000,0.05715546458559786
605,805.000,0.04143616453868249
606,806.000,0.04538185402895158
607,807.000,0.05003288273293182
608,808.000,0.04260757782046056
609,809.000,0.04248034404340569
610,810.000,0.044072894962131896
611,811.000,0.024052746996837297
612,812.000,0.03018061072920616
613,813.000,0.03218616445022876
614,814.000,0.03340753639600584
615,815.000,0.03528273404464313
616,816.000,0.0269848004172069
617,817.000,0.024818107758069766
618,818.000,0.025517254726338204
619,819.000,0.021788596265601985
620,820.000,0.033037156172312336
621,821.000,0.028716407377455563
622,822.000,0.01797823176602428
623,823.000,0.025760194700171702
624,824.000,0.024560653618454567
625,825.000,0.02541364124432125
626,826.000,0.028207444157915228
627,827.000,0.029066651171189603
628,828.000,0.023893724162636572
629,829.000,0.02456452813395777
630,830.000,0.024562330604148974
631,831.000,0.02277104621772089
632,832.000,0.019465276050675037
633,833.000,0.018663300778662746
634,834.000,0.02582855755514989
635,835.000,0.02270262520138914
636,836.000,0.016798803849725197
637,837.000,0.026251430339145978
638,838.000,0.025909213781559557
639,839.000,0.029826313089128767
640,840.000,0.019097932818993416
641,841.000,0.02291148843816996
642,842.000,0.014833606353228314
643,843.000,0.011416053942057556
644,844.000,0.03173148709939253
645,845.000,0.01899321524061466
646,846.000,0.02404956944822096
647,847.000,0.019934669193318648
648,848.000,0.020650186643903348
649,849.000,0.013118310744586447
650,850.000,0.02664702544832092
651,851.000,0.024253920333321168
652,852.000,0.025592884842444118
653,853.000,0.026892558449167443
654,854.000,0.02378842109329861
655,855.000,0.020293433625349695
656,856.000,0.027410467854241696
657,857.000,0.017473307852488906
658,858.000,0.023387985990151315
659,859.000,0.014944235063840882
660,860.000,0.024454140792962493
661,861.000,0.02277841913864092
662,862.000,0.026667045555573265
663,863.000,0.025736483285679877
664,864.000,0.019265545115759536
665,865.000,0.021287300651173062
666,866.000,0.018254082341771515
667,867.000,0.04002811694315306
668,868.000,0.020302389504442537
669,869.000,0.01929579968252722
670,870.000,0.02233710532814173
671,871.000,0.021798874346132494
672,872.000,0.020318603920460063
673,873.000,0.013338468916229237
674,874.000,0.024294673024407007
675,875.000,0.03740151725813847
676,876.000,0.022318965771321257
677,877.000,0.030148952535105814
678,878.000,0.012337083566101937
679,879.000,0.00949604297049982
680,880.000,0.034059810160081805
681,881.000,0.01209657085942381
682,882.000,0.024778298250267537
683,883.000,0.01987494814612406
684,884.000,0.023262568786039408
685,885.000,0.01958711439283102
686,886.000,0.02487637283271349
687,887.000,0.01786195364926894
688,888.000,0.027386231048856017
689,889.000,0.023806856303666357
690,890.000,0.030191026458273436
691,891.000,0.023172928569216017
692,892.000,0.028909746379614472
693,893.000,0.01680600034787275
694,894.000,0.014389698546360205
695,895.000,0.022515532728602922
696,896.000,0.014958030936906074
697,897.000,0.03246009667066431
698,898.000,0.02642506815214124
699,899.000,0.02149773036707651
700,900.000,0.026368787349009916
701,901.000,0.010814411574970147
702,902.000,0.013205584763675709
703,903.000,0.023484817858342798
704,904.000,0.023811676910520854
705,905.000,0.02509100664512367
706,906.000,0.01636911746315918
707,907.000,0.021707756830928595
708,908.000,0.01285284487851792
709,909.000,0.0204146292845488
710,910.000,0.026802844561296203
711,911.000,0.0279791550290443
712,912.000,0.011815108682413618
713,913.000,0.02023731664336424
714,914.000,0.021617851979946485
715,915.000,0.011927983390629617
716,916.000,0.021687522496023955
717,917.000,0.02259588360790638
718,918.000,0.028329525808400282
719,919.000,0.01778479195085253
720,920.000,0.01895632834082898
721,921.000,0.023305128356509285
722,922.000,0.020422341480031282
723,923.000,0.025247659404166692
724,924.000,0.020191414733776267
725,925.000,0.02636123121982616
726,926.000,0.022909392690729894
727,927.000,0.026957463611676297
728,928.000,0.024892426335652824
729,929.000,0.008760832085598623
730,930.000,0.018465345703742708
731,931.000,0.017697559614066653
732,932.000,0.02136132260585295
733,933.000,0.02259262269468327
734,934.000,0.025000177028619907
735,935.000,0.03165516001639975
736,936.000,0.021332176012870643
737,937.000,0.014615089301111899
738,938.000,0.02788659317356025
739,939.000,0.03238805898749681
740,940.000,0.030041619634528494
741,941.000,0.032691534267474794
742,942.000,0.026527570752305135
743,943.000,0.027118126596047506
744,944.000,0.014668843962786796
745,945.000,0.02559119331641132
746,946.000,0.034344308359748
747,947.000,0.029353480671777784
748,948.000,0.022280721773285776
749,949.000,0.01674256279018547
750,950.000,0.028790956661741092
751,951.000,0.027539091687646716
752,952.000,0.019445104723903428
753,953.000,0.03431046814553314
754,954.000,0.017361716571474867
755,955.000,0.024743019511907886
756,956.000,0.026367174340804427
757,957.000,0.02868841528734149
758,958.000,0.012073741558794359
759,959.000,0.018651511472295487
760,960.000,0.022288167395897757
761,961.000,0.024903675710787842
762,962.000,0.03120257162751234
763,963.000,0.01974071852759144
764,964.000,0.031118963712409336
765,965.000,0.028184167984219233
766,966.000,0.027235454525234664
767,967.000,0.01999787895237114
768,968.000,0.02427010276059423
769,969.000,0.042080431423084576
770,970.000,0.03916077412587109
771,971.000,0.03897426617468818
772,972.000,0.03592132728900514
773,973.000,0.023500907227450164
774,974.000,0.034006630326451286
775,975.000,0.04281659518482832
776,976.000,0.04059291893953764
777,977.000,0.035931278696599796
778,978.000,0.03654808760598471
779,979.000,0.04873171631813371
780,980.000,0.03934654633593142
781,981.000,0.04416256522898796
782,982.000,0.03937322107138729
783,983.000,0.048749615474692774
784,984.000,0.060107774636057626
785,985.000,0.05011053007865048
786,986.000,0.06576129375588285
787,987.000,0.06537920080493761
788,988.000,0.05738551503412585
789,989.000,0.07504841338953651
790,990.000,0.09604495283262052
791,991.000,0.096019774782663
792,992.000,0.12382850056671695
793,993.000,0.1436585636575845
794,994.000,0.17120416941683028
795,995.000,0.21067656528960177
796,996.000,0.28090919533956366
797,997.000,0.3862396470427852
798,998.000,0.5097697139495222
799,999.000,0.6856868597280129
800,1000.000,0.8964903776814607
801,1001.000,1.0
802,1002.000,0.8958472934112477
803,1003.000,0.6940636097443744
804,1004.000,0.5139172466011971
805,1005.000,0.36423244842174823
806,1006.000,0.2908903844553197
807,1007.000,0.21470196782299691
808,1008.000,0.18241864386228496
809,1009.000,0.1450479715086528
810,1010.000,0.13319812886589127
811,1011.000,0.1133667086767739
812,1012.000,0.09973882207972291
813,1013.000,0.0946154815025061
814,1014.000,0.08102472414421397
815,1015.000,0.0895905499355182
816,1016.000,0.0825631685250762
817,1017.000,0.07423832266999036
818,1018.000,0.07853909788667764
819,1019.000,0.08183103534513438
820,1020.000,0.07959144227608524
821,1021.000,0.08421271660093843
822,1022.000,0.09786155485625467
823,1023.000,0.10251351123382424
824,1024.000,0.11672009748269373
825,1025.000,0.1384082878649278
826,1026.000,0.17535274509544568
827,1027.000,0.21196363533100793
828,1028.000,0.25417003939913096
829,1029.000,0.34157551671843017
830,1030.000,0.4107302860238204
831,1031.000,0.43393548251199326
832,1032.000,0.40694117562154647
833,1033.000,0.32983047017187467
834,1034.000,0.26723590798992125
835,1035.000,0.2132223740077376
836,1036.000,0.15813093081318766
837,1037.000,0.13735333784688056
838,1038.000,0.10611958688707886
839,1039.000,0.08959866926047562
840,1040.000,0.08054067530982831
841,1041.000,0.08531058582049174
842,1042.000,0.06504897711845593
843,1043.000,0.06043172368184574
844,1044.000,0.055142605798567716
845,1045.000,0.046748102029031034
846,1046.000,0.05149468014335668
847,1047.000,0.04432444378564864
848,1048.000,0.03837217887324601
849,1049.000,0.03671545562506586
850,1050.000,0.04303809300631486
851,1051.000,0.0417542150538634
852,1052.000,0.02133159149126733
853,1053.000,0.038055641522613634
854,1054.000,0.036633105933911614
855,1055.000,0.03433585460700758
856,1056.000,0.025263808873339406
857,1057.000,0.019927294333686837
858,1058.000,0.03242782681299565
859,1059.000,0.02720236168441309
860,1060.000,0.027043743071619632
861,1061.000,0.02119055117823246
862,1062.000,0.016091905911738563
863,1063.000,0.03364362302367781
864,1064.000,0.025670157047432293
865,1065.000,0.02943211676050702
866,1066.000,0.023761216120169418
867,1067.000,0.03034077061786904
868,1068.000,0.01837483403597176
869,1069.000,0.027474173923511258
870,1070.000,0.024877170612613197
871,1071.000,0.029595091658682363
872,1072.000,0.026808483304524157
873,1073.000,0.02737618658309565
874,1074.000,0.02049768466679295
875,1075.000,0.02670744927853773
876,1076.000,0.02197264496088506
877,1077.000,0.03034408775373393
878,1078.000,0.032002750683055414
879,1079.000,0.03027094500484874
880,1080.000,0.030452929941436217
881,1081.000,0.021893164563173265
882,1082.000,0.012517765688369596
883,1083.000,0.027662869710944032
884,1084.000,0.024801633554672988
885,1085.000,0.03589633244731135
886,1086.000,0.025135018310720837
887,1087.000,0.029403653563429083
888,1088.000,0.025143144421169508
889,1089.000,0.019053385099587577
890,1090.000,0.017273990832539596
891,1091.000,0.02187846621977195
892,1092.000,0.020647749683189047
893,1093.000,0.027777915776359727
894,1094.000,0.024325483032101223
895,1095.000,0.025353540209616717
896,1096.000,0.013530476023391545
897,1097.000,0.017160208807208012
898,1098.000,0.01581783313469858
899,1099.000,0.024100746592577115
900,1100.000,0.031599746786792414
901,1101.000,0.02084170713440751
902,1102.000,0.031096152829541854
903,1103.000,0.02851206327784661
904,1104.000,0.032726626889503035
905,1105.000,0.033363286268859066
906,1106.000,0.02892799256558314
907,1107.000,0.021235175476753826
908,1108.000,0.015006950451388085
909,1109.000,0.017969950558632774
910,1110.000,0.012091626175015045
911,1111.000,0.025491488277353813
912,1112.000,0.023352589959728644
913,1113.000,0.02024296120272755
914,1114.000,0.026812012729329548
915,1115.000,0.030880846284142126
916,1116.000,0.0212239134999922
917,1117.000,0.01734662854700468
918,1118.000,0.02971249810569683
919,1119.000,0.024109651095807642
920,1120.000,0.01745056870195748
921,1121.000,0.01618074737930636
922,1122.000,0.026679222604297618
923,1123.000,0.029798308397388087
924,1124.000,0.02433660057483483
925,1125.000,0.015334548152756394
926,1126.000,0.025561704540798882
927,1127.000,0.030451977064593672
928,1128.000,0.025414123014199937
929,1129.000,0.03139859380678229
930,1130.000,0.03400133667392115
931,1131.000,0.02484193355655693
932,1132.000,0.029699334252673692
933,1133.000,0.038468657895892544
934,1134.000,0.022941713924260858
935,1135.000,0.0364180766242972
936,1136.000,0.037584116766361926
937,1137.000,0.03743987951759287
938,1138.000,0.02325650352621866
939,1139.000,0.028058107127794562
940,1140.000,0.04113102196656904
941,1141.000,0.039982308091730784
942,1142.000,0.03402512272881671
943,1143.000,0.04993592484847429
944,1144.000,0.04384998575846556
945,1145.000,0.05071707932526684
946,1146.000,0.05544747016553996
947,1147.000,0.06902157108152748
948,1148.000,0.07445151214212041
949,1149.000,0.07746457366508874
950,1150.000,0.09721499641452218
951,1151.000,0.11902299627702874
952,1152.000,0.12998995635819213
953,1153.000,0.13838313211015577
954,1154.000,0.15646983770864312
955,1155.000,0.15484206912097853
956,1156.000,0.1557282949910507
957,1157.000,0.1351389751730071
958,1158.000,0.12013435311447335
959,1159.000,0.10057803903577761
960,1160.000,0.10006749770484394
961,1161.000,0.07878911221981623
962,1162.000,0.05892387508102543
963,1163.000,0.057202565588425125
964,1164.000,0.05445499416542265
965,1165.000,0.0586033769422154
966,1166.000,0.05044240263950568
967,1167.000,0.05378719907479245
968,1168.000,0.038326781998078145
969,1169.000,0.04131385315085085
970,1170.000,0.0423693469775539
971,1171.000,0.05110262802996963
972,1172.000,0.052082405467892307
973,1173.000,0.05019239993863783
974,1174.000,0.06582180967490948
975,1175.000,0.051041347289143654
976,1176.000,0.060347951945596875
977,1177.000,0.07210984492821194
978,1178.000,0.0779874859159253
979,1179.000,0.09078060683918096
980,1180.000,0.10928015335753062
981,1181.000,0.12127312042849639
982,1182.000,0.1312062818371917
983,1183.000,0.13294660815369538
984,1184.000,0.14136655072992474
985,1185.000,0.12030290277838772
986,1186.000,0.1086310173984794
987,1187.000,0.09819363001249144
988,1188.000,0.07844236101536364
989,1189.000,0.07397592287661053
990,1190.000,0.0662580721718517
991,1191.000,0.055873350860871154
992,1192.000,0.0507896268896339
993,1193.000,0.03883316673094385
994,1194.000,0.03275453076823088
995,1195.000,0.03687591504469959
996,1196.000,0.03515740602127336
997,1197.000,0.036927377179688206
998,1198.000,0.023823259744082968
999,1199.000,0.037976262907270575
1000,1200.000,0.028404643135238945
1001,1201.000,0.016945824119262258
1002,1202.000,0.018013219697616118
1003,1203.000,0.02032340998697617
1004,1204.000,0.028503797580149388
1005,1205.000,0.03044494923437145
1006,1206.000,0.03024183233932268
1007,1207.000,0.030430975969177893
1008,1208.000,0.020972734001070584
1009,1209.000,0.02570173381563765
1010,1210.000,0.01732298692613713
1011,1211.000,0.022820023893556463
1012,1212.000,0.024138252910778236
1013,1213.000,0.033091530252402676
1014,1214.000,0.03632194463106026
1015,1215.000,0.021167846924513168
1016,1216.000,0.01955113093273736
1017,1217.000,0.021994196650447904
1018,1218.000,0.021370562506222355
1019,1219.000,0.024625512251880574
1020,1220.000,0.025201093485792206
1021,1221.000,0.027440539212745658
1022,1222.000,0.019983224229984997
1023,1223.000,0.02140510162603586
1024,1224.000,0.028823590997225406
1025,1225.000,0.027155170531487804
1026,1226.000,0.015704575530904954
1027,1227.000,0.02382622985053826
1028,1228.000,0.019769144889145454
1029,1229.000,0.027877197206892114
1030,1230.000,0.01669212914179903
1031,1231.000,0.029297311344574122
1032,1232.000,0.026043643087406077
1033,1233.000,0.02101854382184875
1034,1234.000,0.02722144345516129
1035,1235.000,0.027251342268316343
1036,1236.000,0.022579026508931975
1037,1237.000,0.021356632862043968
1038,1238.000,0.021667137910955946
1039,1239.000,0.02131590052743187
1040,1240.000,0.025435844341044005
1041,1241.000,0.021604126869861465
1042,1242.000,0.02519004088990341
1043,1243.000,0.019650138035552104
1044,1244.000,0.04161768806186502
1045,1245.000,0.026182866827497993
1046,1246.000,0.027747816306534875
1047,1247.000,0.021864946613136184
1048,1248.000,0.0277624206224146
1049,1249.000,0.03087149975462452
1050,1250.000,0.03608424402582691
1051,1251.000,0.018472095328823716
1052,1252.000,0.020837032900292814
1053,1253.000,0.024035823981662187
1054,1254.000,0.017873851523496187
1055,1255.000,0.016821959823290492
1056,1256.000,0.01943108008284755
1057,1257.000,0.023724342791366242
1058,1258.000,0.026686887301341354
1059,1259.000,0.019816664653718372
1060,1260.000,0.019202861716956794
1061,1261.000,0.030456276157977885
1062,1262.000,0.028667484954905877
1063,1263.000,0.02025426292308077
1064,1264.000,0.026941386844195538
1065,1265.000,0.01805233902402273
1066,1266.000,0.01768027696785535
1067,1267.000,0.02518923826322424
1068,1268.000,0.030098574140005264
1069,1269.000,0.02366286139387047
1070,1270.000,0.02146142895825004
1071,1271.000,0.012647038990222742
1072,1272.000,0.024384460583326096
1073,1273.000,0.03348493364790418
1074,1274.000,0.022857382869661897
1075,1275.000,0.023650195789776195
1076,1276.000,0.022115224611077573
1077,1277.000,0.034405337068041865
1078,1278.000,0.02884803233670445
1079,1279.000,0.018568408591612597
1080,1280.000,0.01963621226879729
1081,1281.000,0.021446567763058748
1082,1282.000,0.021172560902219466
1083,1283.000,0.021906229541895344
1084,1284.000,0.018652200684335207
1085,1285.000,0.03326083213648981
1086,1286.000,0.01992036828583335
1087,1287.000,0.030511799894156998
1088,1288.000,0.02258581684696048
1089,1289.000,0.012436431882190922
1090,1290.000,0.022452285164670616
1091,1291.000,0.023788477315940387
1092,1292.000,0.028396786505728452
1093,1293.000,0.025002579092522067
1094,1294.000,0.0186689123799257
1095,1295.000,0.019674364178022964
1096,1296.000,0.024089395435073362
1097,1297.000,0.021502074050831793
1098,1298.000,0.03036752968728758
1099,1299.000,0.03359366048225523
1100,1300.000,0.028803225799275252
1101,1301.000,0.02362072640128161
1102,1302.000,0.026726091931066523
1103,1303.000,0.018332888067781977
1104,1304.000,0.011693647419699903
1105,1305.000,0.027027835941420098
1106,1306.000,0.01622213015172247
1107,1307.000,0.023271484921540648
1108,1308.000,0.027423564821708234
1109,1309.000,0.019900686483787563
1110,1310.000,0.025232937796223952
1111,1311.000,0.015128520281961782
1112,1312.000,0.01935435847200644
1113,1313.000,0.01973592894012551
1114,1314.000,0.01542552898877942
1115,1315.000,0.02030075517040741
1116,1316.000,0.024404389571124528
1117,1317.000,0.025488078083323224
1118,1318.000,0.025649718178434294
1119,1319.000,0.020006178577524607
1120,1320.000,0.02009953530484069
1121,1321.000,0.02891056451598793
1122,1322.000,0.020957836939711264
1123,1323.000,0.024268193129485575
1124,1324.000,0.01443808200703354
1125,1325.000,0.028744542932241764
1126,1326.000,0.02426535485543169
1127,1327.000,0.023221821911088923
1128,1328.000,0.02864419133280382
1129,1329.000,0.018008273074495568
1130,1330.000,0.01674330240873162
1131,1331.000,0.026019882235763726
1132,1332.000,0.02517013031986694
1133,1333.000,0.017296349026205183
1134,1334.000,0.02128735784317073
1135,1335.000,0.022963009703868026
1136,1336.000,0.012828467516527798
1137,1337.000,0.02449330664845195
1138,1338.000,0.024104730645296193
1139,1339.000,0.014210075930083287
1140,1340.000,0.01940099709207288
1141,1341.000,0.023817384478017192
1142,1342.000,0.017259746147696077
1143,1343.000,0.021384985552550136
1144,1344.000,0.02586609101531601
1145,1345.000,0.020867105228152667
1146,1346.000,0.015633210580727013
1147,1347.000,0.024868518141914778
1148,1348.000,0.03629452058349932
1149,1349.000,0.02566007089936854
1150,1350.000,0.01763596286321965
1151,1351.000,0.028266634967436498
1152,1352.000,0.019691823247006746
1153,1353.000,0.018925463079848884
1154,1354.000,0.02359586145327745
1155,1355.000,0.013550816987444383
1156,1356.000,0.02352747727246962
1157,1357.000,0.019636099823513734
1158,1358.000,0.011519347536629912
1159,1359.000,0.017550131245698753
1160,1360.000,0.02049264207743902
1161,1361.000,0.01108960492742212
1162,1362.000,0.024882003821094296
1163,1363.000,0.02107375833349808
1164,1364.000,0.023050805236427576
1165,1365.000,0.021667150512582552
1166,1366.000,0.03084533199230054
1167,1367.000,0.02229408822169049
1168,1368.000,0.01948317811530179
1169,1369.000,0.011442112167165657
1170,1370.000,0.02385794523663628
1171,1371.000,0.02888720885510873
1172,1372.000,0.02222807799346393
1173,1373.000,0.018314391787992986
1174,1374.000,0.018265581810726857
1175,1375.000,0.027654010767440465
1176,1376.000,0.025460965199003843
1177,1377.000,0.02293912283595962
1178,1378.000,0.023402528267253902
1179,1379.000,0.029639089753297033
1180,1380.000,0.015234431137444483
1181,1381.000,0.01979177353310511
1182,1382.000,0.027019493664607347
1183,1383.000,0.028574627445874544
1184,1384.000,0.020143178615198626
1185,1385.000,0.030035058064490673
1186,1386.000,0.03058457719587063
1187,1387.000,0.016756126017836413
1188,1388.000,0.0209639438818354
1189,1389.000,0.01175589073092735
1190,1390.000,0.02535794593214913
1191,1391.000,0.02560933384258768
1192,1392.000,0.021615092223719913
1193,1393.000,0.02503749432242195
1194,1394.000,0.02766438287549257
1195,1395.000,0.02431258090516912
1196,1396.000,0.015407855692143348
1197,1397.000,0.013133342546414857
1198,1398.000,0.029229969221350967
1199,1399.000,0.02454365790158751
1200,1400.000,0.028277859139318302
1201,1401.000,0.02257169430095944
1202,1402.000,0.03216742777017837
1203,1403.000,0.028415472779272415
1204,1404.000,0.029714021933160188
1205,1405.000,0.023619774493794963
1206,1406.000,0.029342905968344102
1207,1407.000,0.023862357744659935
1208,1408.000,0.023855892140855494
1209,1409.000,0.025508642968587278
1210,1410.000,0.018777406568862502
1211,1411.000,0.03855322353461755
1212,1412.000,0.02807653846073874
1213,1413.000,0.029622578714376332
1214,1414.000,0.024799269295650645
1215,1415.000,0.028696988270856705
1216,1416.000,0.030222422926282747
1217,1417.000,0.033726031845541515
1218,1418.000,0.022058370918613648
1219,1419.000,0.03269153620618657
1220,1420.000,0.028550842360334873
1221,1421.000,0.038263805853795796
1222,1422.000,0.03608836572708276
1223,1423.000,0.03982699692124329
1224,1424.000,0.041798919808923855
1225,1425.000,0.028920328837895297
1226,1426.000,0.029115701548717128
1227,1427.000,0.03013942764410395
1228,1428.000,0.0393187849525198
1229,1429.000,0.038392647792276684
1230,1430.000,0.05319697475076539
1231,1431.000,0.03939318204793018
1232,1432.000,0.044735602873037086
1233,1433.000,0.053730558640624926
1234,1434.000,0.054734882108463064
1235,1435.000,0.060143443055486155
1236,1436.000,0.07050108250153592
1237,1437.000,0.07692295575359034
1238,1438.000,0.07994881955983381
1239,1439.000,0.09327076289680394
1240,1440.000,0.08964861047606855
1241,1441.000,0.11746815330252935
1242,1442.000,0.10913534806620842
1243,1443.000,0.1281639021452481
1244,1444.000,0.13450949872081613
1245,1445.000,0.1534423579861265
1246,1446.000,0.17168908097796048
1247,1447.000,0.2053504635709488
1248,1448.000,0.21709643391367006
1249,1449.000,0.2289784359075285
1250,1450.000,0.23783591374498717
1251,1451.000,0.22372981868280417
1252,1452.000,0.2113167492469837
1253,1453.000,0.202507143050287
1254,1454.000,0.1835003965707659
1255,1455.000,0.16310822726225138
1256,1456.000,0.15274976483304872
1257,1457.000,0.12130099522654746
1258,1458.000,0.11388232264709418
1259,1459.000,0.11705952035659734
1260,1460.000,0.09661245351581044
1261,1461.000,0.08138076759425414
1262,1462.000,0.07801137666125729
1263,1463.000,0.06813098504864987
1264,1464.000,0.05944816963336503
1265,1465.000,0.06379236230048722
1266,1466.000,0.059697788469299365
1267,1467.000,0.07163164809535065
1268,1468.000,0.054980164046133366
1269,1469.000,0.03773005523472271
1270,1470.000,0.05050267718891501
1271,1471.000,0.04804387203957437
1272,1472.000,0.044013055653518394
1273,1473.000,0.04640777571543542
1274,1474.000,0.04410190002915386
1275,1475.000,0.03791185599369058
1276,1476.000,0.042970524053812804
1277,1477.000,0.02886260175577203
1278,1478.000,0.03463322003679375
1279,1479.000,0.04129843360666535
1280,1480.000,0.03448697428261496
1281,1481.000,0.03292566570431114
1282,1482.000,0.03081517920790159
1283,1483.000,0.030649949587919778
1284,1484.000,0.0375597801173193
1285,1485.000,0.02409736935664688
1286,1486.000,0.030619424570858027
1287,1487.000,0.021964172790382687
1288,1488.000,0.030930041095697667
1289,1489.000,0.024991583688630945
1290,1490.000,0.035433851781538725
1291,1491.000,0.013477553069072602
1292,1492.000,0.03375153753779076
1293,1493.000,0.02466173223481206
1294,1494.000,0.022408205644160958
1295,1495.000,0.026196359292168764
1296,1496.000,0.02436599047614621
1297,1497.000,0.02118032835098783
1298,1498.000,0.028206211137219685
1299,1499.000,0.03129890233870728
1300,1500.000,0.025033949387922274
1301,1501.000,0.03160216048296529
1302,1502.000,0.03439838387822339
1303,1503.000,0.02863684749256057
1304,1504.000,0.03344693198884188
1305,1505.000,0.028901197629996572
1306,1506.000,0.025524029554672423
1307,1507.000,0.028364449762503203
1308,1508.000,0.02297496089266937
1309,1509.000,0.021478430491252455
1310,1510.000,0.027928252212405788
1311,1511.000,0.012920440003629075
1312,1512.000,0.019452601722377724
1313,1513.000,0.023251320380260287
1314,1514.000,0.022069572795309925
1315,1515.000,0.028037285363218936
1316,1516.000,0.027123309742005882
1317,1517.000,0.028161214606035514
1318,1518.000,0.02407997232644023
1319,1519.000,0.03369226142495093
1320,1520.000,0.03007372664040717
1321,1521.000,0.021482918609035753
1322,1522.000,0.022182774176461768
1323,1523.000,0.01832414060020607
1324,1524.000,0.02614214224773304
1325,1525.000,0.020022807877864222
1326,1526.000,0.028491536197462367
1327,1527.000,0.023641298072036916
1328,1528.000,0.022790826894067737
1329,1529.000,0.03588016940715613
1330,1530.000,0.021558389750775255
1331,1531.000,0.014565922600877246
1332,1532.000,0.030296484624554237
1333,1533.000,0.03349557523689447
1334,1534.000,0.025302809938327106
1335,1535.000,0.029651147571246577
1336,1536.000,0.024396733598283822
1337,1537.000,0.027928062218650816
1338,1538.000,0.015495229554889562
1339,1539.000,0.030234446816776044
1340,1540.000,0.03185838547930851
1341,1541.000,0.027098257708314425
1342,1542.000,0.026432766776641223
1343,1543.000,0.02100734969999962
1344,1544.000,0.02033231642891848
1345,1545.000,0.024742919668250936
1346,1546.000,0.028486149486766525
1347,1547.000,0.034398252045821975
1348,1548.000,0.03600220840598191
1349,1549.000,0.03263124130030349
1350,1550.000,0.03990192619303876
1351,1551.000,0.03281782389189014
1352,1552.000,0.024891479274945637
1353,1553.000,0.03284856895273954
1354,1554.000,0.02949939296752947
1355,1555.000,0.038031867099988785
1356,1556.000,0.04195035161712869
1357,1557.000,0.03833130016589412
1358,1558.000,0.03850404811017986
1359,1559.000,0.03712939676386642
1360,1560.000,0.03777223966446211
1361,1561.000,0.04132813370186241
1362,1562.000,0.039843264651834916
1363,1563.000,0.04032629857060089
1364,1564.000,0.03286136638923523
1365,1565.000,0.038692922259096894
1366,1566.000,0.05677024061511912
1367,1567.000,0.04645524313479014
1368,1568.000,0.04173664160088427
1369,1569.000,0.04654358247600549
1370,1570.000,0.056899907475464716
1371,1571.000,0.05989425655227997
1372,1572.000,0.07328134254395267
1373,1573.000,0.07529153754098963
1374,1574.000,0.08115351567618842
1375,1575.000,0.08953500778157712
1376,1576.000,0.09435057495478766
1377,1577.000,0.11451922727349106
1378,1578.000,0.12117501967344134
1379,1579.000,0.15474389372551972
1380,1580.000,0.17750477139992596
1381,1581.000,0.21183566290476286
1382,1582.000,0.2256047080762676
1383,1583.000,0.24274777188580107
1384,1584.000,0.23537921209793375
1385,1585.000,0.22780367253178518
1386,1586.000,0.19954827046043352
1387,1587.000,0.17915300890662128
1388,1588.000,0.16321840134495025
1389,1589.000,0.14802099281711645
1390,1590.000,0.14142641524179145
1391,1591.000,0.14360428069694808
1392,1592.000,0.14829688895259066
1393,1593.000,0.1712569799258657
1394,1594.000,0.172147297447161
1395,1595.000,0.20288168181076027
1396,1596.000,0.2368452213597125
1397,1597.000,0.2643390693304224
1398,1598.000,0.33986518227324725
1399,1599.000,0.4129659279982508
1400,1600.000,0.5137011955904717
1401,1601.000,0.6036491819404479
1402,1602.000,0.6202102008509771
1403,1603.000,0.5922334032954639
1404,1604.000,0.5202001297279297
1405,1605.000,0.41894399619516176
1406,1606.000,0.32963427253918814
1407,1607.000,0.2638446367557139
1408,1608.000,0.22107014360537414
1409,1609.000,0.1865264629723909
1410,1610.000,0.15109228548727224
1411,1611.000,0.12366160947073503
1412,1612.000,0.10074849639208885
1413,1613.000,0.08593116455494343
1414,1614.000,0.10060529247670144
1415,1615.000,0.07332762928783007
1416,1616.000,0.06981113956746883
1417,1617.000,0.06035492936931267
1418,1618.000,0.05761917051721888
1419,1619.000,0.054933783274734395
1420,1620.000,0.05537665580950908
1421,1621.000,0.05481627989213066
1422,1622.000,0.04481136288283263
1423,1623.000,0.04106601017491198
1424,1624.000,0.04558119625215411
1425,1625.000,0.03978009075895046
1426,1626.000,0.039428245589281645
1427,1627.000,0.034257574271890974
1428,1628.000,0.042972002321549206
1429,1629.000,0.032680166630920854
1430,1630.000,0.030203757009212528
1431,1631.000,0.02644109354375969
1432,1632.000,0.030942221052489696
1433,1633.000,0.02833455579612761
1434,1634.000,0.03001915965849417
1435,1635.000,0.029976978136822457
1436,1636.000,0.03181712484573488
1437,1637.000,0.03665164292664809
1438,1638.000,0.028033510691372686
1439,1639.000,0.019714039914711996
1440,1640.000,0.023379333519452896
1441,1641.000,0.027012646134581174
1442,1642.000,0.03307710235929544
1443,1643.000,0.024660890833897175
1444,1644.000,0.02831102468183183
1445,1645.000,0.024985447665830024
1446,1646.000,0.024754919324846917
1447,1647.000,0.0242585364060823
1448,1648.000,0.016198157980495502
1449,1649.000,0.03211094243295368
1450,1650.000,0.02219293108750569
1451,1651.000,0.016827692594040038
1452,1652.000,0.03527251703353386
1453,1653.000,0.025207383636180063
1454,1654.000,0.030713458877943117
1455,1655.000,0.020280389003101362
1456,1656.000,0.024251756730968615
1457,1657.000,0.0259668235716198
1458,1658.000,0.028592111718111535
1459,1659.000,0.03654955521080629
1460,1660.000,0.01719032669479482
1461,1661.000,0.025268462750980356
1462,1662.000,0.026785753847551656
1463,1663.000,0.03500678459459484
1464,1664.000,0.010947592350426846
1465,1665.000,0.02218246882935556
1466,1666.000,0.03240327302823306
1467,1667.000,0.022643055373713812
1468,1668.000,0.028516146204866744
1469,1669.000,0.02900572424526447
1470,1670.000,0.01811293152216487
1471,1671.000,0.020094321139493748
1472,1672.000,0.034738135363774625
1473,1673.000,0.023466806256500165
1474,1674.000,0.0304296169322163
1475,1675.000,0.02697792574521573
1476,1676.000,0.010275336283978354
1477,1677.000,0.01621465447907781
1478,1678.000,0.02635782102579557
1479,1679.000,0.013807378350282383
1480,1680.000,0.012324126185883947
1481,1681.000,0.023155988105634843
1482,1682.000,0.023226423443511664
1483,1683.000,0.026257872678408994
1484,1684.000,0.01940558020673366
1485,1685.000,0.018098963103750778
1486,1686.000,0.02075681579210255
1487,1687.000,0.034209817015124336
1488,1688.000,0.024609166003461636
1489,1689.000,0.015142967562186882
1490,1690.000,0.029448575454209515
1491,1691.000,0.015782312057365744
1492,1692.000,0.026391211458876206
1493,1693.000,0.01833108603517741
1494,1694.000,0.024475800081029425
1495,1695.000,0.03451236074408941
1496,1696.000,0.02851789783096489
1497,1697.000,0.01327210196503416
1498,1698.000,0.01852025292957405
1499,1699.000,0.02168397756152428
1500,1700.000,0.03248751877951346
1501,1701.000,0.021944400838238873
1502,1702.000,0.025726806205802852
1503,1703.000,0.028315938346852025
1504,1704.000,0.03418000350528784
1505,1705.000,0.02364412180575241
1506,1706.000,0.024453971155681264
1507,1707.000,0.026544667282185037
1508,1708.000,0.025716141352271148
1509,1709.000,0.031323996054702125
1510,1710.000,0.015599536126369808
1511,1711.000,0.02858855224327347
1512,1712.000,0.011980591304283429
1513,1713.000,0.019739153017824695
1514,1714.000,0.01935662191801594
1515,1715.000,0.015374933457958895
1516,1716.000,0.027691704171328883
1517,1717.000,0.019569703791641874
1518,1718.000,0.021611248727605278
1519,1719.000,0.01808148464764914
1520,1720.000,0.024554449740741162
1521,1721.000,0.022095813259325855
1522,1722.000,0.03472258107912003
1523,1723.000,0.023178383134824353
1524,1724.000,0.015276569038101023
1525,1725.000,0.01908725245576743
1526,1726.000,0.031078445605449534
1527,1727.000,0.018112828770440244
1528,1728.000,0.02160324572535498
1529,1729.000,0.021336255062467207
1530,1730.000,0.017072246545434915
1531,1731.000,0.022883609762695326
1532,1732.000,0.025013084002331473
1533,1733.000,0.011072992106132683
1534,1734.000,0.021168184260363834
1535,1735.000,0.02781879254499984
1536,1736.000,0.02068272501315428
1537,1737.000,0.02408980062583652
1538,1738.000,0.028429011773026033
1539,1739.000,0.02487739938060388
1540,1740.000,0.025586983403769234
1541,1741.000,0.03373143212721986
1542,1742.000,0.02198471344174942
1543,1743.000,0.020965341693032703
1544,1744.000,0.014074030707963599
1545,1745.000,0.028374113271397727
1546,1746.000,0.012205808544330324
1547,1747.000,0.019473560166134222
1548,1748.000,0.028272546099670306
1549,1749.000,0.010039532708227062
1550,1750.000,0.020832570955118625
1551,1751.000,0.021353995244659876
1552,1752.000,0.02434464816745619
1553,1753.000,0.02419426811039496
1554,1754.000,0.027349777451154383
1555,1755.000,0.022042966884122436
1556,1756.000,0.011783867311347142
1557,1757.000,0.01958781620649735
1558,1758.000,0.028524991577387818
1559,1759.000,0.030997734125753986
1560,1760.000,0.030897750881555268
1561,1761.000,0.02326150734133688
1562,1762.000,0.020006704937774355
1563,1763.000,0.020950644318987282
1564,1764.000,0.021589907388271157
1565,1765.000,0.010633232173129522
1566,1766.000,0.026868415671303356
1567,1767.000,0.0179959651627257
1568,1768.000,0.013327618915722022
1569,1769.000,0.019799411088183852
1570,1770.000,0.016193232683204592
1571,1771.000,0.021047614805071422
1572,1772.000,0.022935360765739973
1573,1773.000,0.027105493950053575
1574,1774.000,0.01455708982998278
1575,1775.000,0.020171737778509943
1576,1776.000,0.024983675683258134
1577,1777.000,0.0156269407868129
1578,1778.000,0.024151519515526004
1579,1779.000,0.017697772872363054
1580,1780.000,0.027263519317040692
1581,1781.000,0.027497184493692647
1582,1782.000,0.028283015143311684
1583,1783.000,0.023189573379249914
1584,1784.000,0.019941384890943416
1585,1785.000,0.017501706102722035
1586,1786.000,0.0254397062549206
1587,1787.000,0.037805378065010636
1588,1788.000,0.026116120858148864
1589,1789.000,0.025809791794422724
1590,1790.000,0.019205842486326907
1591,1791.000,0.021487884619274155
1592,1792.000,0.024347912958102874
1593,1793.000,0.014041261632010197
1594,1794.000,0.02438897002693903
1595,1795.000,0.02423945657404589
1596,1796.000,0.025971225416728645
1597,1797.000,0.026657233735227152
1598,1798.000,0.021786012932147884
1599,1799.000,0.03264490727967906
1600,1800.000,0.026619204934199857
1601,1801.000,0.02215477723956823
1602,1802.000,0.016953567334133307
1603,1803.000,0.029626559859027735
1604,1804.000,0.012350079720555634
1605,1805.000,0.013350335771067917
1606,1806.000,0.029120343794087365
1607,1807.000,0.017520879962280033
1608,1808.000,0.015934114159521597
1609,1809.000,0.014545000992644668
1610,1810.000,0.008733383804140363
1611,1811.000,0.025638527934008733
1612,1812.000,0.012654338240094924
1613,1813.000,0.010182062921269046
1614,1814.000,0.010767862135645838
1615,1815.000,0.02151869947374783
1616,1816.000,0.016398445325693425
1617,1817.000,0.025005536597350757
1618,1818.000,0.023800899611705593
1619,1819.000,0.01512577894349717
1620,1820.000,0.024792128050788977
1621,1821.000,0.01709929351355359
1622,1822.000,0.023688401982931862
1623,1823.000,0.021650572588105252
1624,1824.000,0.01842135536397518
1625,1825.000,0.017552839626063015
1626,1826.000,0.020067850938131244
1627,1827.000,0.022535996800854132
1628,1828.000,0.016615527731088615
1629,1829.000,0.02003784064904852
1630,1830.000,0.022849660011264594
1631,1831.000,0.015096515058451845
1632,1832.000,0.02644867099877308
1633,1833.000,0.023229295645021793
1634,1834.000,0.029491329865213824
1635,1835.000,0.026004658501468558
1636,1836.000,0.01905331142853973
1637,1837.000,0.020573778135015583
1638,1838.000,0.011018048044777417
1639,1839.000,0.021283679137557857
1640,1840.000,0.029392118228305713
1641,1841.000,0.029245932574192283
1642,1842.000,0.019248346803510896
1643,1843.000,0.021250599867718788
1644,1844.000,0.017546507793371767
1645,1845.000,0.018629042772058128
1646,1846.000,0.020484101082668266
1647,1847.000,0.02978731202414107
1648,1848.000,0.028457794857548572
1649,1849.000,0.026835429459629988
1650,1850.000,0.03164079028464607
1651,1851.000,0.021378342556617327
1652,1852.000,0.03233164732131997
1653,1853.000,0.034631681668992
1654,1854.000,0.02354992755494502
1655,1855.000,0.02330414349092228
1656,1856.000,0.015270461126620992
1657,1857.000,0.02774916758864933
1658,1858.000,0.01839473394309341
1659,1859.000,0.014513970941162807
1660,1860.000,0.024573118565879057
1661,1861.000,0.031772986194515775
1662,1862.000,0.018165893250719524
1663,1863.000,0.02722331334267834
1664,1864.000,0.018291565395431215
1665,1865.000,0.015791453083434097
1666,1866.000,0.016563258122641367
1667,1867.000,0.021947491144824867
1668,1868.000,0.01914431165168061
1669,1869.000,0.028863999566969337
1670,1870.000,0.013521553102399058
1671,1871.000,0.03228253393565942
1672,1872.000,0.019111259523806535
1673,1873.000,0.019356310754774377
1674,1874.000,0.021866511153547034
1675,1875.000,0.02976717753289338
1676,1876.000,0.022974427746928375
1677,1877.000,0.027143443263897674
1678,1878.000,0.02148969246801408
1679,1879.000,0.0192063097158672
1680,1880.000,0.02617824978538097
1681,1881.000,0.022277047914452362
1682,1882.000,0.017769918154034635
1683,1883.000,0.022628501464340516
1684,1884.000,0.019608844443878126
1685,1885.000,0.01537868001848426
1686,1886.000,0.015475643719077153
1687,1887.000,0.030999691255301387
1688,1888.000,0.0181321819608384
1689,1889.000,0.026820033179985915
1690,1890.000,0.02625686648699235
1691,1891.000,0.01832067224482192
1692,1892.000,0.030181777833700997
1693,1893.000,0.02551109446963997
1694,1894.000,0.025208570127792755
1695,1895.000,0.02727570896739165
1696,1896.000,0.021878777383013512
1697,1897.000,0.01859053704793161
1698,1898.000,0.015339534519468546
1699,1899.000,0.014298448229399002
1700,1900.000,0.02502654544761368
1701,1901.000,0.01150497392745266
1702,1902.000,0.010556275008806478
1703,1903.000,0.020479614903596757
1704,1904.000,0.028537482697421408
1705,1905.000,0.02470838636457278
1706,1906.000,0.030356975340327642
1707,1907.000,0.018836060355219206
1708,1908.000,0.029996399182133104
1709,1909.000,0.02869165487473496
1710,1910.000,0.011168661716608795
1711,1911.000,0.02575234097872888
1712,1912.000,0.02339414333878187
1713,1913.000,0.017383050155961848
1714,1914.000,0.011590870491818367
1715,1915.000,0.03000144371019882
1716,1916.000,0.026230613421349813
1717,1917.000,0.017149044735391552
1718,1918.000,0.025373380016673018
1719,1919.000,0.020985432563265217
1720,1920.000,0.021444794811130964
1721,1921.000,0.014002896464488124
1722,1922.000,0.02277146304075476
1723,1923.000,0.027828663496055405
1724,1924.000,0.022034833988182515
1725,1925.000,0.025798036415511708
1726,1926.000,0.024635010000917446
1727,1927.000,0.01877644690652871
1728,1928.000,0.030462734006935187
1729,1929.000,0.027843064247197655
1730,1930.000,0.02042711846587061
1731,1931.000,0.027741542635197194
1732,1932.000,0.01972891855830936
1733,1933.000,0.013508979587114589
1734,1934.000,0.024865474364411635
1735,1935.000,0.01827099663274359
1736,1936.000,0.018858817923512596
1737,1937.000,0.02312188907339663
1738,1938.000,0.02336804440072628
1739,1939.000,0.024786910008018463
1740,1940.000,0.01654653770284784
1741,1941.000,0.03145735228357541
1742,1942.000,0.017611095976503705
1743,1943.000,0.023118638823088337
1744,1944.000,0.01469437970506872
1745,1945.000,0.009303584143491505
1746,1946.000,0.021317702560036438
1747,1947.000,0.018070334146815182
1748,1948.000,0.0069132232750240405
1749,1949.000,0.01879984037228772
1750,1950.000,0.01939988621021982
1751,1951.000,0.01936800215619647
1752,1952.000,0.009080122406966323
1753,1953.000,0.02361585054114123
1754,1954.000,0.026206204070615233
1755,1955.000,0.009721689635207193
1756,1956.000,0.01430791205097963
1757,1957.000,0.01404000437741734
1758,1958.000,0.019888648052955874
1759,1959.000,0.02811460312793407
1760,1960.000,0.012619696368556787
1761,1961.000,0.020998218367490194
1762,1962.000,0.010792905445134261
1763,1963.000,0.02674416266361861
1764,1964.000,0.02446974839219118
1765,1965.000,0.015167376912921466
1766,1966.000,0.024143437026092507
1767,1967.000,0.024399052297579212
1768,1968.000,0.02721394742604288
1769,1969.000,0.0160940452801938
1770,1970.000,0.02654903035305817
1771,1971.000,0.02186057869548359
1772,1972.000,0.012122899534825978
1773,1973.000,0.024211592438909652
1774,1974.000,0.029907950303701865
1775,1975.000,0.025248030667473605
1776,1976.000,0.01185585749607589
1777,1977.000,0.0332563857010099
1778,1978.000,0.019128177692202177
1779,1979.000,0.019200257057673056
1780,1980.000,0.014692651343512
1781,1981.000,0.01863400393551707
1782,1982.000,0.030824984242756454
1783,1983.000,0.011539565392484373
1784,1984.000,0.026316374275890543
1785,1985.000,0.020425658615896174
1786,1986.000,0.016989116522787027
1787,1987.000,0.021470759978073364
1788,1988.000,0.016997537317427088
1789,1989.000,0.030161594874658672
1790,1990.000,0.026097875641536088
1791,1991.000,0.012658786614286616
1792,1992.000,0.03146018086407037
1793,1993.000,0.005848410060768388
1794,1994.000,0.01606766329021753
1795,1995.000,0.018567765908655724
1796,1996.000,0.01249991209153748
1797,1997.000,0.03137026728888522
1798,1998.000,0.020838663356904367
1799,1999.000,0.01848250718046742
1800,2000.000,0.02217462770953935
