pixel_index,raman_shift_cm-1,intensity
0,200.000,0.9691696431250231
1,201.000,0.9690842983582856
2,202.000,0.9694254089320853
3,203.000,0.9700734118524391
4,204.000,0.9709087441253642
5,205.000,0.971811842756878
6,206.000,0.9734717723879944
7,207.000,0.972990377546256
8,208.000,0.9736131811467572
9,209.000,0.9726558836222429
10,210.000,0.9728272366926218
11,211.000,0.973819648320759
12,212.000,0.9737530020725297
13,213.000,0.9726484037710017
14,214.000,0.9718140956661739
15,215.000,0.972013700753827
16,216.000,0.9718305283361283
17,217.000,0.9725235260072657
18,218.000,0.9741053200608009
19,219.000,0.9747914283191096
20,220.000,0.9745727483627622
21,221.000,0.9773308366400061
22,222.000,0.9796473913313936
23,223.000,0.9812490998264994
24,224.000,0.9827771173833797
25,225.000,0.9838609146177574
26,226.000,0.9830754697976952
27,227.000,0.9823535104461982
28,228.000,0.9829900678724098
29,229.000,0.9818790292119645
30,230.000,0.9806573065077253
31,231.000,0.9823390880656205
32,232.000,0.9828139255674823
33,233.000,0.9840235420268777
34,234.000,0.9845188694586428
35,235.000,0.9843711991964581
36,236.000,0.9830129898179675
37,237.000,0.9819713322856363
38,238.000,0.9820517939355511
39,239.000,0.9813105319523292
40,240.000,0.9819339243115097
41,241.000,0.9830070120541563
42,242.000,0.9827854368801908
43,243.000,0.9831503431458554
44,244.000,0.983933283421711
45,245.000,0.984921245869102
46,246.000,0.9864249577600027
47,247.000,0.9877967913259919
48,248.000,0.98890563538983
49,249.000,0.9905523197119905
50,250.000,0.9923005092850872
51,251.000,0.9928005507980483
52,252.000,0.993535825581958
53,253.000,0.9933989860591101
54,254.000,0.9946213088808811
55,255.000,0.9945038769728269
56,256.000,0.9941107140899138
57,257.000,0.9929564713754073
58,258.000,0.9911234086374836
59,259.000,0.9889691577790214
60,260.000,0.9878300157412244
61,261.000,0.9875801867501085
62,262.000,0.9888688787138495
63,263.000,0.9900571644419406
64,264.000,0.9946912197929585
65,265.000,0.9962004037203558
66,266.000,0.9968398561195397
67,267.000,0.9977966882074625
68,268.000,0.9962079249560455
69,269.000,0.9954685435518063
70,270.000,0.9940755366458418
71,271.000,0.9936126066522397
72,272.000,0.9940756743677897
73,273.000,0.994513727916122
74,274.000,0.9954409875568623
75,275.000,0.9946384070225157
76,276.000,0.9934370154374713
77,277.000,0.992199420233949
78,278.000,0.9915372691765784
79,279.000,0.9918736489541491
80,280.000,0.991874277084434
81,281.000,0.9935885569762163
82,282.000,0.9956640160883387
83,283.000,0.9968754751300885
84,284.000,0.9972345588539113
85,285.000,0.9971882382811614
86,286.000,0.9969633364117699
87,287.000,0.9980229532652931
88,288.000,0.9983809097243914
89,289.000,0.998709165032957
90,290.000,0.9984020843775732
91,291.000,0.9976923265900111
92,292.000,0.9979182614393521
93,293.000,0.9984918560163457
94,294.000,0.9981659389382802
95,295.000,0.9972419449342427
96,296.000,0.9990619543507834
97,297.000,1.0
98,298.000,0.9988866669606935
99,299.000,0.9990178485289911
100,300.000,0.9982609256191337
101,301.000,0.9978758090499679
102,302.000,0.998078604574528
103,303.000,0.9967752685404032
104,304.000,0.9948775905807243
105,305.000,0.9938484217659697
106,306.000,0.9952780377811242
107,307.000,0.9957919409759791
108,308.000,0.995166268375806
109,309.000,0.9960033753155989
110,310.000,0.9980968283846706
111,311.000,0.9979594491513046
112,312.000,0.9986263856592447
113,313.000,0.9975139296829802
114,314.000,0.9972495533694871
115,315.000,0.9989585803358149
116,316.000,0.9990560048098893
117,317.000,0.9983759019312719
118,318.000,0.9956079472500908
119,319.000,0.9942919258343569
120,320.000,0.9941769259312253
121,321.000,0.9923037942793885
122,322.000,0.9914996495931249
123,323.000,0.9900022103762062
124,324.000,0.9911276769668186
125,325.000,0.9931619561545492
126,326.000,0.9940888530676046
127,327.000,0.9944096225757858
128,328.000,0.9930464567835104
129,329.000,0.9935278897556195
130,330.000,0.9928238738447422
131,331.000,0.9916991529306753
132,332.000,0.9915521435628003
133,333.000,0.989872603915824
134,334.000,0.991345433200059
135,335.000,0.992868024422936
136,336.000,0.9949172434341989
137,337.000,0.9951982513281508
138,338.000,0.9940334307775938
139,339.000,0.9951694873968441
140,340.000,0.9931548981100432
141,341.000,0.9940912908472872
142,342.000,0.9952261474221386
143,343.000,0.9940164229173548
144,344.000,0.9936121922094543
145,345.000,0.9932186815106253
146,346.000,0.9920128434738623
147,347.000,0.9909731842496715
148,348.000,0.9902245622298541
149,349.000,0.9882111405228077
150,350.000,0.9867443601462592
151,351.000,0.9879585947745699
152,352.000,0.9882690080149398
153,353.000,0.9866045904147491
154,354.000,0.9842179826567229
155,355.000,0.9817612255177496
156,356.000,0.9800567052688448
157,357.000,0.9805986478017129
158,358.000,0.9807258363872187
159,359.000,0.9793549499174263
160,360.000,0.9812279725444543
161,361.000,0.9839227308087107
162,362.000,0.9862009080432953
163,363.000,0.9869022267933576
164,364.000,0.987220004579348
165,365.000,0.986533040575245
166,366.000,0.9867673469910547
167,367.000,0.9852495601725448
168,368.000,0.9832327823871767
169,369.000,0.9794999656136179
170,370.000,0.9767974575528452
171,371.000,0.9763387529369957
172,372.000,0.9768283056794439
173,373.000,0.976351828179812
174,374.000,0.9768177920863319
175,375.000,0.9777574915970644
176,376.000,0.9790493655858423
177,377.000,0.9776544472153941
178,378.000,0.9779860479876423
179,379.000,0.9752506302257253
180,380.000,0.9734885710556466
181,381.000,0.972968385888441
182,382.000,0.9718254158654399
183,383.000,0.9708016956479731
184,384.000,0.9693329828469875
185,385.000,0.9696959163134645
186,386.000,0.9692490027378752
187,387.000,0.9688078464719073
188,388.000,0.9678731176485733
189,389.000,0.9669278484286232
190,390.000,0.9664211367077921
191,391.000,0.9653046781003023
192,392.000,0.9639929063123868
193,393.000,0.963249224352293
194,394.000,0.96227636918274
195,395.000,0.962178084515605
196,396.000,0.9624899730974814
197,397.000,0.9632983470055742
198,398.000,0.9636044476601556
199,399.000,0.9640282905123
200,400.000,0.9642797315924287
201,401.000,0.9639579507798302
202,402.000,0.9631269973215473
203,403.000,0.9607991463431487
204,404.000,0.9595691575289127
205,405.000,0.9572064443283524
206,406.000,0.957323003183037
207,407.000,0.957913352992002
208,408.000,0.9570687313725639
209,409.000,0.9572630349568
210,410.000,0.9581976266103034
211,411.000,0.9606744111825709
212,412.000,0.9624001624884806
213,413.000,0.9609473737080653
214,414.000,0.9597472541972107
215,415.000,0.95585886020486
216,416.000,0.9541801378398563
217,417.000,0.9536252502976544
218,418.000,0.9512060201478785
219,419.000,0.950678342692164
220,420.000,0.9492765770128416
221,421.000,0.949454814904886
222,422.000,0.9476542285831023
223,423.000,0.9440158191882743
224,424.000,0.9414135869999718
225,425.000,0.9384559704247849
226,426.000,0.9386723239259823
227,427.000,0.9394564309440429
228,428.000,0.9390439222410151
229,429.000,0.9395282171510431
230,430.000,0.9402493203620625
231,431.000,0.9411419965083475
232,432.000,0.9405835958131268
233,433.000,0.9402393390264435
234,434.000,0.9407880139621315
235,435.000,0.9389039131210836
236,436.000,0.9372462334225246
237,437.000,0.935596547901732
238,438.000,0.9318179554597052
239,439.000,0.930338157699307
240,440.000,0.929788647121621
241,441.000,0.9290282177940553
242,442.000,0.9275606713717287
243,443.000,0.9283945887017134
244,444.000,0.9293515638691481
245,445.000,0.9287438958838619
246,446.000,0.92957778846832
247,447.000,0.9303082560925318
248,448.000,0.9297306921351998
249,449.000,0.9292452030778535
250,450.000,0.9288329342208289
251,451.000,0.9256979814314648
252,452.000,0.9232371816790882
253,453.000,0.9220194156298168
254,454.000,0.919898366091955
255,455.000,0.9188574700233285
256,456.000,0.9175905255180069
257,457.000,0.9162187434305479
258,458.000,0.9148910800612304
259,459.000,0.9136591059305473
260,460.000,0.9120993307656141
261,461.000,0.9107307319669546
262,462.000,0.9107553097375877
263,463.000,0.9095580493443515
264,464.000,0.9104515432840402
265,465.000,0.9113655476405448
266,466.000,0.9105651310967097
267,467.000,0.9099090922064961
268,468.000,0.9094744844992919
269,469.000,0.9095079711795508
270,470.000,0.9072493538938167
271,471.000,0.9058420802758365
272,472.000,0.9034479155139213
273,473.000,0.9027076266311952
274,474.000,0.9018313607511416
275,475.000,0.8999909476117911
276,476.000,0.8979908910616179
277,477.000,0.8980602857058873
278,478.000,0.8984987286744676
279,479.000,0.9002182890536724
280,480.000,0.9001055463703485
281,481.000,0.8995933025706662
282,482.000,0.8968073050061339
283,483.000,0.895226401355516
284,484.000,0.892426194276405
285,485.000,0.8909184017817109
286,486.000,0.8904191911387658
287,487.000,0.8902156029874261
288,488.000,0.8898510325754944
289,489.000,0.890253396493192
290,490.000,0.8892853421215056
291,491.000,0.8873737690519906
292,492.000,0.8846526573469016
293,493.000,0.8820594357191461
294,494.000,0.8796515773045804
295,495.000,0.8787753004641483
296,496.000,0.8775023308625814
297,497.000,0.8763576807286324
298,498.000,0.8759454931749066
299,499.000,0.8756482853331994
300,500.000,0.8749053067177802
301,501.000,0.874982939569242
302,502.000,0.8749850532347299
303,503.000,0.8730024793312713
304,504.000,0.8704294731117064
305,505.000,0.8681875129921837
306,506.000,0.8649228262147849
307,507.000,0.8626624725474001
308,508.000,0.8602630210778451
309,509.000,0.8584276956035164
310,510.000,0.8582239142988728
311,511.000,0.8601663129143298
312,512.000,0.8601215839990284
313,513.000,0.8607618986432869
314,514.000,0.8584551469716848
315,515.000,0.8575889050918668
316,516.000,0.8561877579361078
317,517.000,0.8534750734605647
318,518.000,0.8517222193812128
319,519.000,0.8500881047271838
320,520.000,0.849580686770269
321,521.000,0.8495616749974573
322,522.000,0.8485676864148454
323,523.000,0.8486520636891418
324,524.000,0.8472249673482237
325,525.000,0.8484803161812124
326,526.000,0.8481403212375347
327,527.000,0.845579134632161
328,528.000,0.8452226381961225
329,529.000,0.8421860360508098
330,530.000,0.8394933390115034
331,531.000,0.8379490465951193
332,532.000,0.8373482256552246
333,533.000,0.8361844535160216
334,534.000,0.8342704717963948
335,535.000,0.8337860917913729
336,536.000,0.8321126742373232
337,537.000,0.8303776522962274
338,538.000,0.8294119977809925
339,539.000,0.8266284526950051
340,540.000,0.826375125052836
341,541.000,0.8257820854435949
342,542.000,0.8255250664468996
343,543.000,0.8244420522281584
344,544.000,0.8223316026372778
345,545.000,0.8225788360598781
346,546.000,0.8216802759763083
347,547.000,0.8202292413826425
348,548.000,0.8170794395469817
349,549.000,0.8140597927047238
350,550.000,0.8130563393205075
351,551.000,0.810903538151834
352,552.000,0.809293951478142
353,553.000,0.8074501297615957
354,554.000,0.8052043401599234
355,555.000,0.804377613688924
356,556.000,0.8031238326121801
357,557.000,0.8028664233232369
358,558.000,0.8005680194006296
359,559.000,0.7997481701808319
360,560.000,0.7994604213273359
361,561.000,0.7986355124821166
362,562.000,0.7971748545582927
363,563.000,0.7951309786118894
364,564.000,0.7926394937681709
365,565.000,0.7913026068084492
366,566.000,0.7899724869041952
367,567.000,0.7893252473242132
368,568.000,0.7865356516203402
369,569.000,0.7854266173206277
370,570.000,0.7849862156867972
371,571.000,0.7845523253097526
372,572.000,0.7838272975503686
373,573.000,0.7819965186415053
374,574.000,0.7801547245452927
375,575.000,0.7774580576558849
376,576.000,0.7754557126238536
377,577.000,0.7720132490039666
378,578.000,0.7690727688836883
379,579.000,0.7670282022260667
380,580.000,0.7655590066958736
381,581.000,0.7652588535177398
382,582.000,0.7637483742612998
383,583.000,0.7632010754003813
384,584.000,0.7638379135490351
385,585.000,0.7638537465372126
386,586.000,0.765171781623799
387,587.000,0.7632598908090694
388,588.000,0.7620037373571886
389,589.000,0.7610960385163217
390,590.000,0.758243119729427
391,591.000,0.7571415669249866
392,592.000,0.7534582888632225
393,593.000,0.7525937671189867
394,594.000,0.7522230510162804
395,595.000,0.7521044035163875
396,596.000,0.7529855773472135
397,597.000,0.7525242788073873
398,598.000,0.7526808149353058
399,599.000,0.7528450362447936
400,600.000,0.7528912345456249
401,601.000,0.7539297759836429
402,602.000,0.7526317517367633
403,603.000,0.7527425552619532
404,604.000,0.751648863857565
405,605.000,0.7512253717453488
406,606.000,0.7502401933903754
407,607.000,0.7492406606955192
408,608.000,0.7466715409646926
409,609.000,0.7462543458079123
410,610.000,0.7503054236277701
411,611.000,0.7545913323219396
412,612.000,0.7601632396235882
413,613.000,0.7684822039727264
414,614.000,0.7805443816021882
415,615.000,0.7974824906786917
416,616.000,0.8147182367015952
417,617.000,0.8312885301375948
418,618.000,0.8436746865812659
419,619.000,0.8541242753476429
420,620.000,0.8573224677865463
421,621.000,0.849955335210896
422,622.000,0.8365020913225778
423,623.000,0.8191679206683893
424,624.000,0.8004043625018844
425,625.000,0.7822409331871989
426,626.000,0.765142177651948
427,627.000,0.750361896422666
428,628.000,0.7397619688060829
429,629.000,0.7328170363423219
430,630.000,0.7242201519688215
431,631.000,0.7173895101212449
432,632.000,0.7131301654667799
433,633.000,0.7101816093707508
434,634.000,0.7077392150241415
435,635.000,0.703303042975257
436,636.000,0.6994185182873218
437,637.000,0.6961353206335666
438,638.000,0.692240755287219
439,639.000,0.689692869367468
440,640.000,0.685826928100026
441,641.000,0.6826710140158658
442,642.000,0.6814747668773287
443,643.000,0.6803821904534494
444,644.000,0.6783136012206116
445,645.000,0.6749743450227951
446,646.000,0.6731752289003687
447,647.000,0.6720277995800823
448,648.000,0.6699815395281291
449,649.000,0.6684123177253346
450,650.000,0.6667100291862664
451,651.000,0.6660648998636659
452,652.000,0.6665979219237156
453,653.000,0.6652012105086146
454,654.000,0.6633794050122143
455,655.000,0.6622524584604017
456,656.000,0.6612161965216063
457,657.000,0.658978339020782
458,658.000,0.6559335487426745
459,659.000,0.6511799960063775
460,660.000,0.6483528645830231
461,661.000,0.6483227439754478
462,662.000,0.6478520865710018
463,663.000,0.6478533584020637
464,664.000,0.6471805977706493
465,665.000,0.6454690122691815
466,666.000,0.6439738217887405
467,667.000,0.6415364096410076
468,668.000,0.6386982856335651
469,669.000,0.6353567665399984
470,670.000,0.6323948917493873
471,671.000,0.6308900698516648
472,672.000,0.6290265287191588
473,673.000,0.6289086917404465
474,674.000,0.6287011849835026
475,675.000,0.6267081902386026
476,676.000,0.6265167727521624
477,677.000,0.6243190143431382
478,678.000,0.6232677049756481
479,679.000,0.6215189154607875
480,680.000,0.6176000680696192
481,681.000,0.6152309465207606
482,682.000,0.6137242274851973
483,683.000,0.6114739361405852
484,684.000,0.6107765292169977
485,685.000,0.6081493049498654
486,686.000,0.6051989733066662
487,687.000,0.6024841424631456
488,688.000,0.6023258909111651
489,689.000,0.5998892737159364
490,690.000,0.5984415612771711
491,691.000,0.5979237120176345
492,692.000,0.5961715558606142
493,693.000,0.5920619318754075
494,694.000,0.5915432420359138
495,695.000,0.5904285785147715
496,696.000,0.5889835494448151
497,697.000,0.5892802603007803
498,698.000,0.5886781833559586
499,699.000,0.5866843175131926
500,700.000,0.5868417106939907
501,701.000,0.582642982785619
502,702.000,0.5792887312544076
503,703.000,0.575498711506829
504,704.000,0.5734697950919793
505,705.000,0.5731812657672153
506,706.000,0.5724492982015161
507,707.000,0.572111690223217
508,708.000,0.5722861252575476
509,709.000,0.5703834064226265
510,710.000,0.5694662201816765
511,711.000,0.566496324573929
512,712.000,0.5661329446076876
513,713.000,0.5647213574328449
514,714.000,0.5635456933905537
515,715.000,0.5627112211557516
516,716.000,0.5610224498905816
517,717.000,0.5599198349686654
518,718.000,0.5581940948612745
519,719.000,0.5549281740974805
520,720.000,0.5523892647926485
521,721.000,0.5499893453902223
522,722.000,0.5479145662567283
523,723.000,0.5455260729323963
524,724.000,0.5441335743397163
525,725.000,0.5405876448297706
526,726.000,0.5394289619999504
527,727.000,0.5374291436293508
528,728.000,0.5360186573327348
529,729.000,0.5354060686327811
530,730.000,0.5328260557470692
531,731.000,0.5318266235386253
532,732.000,0.5295446008709446
533,733.000,0.5279276981814578
534,734.000,0.5272555785555869
535,735.000,0.5242791720213476
536,736.000,0.5223377325755852
537,737.000,0.5193396752710723
538,738.000,0.5174251599556816
539,739.000,0.5160408606713885
540,740.000,0.5121168947250831
541,741.000,0.5106683811337929
542,742.000,0.5080803324646336
543,743.000,0.5071564825795677
544,744.000,0.5057798554032773
545,745.000,0.5041378082084417
546,746.000,0.5029209009021662
547,747.000,0.5009347087170917
548,748.000,0.5003428350555461
549,749.000,0.5007335156125979
550,750.000,0.5005261983244321
551,751.000,0.5027107401159179
552,752.000,0.5020602951907126
553,753.000,0.5008742295041488
554,754.000,0.49930042837029054
555,755.000,0.49654447278894503
556,756.000,0.4929985006830948
557,757.000,0.48745929020290435
558,758.000,0.4834594364984627
559,759.000,0.4823355223419055
560,760.000,0.4825882615011334
561,761.000,0.4845236513034415
562,762.000,0.482824280723293
563,763.000,0.4803008847819638
564,764.000,0.4786680036580072
565,765.000,0.47629455596080633
566,766.000,0.4727696210957216
567,767.000,0.4707911223452731
568,768.000,0.46883490908606595
569,769.000,0.46848951535163774
570,770.000,0.46812030810184624
571,771.000,0.4687474647792918
572,772.000,0.46779978625743684
573,773.000,0.4666383551449248
574,774.000,0.4663000824277237
575,775.000,0.46739256502261933
576,776.000,0.466634299232246
577,777.000,0.46715074138090107
578,778.000,0.4656558642923244
579,779.000,0.46389319606277657
580,780.000,0.46230688266028724
581,781.000,0.46230605507869027
582,782.000,0.4623400729443026
583,783.000,0.46281020311038346
584,784.000,0.46335281196013833
585,785.000,0.4661012765758088
586,786.000,0.4669847919368716
587,787.000,0.4694834676546979
588,788.000,0.47449263167216865
589,789.000,0.4799658569228465
590,790.000,0.4860891929815375
591,791.000,0.4945452052561909
592,792.000,0.5011981628029276
593,793.000,0.5083359923997194
594,794.000,0.5112188634215462
595,795.000,0.5115527882743359
596,796.000,0.506908351250389
597,797.000,0.5014644229534672
598,798.000,0.4940305698925434
599,799.000,0.48466084292892403
600,800.000,0.47319321195673353
601,801.000,0.4644533794526331
602,802.000,0.4552966211950959
603,803.000,0.44730360175771927
604,804.000,0.43879231874484825
605,805.000,0.4320907938765853
606,806.000,0.42598850119587933
607,807.000,0.42074709921237413
608,808.000,0.41658180060566025
609,809.000,0.4119775416953889
610,810.000,0.408155117372193
611,811.000,0.40741919462133525
612,812.000,0.4050210302463135
613,813.000,0.40081992956869233
614,814.000,0.39853891295174215
615,815.000,0.3963625524687639
616,816.000,0.3942355867376286
617,817.000,0.3915412702908723
618,818.000,0.38912652183669194
619,819.000,0.38672972791883276
620,820.000,0.3855544962641097
621,821.000,0.38408035397625656
622,822.000,0.38068203648770216
623,823.000,0.378916524197042
624,824.000,0.37771784398529323
625,825.000,0.3757219978354549
626,826.000,0.3748054583051563
627,827.000,0.374157568286642
628,828.000,0.37162500506057966
629,829.000,0.37163550198513123
630,830.000,0.36909579416610344
631,831.000,0.3676495744544675
632,832.000,0.3655201014814462
633,833.000,0.36505671699211567
634,834.000,0.36259101132651095
635,835.000,0.3611200229184944
636,836.000,0.35983130576791583
637,837.000,0.35885996832221884
638,838.000,0.35507627807862213
639,839.000,0.3527547108281638
640,840.000,0.3501878022721731
641,841.000,0.3495603342641831
642,842.000,0.3476110343170166
643,843.000,0.3466074189322391
644,844.000,0.3457408796627389
645,845.000,0.34501541852428425
646,846.000,0.3432654965439236
647,847.000,0.3422402430089445
648,848.000,0.33851771608758957
649,849.000,0.3352064539114804
650,850.000,0.332254339024146
651,851.000,0.3294004992160057
652,852.000,0.32765432496195995
653,853.000,0.32607208870563764
654,854.000,0.32521489305279866
655,855.000,0.3251782060814116
656,856.000,0.32537331103637024
657,857.000,0.32448433831656953
658,858.000,0.3229526572077536
659,859.000,0.32209805111668
660,860.000,0.3211682391571037
661,861.000,0.3196571305937872
662,862.000,0.31934320819663875
663,863.000,0.31653982718173773
664,864.000,0.31594598294572573
665,865.000,0.3155208497921601
666,866.000,0.31377235351784083
667,867.000,0.31118373064800825
668,868.000,0.30976354295443104
669,869.000,0.3086152793618584
670,870.000,0.30702281724521885
671,871.000,0.3035479322452751
672,872.000,0.3008054264480393
673,873.000,0.29743175698970564
674,874.000,0.2958027034659928
675,875.000,0.29447037994700026
676,876.000,0.29280686858668153
677,877.000,0.29231754322121184
678,878.000,0.29332449724369924
679,879.000,0.29255959145727334
680,880.000,0.29118509016660854
681,881.000,0.2895559403808712
682,882.000,0.28741882689558657
683,883.000,0.28562912143990554
684,884.000,0.2845612584461092
685,885.000,0.28283812889498106
686,886.000,0.28010639010304017
687,887.000,0.2774321032637197
688,888.000,0.2757907749154076
689,889.000,0.2728789410891269
690,890.000,0.2707321298521273
691,891.000,0.26849205524037434
692,892.000,0.2658656233364144
693,893.000,0.2638428332266858
694,894.000,0.2634399499567601
695,895.000,0.26242046330385355
696,896.000,0.26192701581492195
697,897.000,0.2598880383612258
698,898.000,0.2586592900158373
699,899.000,0.2572276438391665
700,900.000,0.25697230775366003
701,901.000,0.2564890902206789
702,902.000,0.2563465912317922
703,903.000,0.2551449163166628
704,904.000,0.2554605360724602
705,905.000,0.2561707151013731
706,906.000,0.25560417973619826
707,907.000,0.2518473436266885
708,908.000,0.24815380740427764
709,909.000,0.24553920431415518
710,910.000,0.2432482242165369
711,911.000,0.24139197881120336
712,912.000,0.23871965982623897
713,913.000,0.23673235815782187
714,914.000,0.23508973831360302
715,915.000,0.2339446299227814
716,916.000,0.23165470338130212
717,917.000,0.22867398960720323
718,918.000,0.2282553153817427
719,919.000,0.22781460286911825
720,920.000,0.22654507663870882
721,921.000,0.22642729808568543
722,922.000,0.2260748376007632
723,923.000,0.22550165370614078
724,924.000,0.22327367896497838
725,925.000,0.22128897718688018
726,926.000,0.2189921599078344
727,927.000,0.217844390184731
728,928.000,0.21850960587744364
729,929.000,0.21654997645349422
730,930.000,0.2141202307642348
731,931.000,0.21341470333949458
732,932.000,0.2118856383360958
733,933.000,0.2101793086887421
734,934.000,0.21031113219451522
735,935.000,0.20997761910063018
736,936.000,0.20921435452271675
737,937.000,0.20879724267055205
738,938.000,0.20709179622794585
739,939.000,0.20458985720967124
740,940.000,0.20261136660962248
741,941.000,0.2009856609875805
742,942.000,0.1976516226155953
743,943.000,0.19473399471366462
744,944.000,0.1934772912790601
745,945.000,0.19348997198901927
746,946.000,0.19288881600311694
747,947.000,0.19264073141784482
748,948.000,0.19188816924862348
749,949.000,0.19307092698957964
750,950.000,0.19389376984931833
751,951.000,0.19294790777825827
752,952.000,0.19206634314926124
753,953.000,0.19064288482777567
754,954.000,0.18935281469182663
755,955.000,0.1896003595054133
756,956.000,0.18691126639558134
757,957.000,0.18516475576994365
758,958.000,0.18340391888794758
759,959.000,0.18183148733062834
760,960.000,0.18132498882177786
761,961.000,0.1796792282432082
762,962.000,0.18018734438102393
763,963.000,0.18010069560466238
764,964.000,0.17717874798926675
765,965.000,0.17508934945680926
766,966.000,0.1728843313290131
767,967.000,0.17111188888475282
768,968.000,0.16871020207107615
769,969.000,0.16663319496118528
770,970.000,0.1662662707631087
771,971.000,0.1662298060502592
772,972.000,0.16683136000052665
773,973.000,0.16948200956283566
774,974.000,0.170812789784097
775,975.000,0.17359484462404434
776,976.000,0.17668195221373822
777,977.000,0.17594429015197224
778,978.000,0.1725846219558894
779,979.000,0.1689305428085848
780,980.000,0.1656391787701114
781,981.000,0.16354307920266734
782,982.000,0.16426667857669833
783,983.000,0.16749963529700596
784,984.000,0.1706884747995618
785,985.000,0.17527705360139015
786,986.000,0.18040994535534194
787,987.000,0.18471060530657346
788,988.000,0.1885283382220075
789,989.000,0.19373136014174713
790,990.000,0.20055863518917644
791,991.000,0.21087652993374606
792,992.000,0.22714283077881256
793,993.000,0.24455494668937774
794,994.000,0.27136651547639884
795,995.000,0.3153951484342953
796,996.000,0.400193032666002
797,997.000,0.5105364193114844
798,998.000,0.6467784400538286
799,999.000,0.7733053147610321
800,1000.000,0.8605908758595877
801,1001.000,0.8919174888645504
802,1002.000,0.8594320572676503
803,1003.000,0.7701230566483932
804,1004.000,0.6422330418652537
805,1005.000,0.5047788407318748
806,1006.000,0.39412469309141823
807,1007.000,0.30798111394610533
808,1008.000,0.2629979225578689
809,1009.000,0.23492949281520958
810,1010.000,0.2161447913890151
811,1011.000,0.19986729480002985
812,1012.000,0.18680794224694805
813,1013.000,0.17730121152329822
814,1014.000,0.17003325677253234
815,1015.000,0.1647706431258365
816,1016.000,0.16041919881815725
817,1017.000,0.15804359930346976
818,1018.000,0.1584740572433027
819,1019.000,0.15939284762355568
820,1020.000,0.16221627766336907
821,1021.000,0.16365120097817926
822,1022.000,0.1673917399415452
823,1023.000,0.17344012451350754
824,1024.000,0.18832278005335773
825,1025.000,0.20925024528969596
826,1026.000,0.24489305720235124
827,1027.000,0.2910232055006009
828,1028.000,0.344778552727743
829,1029.000,0.39371864700481185
830,1030.000,0.4285513828182965
831,1031.000,0.4399560575459589
832,1032.000,0.4254639044455763
833,1033.000,0.3877285011371029
834,1034.000,0.33852564553466136
835,1035.000,0.2816459784223821
836,1036.000,0.23255001391847138
837,1037.000,0.19195411012115499
838,1038.000,0.16626635985949212
839,1039.000,0.15053646859611441
840,1040.000,0.13782764827209382
841,1041.000,0.12885435633339667
842,1042.000,0.12044260092618114
843,1043.000,0.11314786477535578
844,1044.000,0.10980496740194132
845,1045.000,0.10511842750550224
846,1046.000,0.10097219047669226
847,1047.000,0.09755178760531213
848,1048.000,0.09494800130538018
849,1049.000,0.0927944891991295
850,1050.000,0.08856443007544101
851,1051.000,0.08681471040965709
852,1052.000,0.08504241854545236
853,1053.000,0.08426599281243995
854,1054.000,0.08431198335965015
855,1055.000,0.08347590461805983
856,1056.000,0.08345062303036381
857,1057.000,0.08303748258549112
858,1058.000,0.08125696776346784
859,1059.000,0.07956967332222131
860,1060.000,0.0761505616325721
861,1061.000,0.073629786397254
862,1062.000,0.07142120188366993
863,1063.000,0.07092573949486707
864,1064.000,0.0698465135944374
865,1065.000,0.06815821639313391
866,1066.000,0.0672196062049164
867,1067.000,0.06670103926787613
868,1068.000,0.0653374357305262
869,1069.000,0.0656189302006744
870,1070.000,0.06506220648455886
871,1071.000,0.06413458907358348
872,1072.000,0.0643340534195137
873,1073.000,0.06368633114842119
874,1074.000,0.0624563174964766
875,1075.000,0.060015683776321285
876,1076.000,0.057711655782179634
877,1077.000,0.05683304059240004
878,1078.000,0.055360386795730514
879,1079.000,0.053868933693778494
880,1080.000,0.05464607811801326
881,1081.000,0.05258232116000031
882,1082.000,0.05177203663694479
883,1083.000,0.04935579356094334
884,1084.000,0.048073639860215726
885,1085.000,0.04721641503947878
886,1086.000,0.0458749371204802
887,1087.000,0.0444015509954454
888,1088.000,0.042852349569070976
889,1089.000,0.04054222002495194
890,1090.000,0.03825599397647145
891,1091.000,0.035709513133081024
892,1092.000,0.03627447165542934
893,1093.000,0.036950810677824686
894,1094.000,0.038955533352578724
895,1095.000,0.042427067664408624
896,1096.000,0.04289564426231974
897,1097.000,0.04281497477456516
898,1098.000,0.04232896201539901
899,1099.000,0.0407661268045293
900,1100.000,0.03961844631690118
901,1101.000,0.04054409602601336
902,1102.000,0.04037658719206265
903,1103.000,0.04022665341938878
904,1104.000,0.04113555927225042
905,1105.000,0.03891623694638089
906,1106.000,0.03632648663880246
907,1107.000,0.03393030391000059
908,1108.000,0.03277604098954376
909,1109.000,0.0336144241427067
910,1110.000,0.035432844477861866
911,1111.000,0.03572041284605631
912,1112.000,0.03518243522316058
913,1113.000,0.03423482589035445
914,1114.000,0.03379459462098938
915,1115.000,0.0328299620546313
916,1116.000,0.03325136728357346
917,1117.000,0.03270813264052292
918,1118.000,0.03283791744094298
919,1119.000,0.03302322989448737
920,1120.000,0.03249116952657823
921,1121.000,0.03108366485574484
922,1122.000,0.029530758831899137
923,1123.000,0.027571763596563693
924,1124.000,0.02751015626290021
925,1125.000,0.02986425194191482
926,1126.000,0.029862581859244692
927,1127.000,0.029139600944607335
928,1128.000,0.026963286206496215
929,1129.000,0.024422200261476183
930,1130.000,0.022604671754075555
931,1131.000,0.022233852200309646
932,1132.000,0.022912980218209974
933,1133.000,0.024898712914900745
934,1134.000,0.02806178027729557
935,1135.000,0.03213680799212256
936,1136.000,0.03160363411476171
937,1137.000,0.03225820108334318
938,1138.000,0.02986274687478627
939,1139.000,0.02754446691230528
940,1140.000,0.027654612366361377
941,1141.000,0.029200543915979177
942,1142.000,0.0312456291017235
943,1143.000,0.0349477504238086
944,1144.000,0.03689183609374447
945,1145.000,0.03799210058109142
946,1146.000,0.04086924238921836
947,1147.000,0.04689341478239246
948,1148.000,0.053493055494496455
949,1149.000,0.06382873918102137
950,1150.000,0.0783334681701563
951,1151.000,0.09367746413383687
952,1152.000,0.10825056201965136
953,1153.000,0.12197906992008899
954,1154.000,0.12954501768230947
955,1155.000,0.13158901420914246
956,1156.000,0.13084649022714637
957,1157.000,0.12140194187240255
958,1158.000,0.10833363637096184
959,1159.000,0.09324072188954868
960,1160.000,0.07844545566108624
961,1161.000,0.06460894695234265
962,1162.000,0.053291422463038564
963,1163.000,0.04628578411090481
964,1164.000,0.043031939287936596
965,1165.000,0.039483758092572374
966,1166.000,0.037930075955554
967,1167.000,0.03561667794870216
968,1168.000,0.03338584839014392
969,1169.000,0.03349114726744688
970,1170.000,0.03295473996267343
971,1171.000,0.031150212374716997
972,1172.000,0.03211094760703038
973,1173.000,0.032816944496379646
974,1174.000,0.03587684387827325
975,1175.000,0.03957330047588366
976,1176.000,0.04520623429350448
977,1177.000,0.053878871361838124
978,1178.000,0.06374411139628534
979,1179.000,0.07554336371021525
980,1180.000,0.08504665402380195
981,1181.000,0.0934151815908573
982,1182.000,0.09999305414986799
983,1183.000,0.1005538764364463
984,1184.000,0.09786628594260256
985,1185.000,0.09255904888512183
986,1186.000,0.08284446438906465
987,1187.000,0.0728823034062527
988,1188.000,0.06014426071529847
989,1189.000,0.04749409067636012
990,1190.000,0.038212699874694285
991,1191.000,0.031159638930236815
992,1192.000,0.025934347040308645
993,1193.000,0.021139839130285696
994,1194.000,0.017750653446828357
995,1195.000,0.015283187946678696
996,1196.000,0.012967313274323499
997,1197.000,0.010591589716640933
998,1198.000,0.008495468252713308
999,1199.000,0.007206997898011644
1000,1200.000,0.008536237346382513
1001,1201.000,0.006760098188298117
1002,1202.000,0.007620765414192458
1003,1203.000,0.0067071016470468415
1004,1204.000,0.006342658606619116
1005,1205.000,0.00543065026797616
1006,1206.000,0.0051982433865622206
1007,1207.000,0.005557246178430818
1008,1208.000,0.007009540047612265
1009,1209.000,0.007528141256828538
1010,1210.000,0.008082806241667123
1011,1211.000,0.006110129217825589
1012,1212.000,0.00576181288656499
1013,1213.000,0.004169738417569582
1014,1214.000,0.0030530154094956744
1015,1215.000,0.0013314818127168448
1016,1216.000,0.0
1017,1217.000,0.0007968225638632138
1018,1218.000,0.0009515294758509625
1019,1219.000,0.0006553819161350544
1020,1220.000,0.0028850025429895225
1021,1221.000,0.001878482742609418
1022,1222.000,0.0026971974704660564
1023,1223.000,0.0027579774734377903
1024,1224.000,0.0033885067895026784
1025,1225.000,0.002434625111146521
1026,1226.000,0.0023962916173388836
1027,1227.000,0.0035647777248226033
1028,1228.000,0.0025317539495537155
1029,1229.000,0.0031176925834671032
1030,1230.000,0.00564410973383327
1031,1231.000,0.004498591335045772
1032,1232.000,0.0055391091583618145
1033,1233.000,0.005371658086914016
1034,1234.000,0.00535171326185048
1035,1235.000,0.003128740557316066
1036,1236.000,0.0023712366307483096
1037,1237.000,0.0015522822839492616
1038,1238.000,0.0011445926674419399
1039,1239.000,0.002846747745732245
1040,1240.000,0.0043218054110553085
1041,1241.000,0.004177843374281833
1042,1242.000,0.005495647858905232
1043,1243.000,0.006595404952665371
1044,1244.000,0.0059145952753303374
1045,1245.000,0.006453485370036617
1046,1246.000,0.007629992821702957
1047,1247.000,0.006385959680855803
1048,1248.000,0.006131239784169174
1049,1249.000,0.0058323082030795675
1050,1250.000,0.00531368568453258
1051,1251.000,0.004590798878416758
1052,1252.000,0.005617579553069412
1053,1253.000,0.0069512372987302826
1054,1254.000,0.007306647527299796
1055,1255.000,0.009022722720082256
1056,1256.000,0.00984136424198009
1057,1257.000,0.00893645978441714
1058,1258.000,0.009110528911536422
1059,1259.000,0.009518817095451744
1060,1260.000,0.009524869071229576
1061,1261.000,0.009549781825547944
1062,1262.000,0.009000274451289618
1063,1263.000,0.00904586543326401
1064,1264.000,0.008887609706515982
1065,1265.000,0.00895114912415193
1066,1266.000,0.010859731120094333
1067,1267.000,0.010836756355860871
1068,1268.000,0.011964322841595383
1069,1269.000,0.011774342981333848
1070,1270.000,0.012935828299528575
1071,1271.000,0.012894341308647337
1072,1272.000,0.011863412461233513
1073,1273.000,0.012680487579713967
1074,1274.000,0.012449720073129925
1075,1275.000,0.01355946440246211
1076,1276.000,0.015806931285961938
1077,1277.000,0.014511753548350383
1078,1278.000,0.016601897756086472
1079,1279.000,0.016204926850056655
1080,1280.000,0.018475751263469706
1081,1281.000,0.019466506804119904
1082,1282.000,0.01978198824595226
1083,1283.000,0.020102712864010816
1084,1284.000,0.01910851434147767
1085,1285.000,0.020233182539059685
1086,1286.000,0.02072408771669851
1087,1287.000,0.02022635361278446
1088,1288.000,0.022721519545507742
1089,1289.000,0.02316257585412717
1090,1290.000,0.023154179011632758
1091,1291.000,0.02413215422458283
1092,1292.000,0.024474171371384006
1093,1293.000,0.023863040970868363
1094,1294.000,0.024508011346964044
1095,1295.000,0.02384805389126346
1096,1296.000,0.0255163326634764
1097,1297.000,0.0261550239923749
1098,1298.000,0.027453309086779298
1099,1299.000,0.026674616571541677
1100,1300.000,0.025982248982818208
1101,1301.000,0.026662345363190773
1102,1302.000,0.026164708448156975
1103,1303.000,0.02524256882560642
1104,1304.000,0.024838919683466326
1105,1305.000,0.02539967628188266
1106,1306.000,0.02912016427564278
1107,1307.000,0.03054892198581202
1108,1308.000,0.03159529845840703
1109,1309.000,0.0338231866712511
1110,1310.000,0.036708379882376074
1111,1311.000,0.03859984500679286
1112,1312.000,0.03855858764510856
1113,1313.000,0.039278402152823355
1114,1314.000,0.03870798617639903
1115,1315.000,0.03968973590454064
1116,1316.000,0.04007547443791424
1117,1317.000,0.039596246757715906
1118,1318.000,0.03932668793683876
1119,1319.000,0.039529668967939045
1120,1320.000,0.03985884086584852
1121,1321.000,0.039314104240838484
1122,1322.000,0.037916477548077296
1123,1323.000,0.039271892121376856
1124,1324.000,0.0390846213198773
1125,1325.000,0.041535898506480276
1126,1326.000,0.04307633076339652
1127,1327.000,0.04419809661720353
1128,1328.000,0.04611865813850165
1129,1329.000,0.046939212794675715
1130,1330.000,0.04867863852492193
1131,1331.000,0.048144473588214505
1132,1332.000,0.046905010975073116
1133,1333.000,0.048155177852955866
1134,1334.000,0.04887277026162886
1135,1335.000,0.05039232901973741
1136,1336.000,0.05141949120669043
1137,1337.000,0.0519446996317444
1138,1338.000,0.053484800566281465
1139,1339.000,0.05512648472804896
1140,1340.000,0.05641023400974385
1141,1341.000,0.05655952383334356
1142,1342.000,0.05757840978434828
1143,1343.000,0.06048049944725565
1144,1344.000,0.06289367334381188
1145,1345.000,0.06320917811125779
1146,1346.000,0.06466650926661363
1147,1347.000,0.06299388808904194
1148,1348.000,0.06236499383469632
1149,1349.000,0.060139824203014954
1150,1350.000,0.05836993173367143
1151,1351.000,0.05882686794942853
1152,1352.000,0.061326578779059615
1153,1353.000,0.06472999244723082
1154,1354.000,0.07027165957763533
1155,1355.000,0.07343067350634289
1156,1356.000,0.07558079691001919
1157,1357.000,0.07430722614538576
1158,1358.000,0.07320430437480568
1159,1359.000,0.0696798145923406
1160,1360.000,0.0670109163667263
1161,1361.000,0.06560136274469512
1162,1362.000,0.06499726661733643
1163,1363.000,0.06711747950119946
1164,1364.000,0.07121804400379463
1165,1365.000,0.07327576447300556
1166,1366.000,0.07452498038040775
1167,1367.000,0.0746614459742344
1168,1368.000,0.07443584231562386
1169,1369.000,0.07545433336957252
1170,1370.000,0.07753892440026669
1171,1371.000,0.07984153883471382
1172,1372.000,0.0816839865319804
1173,1373.000,0.08451468863885721
1174,1374.000,0.08746002087717969
1175,1375.000,0.08867063474956405
1176,1376.000,0.08951345571978811
1177,1377.000,0.08784082352815098
1178,1378.000,0.08701624961939278
1179,1379.000,0.08899589254558583
1180,1380.000,0.0924888813153962
1181,1381.000,0.09388409022028392
1182,1382.000,0.09694261562361747
1183,1383.000,0.09923299007857454
1184,1384.000,0.10263683032040934
1185,1385.000,0.10466501440316249
1186,1386.000,0.10650205368334785
1187,1387.000,0.10530399536142133
1188,1388.000,0.10473789346517778
1189,1389.000,0.10589967605094608
1190,1390.000,0.10551978091362904
1191,1391.000,0.1024941424135209
1192,1392.000,0.1035765045775952
1193,1393.000,0.10236384669900216
1194,1394.000,0.10507934626953583
1195,1395.000,0.10735107772439012
1196,1396.000,0.11077690681364233
1197,1397.000,0.11297259113249652
1198,1398.000,0.11622603779894945
1199,1399.000,0.119586113733645
1200,1400.000,0.12112362145557361
1201,1401.000,0.12068649801521604
1202,1402.000,0.12304338317531927
1203,1403.000,0.12251166347467296
1204,1404.000,0.12453218540552186
1205,1405.000,0.12437857447749237
1206,1406.000,0.12486482394756808
1207,1407.000,0.1254257339425399
1208,1408.000,0.12790748526076298
1209,1409.000,0.12983588866375426
1210,1410.000,0.13043375094485796
1211,1411.000,0.13164646258713228
1212,1412.000,0.13471491793875692
1213,1413.000,0.13587930593014713
1214,1414.000,0.13774239245613767
1215,1415.000,0.13824544264514646
1216,1416.000,0.14123118498787396
1217,1417.000,0.14349987014871626
1218,1418.000,0.14502682052698557
1219,1419.000,0.1472300813211134
1220,1420.000,0.14913377329511
1221,1421.000,0.1525939760281231
1222,1422.000,0.1546593450422748
1223,1423.000,0.1563199221203382
1224,1424.000,0.15925277027916881
1225,1425.000,0.1612911491378724
1226,1426.000,0.16434633770773438
1227,1427.000,0.16488988554785888
1228,1428.000,0.1649571884716014
1229,1429.000,0.16825606347560704
1230,1430.000,0.1729955961190115
1231,1431.000,0.1779290194119169
1232,1432.000,0.18027716444799452
1233,1433.000,0.18510616519288592
1234,1434.000,0.19040472593427926
1235,1435.000,0.19516274357562302
1236,1436.000,0.20073892503917923
1237,1437.000,0.20787370301865812
1238,1438.000,0.21531976827607666
1239,1439.000,0.22501185135426918
1240,1440.000,0.23669369795862724
1241,1441.000,0.24893490363055876
1242,1442.000,0.2602204106370455
1243,1443.000,0.27479944093987496
1244,1444.000,0.2897312960086727
1245,1445.000,0.30769377611564674
1246,1446.000,0.3264176823268583
1247,1447.000,0.345872873312018
1248,1448.000,0.36012213829318573
1249,1449.000,0.3716667988420793
1250,1450.000,0.3790603165073797
1251,1451.000,0.3793093072364908
1252,1452.000,0.3686188558716315
1253,1453.000,0.3542960354859824
1254,1454.000,0.33908205205431363
1255,1455.000,0.32182762121025227
1256,1456.000,0.30540885694249126
1257,1457.000,0.29050087504025823
1258,1458.000,0.2767797919281538
1259,1459.000,0.2680606267785874
1260,1460.000,0.262410905308168
1261,1461.000,0.25697322653804744
1262,1462.000,0.24845172715633312
1263,1463.000,0.2438797267240247
1264,1464.000,0.24162847254841974
1265,1465.000,0.23807704287174547
1266,1466.000,0.23394271407046346
1267,1467.000,0.2323276287617345
1268,1468.000,0.22990999652549146
1269,1469.000,0.2286503209098836
1270,1470.000,0.22937908001820417
1271,1471.000,0.23048477291518538
1272,1472.000,0.23136917636923351
1273,1473.000,0.23286737021515203
1274,1474.000,0.2353512279503731
1275,1475.000,0.23468833991563784
1276,1476.000,0.23471649917917203
1277,1477.000,0.23744441823706344
1278,1478.000,0.23592524127305986
1279,1479.000,0.23704647453532993
1280,1480.000,0.23742165658305603
1281,1481.000,0.23827136250303613
1282,1482.000,0.24077572481645765
1283,1483.000,0.24342121625026103
1284,1484.000,0.2457574905936547
1285,1485.000,0.24473307856180365
1286,1486.000,0.24646184780674515
1287,1487.000,0.2484728138552661
1288,1488.000,0.2474146448360674
1289,1489.000,0.24925611830013503
1290,1490.000,0.2483629307537263
1291,1491.000,0.24874484728552596
1292,1492.000,0.25053785480901897
1293,1493.000,0.25232012843659934
1294,1494.000,0.2533770069767084
1295,1495.000,0.2538983844602131
1296,1496.000,0.2568872137055889
1297,1497.000,0.2601533263488454
1298,1498.000,0.26314996514782935
1299,1499.000,0.26623882489689027
1300,1500.000,0.26791320064738305
1301,1501.000,0.2681494646010284
1302,1502.000,0.2674057302226271
1303,1503.000,0.267287045576463
1304,1504.000,0.26679365854687304
1305,1505.000,0.26645149219723463
1306,1506.000,0.26707927158290096
1307,1507.000,0.2685319345769244
1308,1508.000,0.27135337439895224
1309,1509.000,0.2737628103292121
1310,1510.000,0.2771269828748569
1311,1511.000,0.2793927103165432
1312,1512.000,0.28066796059935517
1313,1513.000,0.2823281591214146
1314,1514.000,0.2853337689554845
1315,1515.000,0.286608407232438
1316,1516.000,0.2876506421421486
1317,1517.000,0.2904043141129771
1318,1518.000,0.2924580669487566
1319,1519.000,0.29474536017116515
1320,1520.000,0.2981028085707781
1321,1521.000,0.30114548943888025
1322,1522.000,0.3040418324996476
1323,1523.000,0.3063923281548044
1324,1524.000,0.3106912903600203
1325,1525.000,0.3133565766678694
1326,1526.000,0.3161289544921106
1327,1527.000,0.3175726638196874
1328,1528.000,0.3179584351567357
1329,1529.000,0.31864907388357944
1330,1530.000,0.3209163945280356
1331,1531.000,0.321104344230019
1332,1532.000,0.32427107703104735
1333,1533.000,0.32471536678264495
1334,1534.000,0.32508813272419945
1335,1535.000,0.32652479271073487
1336,1536.000,0.3280090479092181
1337,1537.000,0.32880681717401816
1338,1538.000,0.3310385202783757
1339,1539.000,0.3345867656943873
1340,1540.000,0.3388766526927087
1341,1541.000,0.34148473298700094
1342,1542.000,0.3446010827408221
1343,1543.000,0.34556026965577
1344,1544.000,0.34667927205258914
1345,1545.000,0.34903219525317314
1346,1546.000,0.352142657750037
1347,1547.000,0.355172288299822
1348,1548.000,0.35758889056672205
1349,1549.000,0.359772099882184
1350,1550.000,0.36199227179592725
1351,1551.000,0.363276456587874
1352,1552.000,0.3634795910183287
1353,1553.000,0.36328034812708826
1354,1554.000,0.36568824523023824
1355,1555.000,0.3683515291380818
1356,1556.000,0.37294860464036217
1357,1557.000,0.3765526104269317
1358,1558.000,0.3789539411510495
1359,1559.000,0.3816961631340494
1360,1560.000,0.3842894925384877
1361,1561.000,0.38723957123011127
1362,1562.000,0.39009251707241555
1363,1563.000,0.3925763552934316
1364,1564.000,0.39679397902267594
1365,1565.000,0.400672514960235
1366,1566.000,0.40343917763256
1367,1567.000,0.4070797806856973
1368,1568.000,0.4101432213500553
1369,1569.000,0.41363869492226285
1370,1570.000,0.4178128288516368
1371,1571.000,0.4240022759265616
1372,1572.000,0.4323978460352539
1373,1573.000,0.44178625543393474
1374,1574.000,0.4514720549881349
1375,1575.000,0.46358201432938206
1376,1576.000,0.4765166739526965
1377,1577.000,0.49433715870687456
1378,1578.000,0.5151128585496977
1379,1579.000,0.5393322499817107
1380,1580.000,0.5635497200715555
1381,1581.000,0.5847429070043944
1382,1582.000,0.6015549341989155
1383,1583.000,0.6089789483957291
1384,1584.000,0.6074874020358583
1385,1585.000,0.5983938551340644
1386,1586.000,0.5840075389729559
1387,1587.000,0.5697363522740818
1388,1588.000,0.5575857957734022
1389,1589.000,0.5487084906217415
1390,1590.000,0.5436606832561194
1391,1591.000,0.5458099304377434
1392,1592.000,0.5516914293589504
1393,1593.000,0.5620262009211855
1394,1594.000,0.5774027526532645
1395,1595.000,0.6021091125815432
1396,1596.000,0.6400712304494981
1397,1597.000,0.6977298234020592
1398,1598.000,0.7642810346934978
1399,1599.000,0.8405922883473761
1400,1600.000,0.9092012277101458
1401,1601.000,0.9594195457235809
1402,1602.000,0.9797332986696851
1403,1603.000,0.9694568759733921
1404,1604.000,0.9252270754562825
1405,1605.000,0.8600767613615014
1406,1606.000,0.7876413555562164
1407,1607.000,0.7208777655072218
1408,1608.000,0.6604957823056201
1409,1609.000,0.619629794142258
1410,1610.000,0.5862253543703597
1411,1611.000,0.5644359663107262
1412,1612.000,0.5505455388418512
1413,1613.000,0.5416160337003446
1414,1614.000,0.5323361321854636
1415,1615.000,0.5265749346589255
1416,1616.000,0.5241014416169286
1417,1617.000,0.521533083296522
1418,1618.000,0.5190542834477732
1419,1619.000,0.5185455061993756
1420,1620.000,0.5171777368663848
1421,1621.000,0.5183480947522567
1422,1622.000,0.5180957955530345
1423,1623.000,0.5181475798348352
1424,1624.000,0.518067786308078
1425,1625.000,0.5191011314371606
1426,1626.000,0.5214944178114588
1427,1627.000,0.5217613641991348
1428,1628.000,0.5234928652377487
1429,1629.000,0.5230186719785128
1430,1630.000,0.5238243995573719
1431,1631.000,0.5254677884606874
1432,1632.000,0.5254918488150563
1433,1633.000,0.5257375835134034
1434,1634.000,0.5270659539897582
1435,1635.000,0.5275088375781907
1436,1636.000,0.52870299013207
1437,1637.000,0.5307214755336929
1438,1638.000,0.5334620272488774
1439,1639.000,0.5352436187657961
1440,1640.000,0.5389332788932297
1441,1641.000,0.5423645050488813
1442,1642.000,0.5441189013885847
1443,1643.000,0.5439032049286111
1444,1644.000,0.5457897628594953
1445,1645.000,0.5463098322939545
1446,1646.000,0.5473479634549643
1447,1647.000,0.551316271998415
1448,1648.000,0.5545633841145896
1449,1649.000,0.5575744315147642
1450,1650.000,0.5608561929275081
1451,1651.000,0.562562917633546
1452,1652.000,0.5635868513265295
1453,1653.000,0.562937234726795
1454,1654.000,0.5653247141948905
1455,1655.000,0.5669614142759712
1456,1656.000,0.5683997249673803
1457,1657.000,0.5707539708437979
1458,1658.000,0.5738401224982581
1459,1659.000,0.5763259278354551
1460,1660.000,0.5779837946321196
1461,1661.000,0.5803849052684146
1462,1662.000,0.582037139922564
1463,1663.000,0.5824466874126943
1464,1664.000,0.584459955697468
1465,1665.000,0.5851468145908844
1466,1666.000,0.5871149485311569
1467,1667.000,0.588809178068747
1468,1668.000,0.5920373315548285
1469,1669.000,0.5943738926431991
1470,1670.000,0.5968897273261893
1471,1671.000,0.602017292879383
1472,1672.000,0.6043763948153565
1473,1673.000,0.6061748612445241
1474,1674.000,0.6074247366425461
1475,1675.000,0.6070427767216486
1476,1676.000,0.6075250251152557
1477,1677.000,0.6067283433128488
1478,1678.000,0.6074084305322092
1479,1679.000,0.6088735949474352
1480,1680.000,0.6125869629850491
1481,1681.000,0.6170518313753787
1482,1682.000,0.6198034257070353
1483,1683.000,0.6226779736319185
1484,1684.000,0.6260371737455566
1485,1685.000,0.6290428305946147
1486,1686.000,0.6307649398262496
1487,1687.000,0.6334881160805717
1488,1688.000,0.6350140043135524
1489,1689.000,0.6378739194791221
1490,1690.000,0.6408738287380672
1491,1691.000,0.6432235791071487
1492,1692.000,0.6437014406569593
1493,1693.000,0.6430325690497746
1494,1694.000,0.6437404545718619
1495,1695.000,0.6461914238985387
1496,1696.000,0.6502956998669922
1497,1697.000,0.6540187336287451
1498,1698.000,0.6560549828052912
1499,1699.000,0.6587366552420936
1500,1700.000,0.6612971075023634
1501,1701.000,0.6628718466423317
1502,1702.000,0.6636757310231862
1503,1703.000,0.6632939336501494
1504,1704.000,0.6641293066747723
1505,1705.000,0.6673550425425125
1506,1706.000,0.6700837231327726
1507,1707.000,0.6717004088125361
1508,1708.000,0.673188629124886
1509,1709.000,0.6739987958471324
1510,1710.000,0.6759111695650123
1511,1711.000,0.6775805420175153
1512,1712.000,0.6809432104905971
1513,1713.000,0.6853341044153703
1514,1714.000,0.6900820578798079
1515,1715.000,0.6945449817275893
1516,1716.000,0.6973670607168299
1517,1717.000,0.6985415723104427
1518,1718.000,0.6978460052787095
1519,1719.000,0.6980909388798578
1520,1720.000,0.6976423431062905
1521,1721.000,0.6991957557676937
1522,1722.000,0.7010195707698664
1523,1723.000,0.7030717915887488
1524,1724.000,0.7059301776733159
1525,1725.000,0.7086819497150867
1526,1726.000,0.7100187576912096
1527,1727.000,0.7104337100322121
1528,1728.000,0.7124856994938821
1529,1729.000,0.7154858898196103
1530,1730.000,0.7172883678365145
1531,1731.000,0.72153141564209
1532,1732.000,0.7256925679361065
1533,1733.000,0.7286495723382042
1534,1734.000,0.7309265444892179
1535,1735.000,0.7328897136847543
1536,1736.000,0.7332659536380046
1537,1737.000,0.7348505443915265
1538,1738.000,0.7368601526182071
1539,1739.000,0.7383085356440963
1540,1740.000,0.7387565381450861
1541,1741.000,0.7404907083087948
1542,1742.000,0.7426349530165078
1543,1743.000,0.7444576769281196
1544,1744.000,0.7455610524589854
1545,1745.000,0.7483213540803118
1546,1746.000,0.750326231582508
1547,1747.000,0.7526771397281079
1548,1748.000,0.7557886520025572
1549,1749.000,0.7572896913840935
1550,1750.000,0.7573023194787789
1551,1751.000,0.7578868094081876
1552,1752.000,0.760199753669784
1553,1753.000,0.7639730179833909
1554,1754.000,0.7674083302890873
1555,1755.000,0.7704705443886346
1556,1756.000,0.7730723645642434
1557,1757.000,0.7764323727909233
1558,1758.000,0.7790932590465184
1559,1759.000,0.7777976006942723
1560,1760.000,0.777265718885823
1561,1761.000,0.7766528091125188
1562,1762.000,0.7799129635003632
1563,1763.000,0.7815335722877425
1564,1764.000,0.7833699464821373
1565,1765.000,0.7834887866122566
1566,1766.000,0.7866933445112595
1567,1767.000,0.7905820542555955
1568,1768.000,0.7926700749457049
1569,1769.000,0.7936635646148555
1570,1770.000,0.794722013624363
1571,1771.000,0.7969132271802607
1572,1772.000,0.8009240849400907
1573,1773.000,0.8039550138743995
1574,1774.000,0.8063258687703811
1575,1775.000,0.8073070453531153
1576,1776.000,0.8112868720856579
1577,1777.000,0.8141311254848038
1578,1778.000,0.8171343752593737
1579,1779.000,0.8195664060758251
1580,1780.000,0.8196489736132049
1581,1781.000,0.8212286798992993
1582,1782.000,0.8235051399428287
1583,1783.000,0.8248076303821309
1584,1784.000,0.8249413811087585
1585,1785.000,0.8245596681508042
1586,1786.000,0.8275327847000468
1587,1787.000,0.8302660652499604
1588,1788.000,0.8342955272383309
1589,1789.000,0.835015028453329
1590,1790.000,0.8354471794949301
1591,1791.000,0.8355925719482228
1592,1792.000,0.8369569843377367
1593,1793.000,0.8383394812221262
1594,1794.000,0.8393610605490334
1595,1795.000,0.8397613449691789
1596,1796.000,0.8421459159787008
1597,1797.000,0.8449795049563954
1598,1798.000,0.8474222111287499
1599,1799.000,0.8489839688007713
1600,1800.000,0.8516618843951357
1601,1801.000,0.8538836034890529
1602,1802.000,0.8566038208940048
1603,1803.000,0.8586142892960533
1604,1804.000,0.8599461290937521
1605,1805.000,0.8596422715413212
1606,1806.000,0.8597814405968796
1607,1807.000,0.8614821882032976
1608,1808.000,0.8631452907309475
1609,1809.000,0.865394808627594
1610,1810.000,0.8670081375713102
1611,1811.000,0.8693064607438654
1612,1812.000,0.8702610026108348
1613,1813.000,0.8706634526470837
1614,1814.000,0.8729386918624679
1615,1815.000,0.8729815308224703
1616,1816.000,0.8744773946464885
1617,1817.000,0.8762618294100135
1618,1818.000,0.877935865177542
1619,1819.000,0.8786055684842737
1620,1820.000,0.8809763224379765
1621,1821.000,0.8820158896181246
1622,1822.000,0.8829906936624544
1623,1823.000,0.8845585869652456
1624,1824.000,0.8879552897025574
1625,1825.000,0.8896763427502404
1626,1826.000,0.8917740963125982
1627,1827.000,0.8934104548320508
1628,1828.000,0.896460491945682
1629,1829.000,0.8988669804278301
1630,1830.000,0.9016528062143495
1631,1831.000,0.9016648138483292
1632,1832.000,0.903460757162604
1633,1833.000,0.9035999103533215
1634,1834.000,0.9047067864032778
1635,1835.000,0.904491722499414
1636,1836.000,0.9049389287171873
1637,1837.000,0.9057513813871076
1638,1838.000,0.9088475137509551
1639,1839.000,0.909464526264956
1640,1840.000,0.9103911199552663
1641,1841.000,0.9106381589286945
1642,1842.000,0.9129226375450739
1643,1843.000,0.9140312568635061
1644,1844.000,0.9161028242083322
1645,1845.000,0.9182428367938601
1646,1846.000,0.9198754577537893
1647,1847.000,0.9213320228481566
1648,1848.000,0.9230873852193203
1649,1849.000,0.9224216215393183
1650,1850.000,0.9246160878981944
1651,1851.000,0.9241369616319188
1652,1852.000,0.9251884091127633
1653,1853.000,0.9263352656152941
1654,1854.000,0.9281800429633354
1655,1855.000,0.9293335778383239
1656,1856.000,0.9300614253776089
1657,1857.000,0.9321355376231367
1658,1858.000,0.9346634067102775
1659,1859.000,0.9375225396596103
1660,1860.000,0.9421979832785446
1661,1861.000,0.9451467407874063
1662,1862.000,0.9486463580206969
1663,1863.000,0.9506648567573195
1664,1864.000,0.9503313170582004
1665,1865.000,0.9483356010022127
1666,1866.000,0.9478681450244659
1667,1867.000,0.947437156484069
1668,1868.000,0.9479816358243951
1669,1869.000,0.9481984798274601
1670,1870.000,0.9487584988819038
1671,1871.000,0.9508550700070516
1672,1872.000,0.9524799150911121
1673,1873.000,0.9530054082072813
1674,1874.000,0.9514459223145154
1675,1875.000,0.9527768250772639
1676,1876.000,0.9545411604036665
1677,1877.000,0.9555538402755465
1678,1878.000,0.9568316516762397
1679,1879.000,0.9568971692564523
1680,1880.000,0.9584419815135107
1681,1881.000,0.9609308488878217
1682,1882.000,0.9615624399932166
1683,1883.000,0.9619423093613997
1684,1884.000,0.961084703235377
1685,1885.000,0.9619654621397695
1686,1886.000,0.9612067078709833
1687,1887.000,0.9624690072535895
1688,1888.000,0.9623558598837082
1689,1889.000,0.9640127283860783
1690,1890.000,0.966265753302467
1691,1891.000,0.9690221821973038
1692,1892.000,0.9708549247356966
1693,1893.000,0.9736667271187401
1694,1894.000,0.9738492340182173
1695,1895.000,0.9744357180944118
1696,1896.000,0.9753544515369148
1697,1897.000,0.9744424934904259
1698,1898.000,0.9733290750150363
1699,1899.000,0.973610243732056
1700,1900.000,0.9725385089357848
1701,1901.000,0.9731159537394661
1702,1902.000,0.9751786083676242
1703,1903.000,0.9774971908284112
1704,1904.000,0.9791155617863793
1705,1905.000,0.980588457729523
1706,1906.000,0.9805678666853387
1707,1907.000,0.9789227039525723
1708,1908.000,0.9784476785348697
1709,1909.000,0.9789284447277421
1710,1910.000,0.979445326291197
1711,1911.000,0.9799128612549844
1712,1912.000,0.9817012775427701
1713,1913.000,0.9839131488331148
1714,1914.000,0.984419944702771
1715,1915.000,0.984345112455532
1716,1916.000,0.9850155592220627
1717,1917.000,0.9866634223150597
1718,1918.000,0.9870873938317751
1719,1919.000,0.9892464467105234
1720,1920.000,0.9896725902562278
1721,1921.000,0.9898673179475802
1722,1922.000,0.991792658174909
1723,1923.000,0.9916875122856772
1724,1924.000,0.9913630073767451
1725,1925.000,0.9913392362544416
1726,1926.000,0.9909294261676115
1727,1927.000,0.991341806961023
1728,1928.000,0.9919790020274136
1729,1929.000,0.9921333440416139
1730,1930.000,0.9908605892616791
1731,1931.000,0.9916036503980379
1732,1932.000,0.9941939934927132
1733,1933.000,0.994549365192645
1734,1934.000,0.996969457806387
1735,1935.000,0.9977642588041681
1736,1936.000,0.995986951082466
1737,1937.000,0.9968903052774752
1738,1938.000,0.9975180879264085
1739,1939.000,0.9965421391024616
1740,1940.000,0.9950391619891228
1741,1941.000,0.9963743796484397
1742,1942.000,0.9976284383544161
1743,1943.000,0.9974125683881555
1744,1944.000,0.9981682336812548
1745,1945.000,0.997814392995525
1746,1946.000,0.9944370856807898
1747,1947.000,0.9923654181488476
1748,1948.000,0.9912378062152583
1749,1949.000,0.9904398795404612
1750,1950.000,0.9910129316466013
1751,1951.000,0.9938948320091677
1752,1952.000,0.9957476376847876
1753,1953.000,0.9973793452712034
1754,1954.000,0.9978927417544328
1755,1955.000,0.9966013781842968
1756,1956.000,0.9957691225855334
1757,1957.000,0.994887514829332
1758,1958.000,0.9951404656779319
1759,1959.000,0.9955028621690432
1760,1960.000,0.9958654555210099
1761,1961.000,0.9968244612231134
1762,1962.000,0.997487602479613
1763,1963.000,0.997468560757922
1764,1964.000,0.9967701492354161
1765,1965.000,0.9959396870452422
1766,1966.000,0.9955228716524279
1767,1967.000,0.9947304900218893
1768,1968.000,0.9922982640342547
1769,1969.000,0.9894991419426097
1770,1970.000,0.9875728932303356
1771,1971.000,0.9862515116810288
1772,1972.000,0.9872336921518463
1773,1973.000,0.9877078964488837
1774,1974.000,0.9886240611224547
1775,1975.000,0.9895903854508363
1776,1976.000,0.9901408098407092
1777,1977.000,0.9910352702020081
1778,1978.000,0.9905900793516391
1779,1979.000,0.9887222254764935
1780,1980.000,0.9885256332286162
1781,1981.000,0.9866925895775513
1782,1982.000,0.9877863688680968
1783,1983.000,0.986752353083693
1784,1984.000,0.9851679392163695
1785,1985.000,0.983964705195828
1786,1986.000,0.9811045899294364
1787,1987.000,0.980075621545863
1788,1988.000,0.977504178927275
1789,1989.000,0.9760305709949408
1790,1990.000,0.9767204705355599
1791,1991.000,0.9760270029045712
1792,1992.000,0.9771515788496652
1793,1993.000,0.9773839585247986
1794,1994.000,0.9772120410997874
1795,1995.000,0.9754160263734216
1796,1996.000,0.9728322065002252
1797,1997.000,0.9708244343792425
1798,1998.000,0.9700938228652328
1799,1999.000,0.971341484812956
1800,2000.000,0.9752685330771717
