raman_shift_cm-1,intensity
200.0000,0.000000
201.0000,0.000000
202.0000,0.000000
203.0000,0.000000
204.0000,0.000000
205.0000,0.000000
206.0000,0.000000
207.0000,0.000000
208.0000,0.000000
209.0000,0.000000
210.0000,0.000000
211.0000,0.000000
212.0000,0.000000
213.0000,0.000000
214.0000,0.000000
215.0000,0.000000
216.0000,0.000000
217.0000,0.000000
218.0000,0.000000
219.0000,0.000000
220.0000,0.000000
221.0000,0.000000
222.0000,0.000000
223.0000,0.000000
224.0000,0.000000
225.0000,0.000000
226.0000,0.000000
227.0000,0.000000
228.0000,0.000000
229.0000,0.000000
230.0000,0.000000
231.0000,0.000000
232.0000,0.000000
233.0000,0.000000
234.0000,0.000000
235.0000,0.000000
236.0000,0.000000
237.0000,0.000000
238.0000,0.000000
239.0000,0.000000
240.0000,0.000000
241.0000,0.000000
242.0000,0.000000
243.0000,0.000000
244.0000,0.000000
245.0000,0.000000
246.0000,0.000000
247.0000,0.000000
248.0000,0.000000
249.0000,0.000000
250.0000,0.000000
251.0000,0.000000
252.0000,0.000000
253.0000,0.000000
254.0000,0.000000
255.0000,0.000000
256.0000,0.000000
257.0000,0.000000
258.0000,0.000000
259.0000,0.000000
260.0000,0.000000
261.0000,0.000000
262.0000,0.000000
263.0000,0.000000
264.0000,0.000000
265.0000,0.000000
266.0000,0.000000
267.0000,0.000000
268.0000,0.000000
269.0000,0.000000
270.0000,0.000000
271.0000,0.000000
272.0000,0.000000
273.0000,0.000000
274.0000,0.000000
275.0000,0.000000
276.0000,0.000000
277.0000,0.000000
278.0000,0.000000
279.0000,0.000000
280.0000,0.000000
281.0000,0.000000
282.0000,0.000000
283.0000,0.000000
284.0000,0.000000
285.0000,0.000000
286.0000,0.000000
287.0000,0.000000
288.0000,0.000000
289.0000,0.000000
290.0000,0.000000
291.0000,0.000000
292.0000,0.000000
293.0000,0.000000
294.0000,0.000000
295.0000,0.000000
296.0000,0.000000
297.0000,0.000000
298.0000,0.000000
299.0000,0.000000
300.0000,0.000000
301.0000,0.000000
302.0000,0.000000
303.0000,0.000000
304.0000,0.000000
305.0000,0.000000
306.0000,0.000000
307.0000,0.000000
308.0000,0.000000
309.0000,0.000000
310.0000,0.000000
311.0000,0.000000
312.0000,0.000000
313.0000,0.000000
314.0000,0.000000
315.0000,0.000000
316.0000,0.000000
317.0000,0.000000
318.0000,0.000000
319.0000,0.000000
320.0000,0.000000
321.0000,0.000000
322.0000,0.000000
323.0000,0.000000
324.0000,0.000000
325.0000,0.000000
326.0000,0.000000
327.0000,0.000000
328.0000,0.000000
329.0000,0.000000
330.0000,0.000000
331.0000,0.000000
332.0000,0.000000
333.0000,0.000000
334.0000,0.000000
335.0000,0.000000
336.0000,0.000000
337.0000,0.000000
338.0000,0.000000
339.0000,0.000000
340.0000,0.000000
341.0000,0.000000
342.0000,0.000000
343.0000,0.000000
344.0000,0.000000
345.0000,0.000000
346.0000,0.000000
347.0000,0.000000
348.0000,0.000000
349.0000,0.000000
350.0000,0.000000
351.0000,0.000000
352.0000,0.000000
353.0000,0.000000
354.0000,0.000000
355.0000,0.000000
356.0000,0.000000
357.0000,0.000000
358.0000,0.000000
359.0000,0.000000
360.0000,0.000000
361.0000,0.000000
362.0000,0.000000
363.0000,0.000000
364.0000,0.000000
365.0000,0.000000
366.0000,0.000000
367.0000,0.000000
368.0000,0.000000
369.0000,0.000000
370.0000,0.000000
371.0000,0.000000
372.0000,0.000000
373.0000,0.000000
374.0000,0.000000
375.0000,0.000000
376.0000,0.000000
377.0000,0.000000
378.0000,0.000000
379.0000,0.000000
380.0000,0.000000
381.0000,0.000000
382.0000,0.000000
383.0000,0.000000
384.0000,0.000000
385.0000,0.000000
386.0000,0.000000
387.0000,0.000000
388.0000,0.000000
389.0000,0.000000
390.0000,0.000000
391.0000,0.000000
392.0000,0.000000
393.0000,0.000000
394.0000,0.000000
395.0000,0.000000
396.0000,0.000000
397.0000,0.000000
398.0000,0.000000
399.0000,0.000000
400.0000,0.000000
401.0000,0.000000
402.0000,0.000000
403.0000,0.000000
404.0000,0.000000
405.0000,0.000000
406.0000,0.000000
407.0000,0.000000
408.0000,0.000000
409.0000,0.000000
410.0000,0.000000
411.0000,0.000000
412.0000,0.000000
413.0000,0.000000
414.0000,0.000000
415.0000,0.000000
416.0000,0.000000
417.0000,0.000000
418.0000,0.000000
419.0000,0.000000
420.0000,0.000000
421.0000,0.000000
422.0000,0.000000
423.0000,0.000000
424.0000,0.000000
425.0000,0.000000
426.0000,0.000000
427.0000,0.000000
428.0000,0.000000
429.0000,0.000000
430.0000,0.000000
431.0000,0.000000
432.0000,0.000000
433.0000,0.000000
434.0000,0.000000
435.0000,0.000000
436.0000,0.000000
437.0000,0.000000
438.0000,0.000000
439.0000,0.000000
440.0000,0.000000
441.0000,0.000000
442.0000,0.000000
443.0000,0.000000
444.0000,0.000000
445.0000,0.000000
446.0000,0.000000
447.0000,0.000000
448.0000,0.000000
449.0000,0.000000
450.0000,0.000000
451.0000,0.000000
452.0000,0.000000
453.0000,0.000000
454.0000,0.000000
455.0000,0.000000
456.0000,0.000000
457.0000,0.000000
458.0000,0.000000
459.0000,0.000000
460.0000,0.000000
461.0000,0.000000
462.0000,0.000000
463.0000,0.000000
464.0000,0.000000
465.0000,0.000000
466.0000,0.000000
467.0000,0.000000
468.0000,0.000000
469.0000,0.000000
470.0000,0.000000
471.0000,0.000000
472.0000,0.000000
473.0000,0.000000
474.0000,0.000000
475.0000,0.000000
476.0000,0.000000
477.0000,0.000000
478.0000,0.000000
479.0000,0.000000
480.0000,0.000000
481.0000,0.000000
482.0000,0.000000
483.0000,0.000000
484.0000,0.000000
485.0000,0.000000
486.0000,0.000000
487.0000,0.000000
488.0000,0.000000
489.0000,0.000000
490.0000,0.000000
491.0000,0.000000
492.0000,0.000000
493.0000,0.000000
494.0000,0.000000
495.0000,0.000000
496.0000,0.000000
497.0000,0.000000
498.0000,0.000000
499.0000,0.000000
500.0000,0.000000
501.0000,0.000000
502.0000,0.000000
503.0000,0.000000
504.0000,0.000000
505.0000,0.000000
506.0000,0.000000
507.0000,0.000000
508.0000,0.000000
509.0000,0.000000
510.0000,0.000000
511.0000,0.000000
512.0000,0.000000
513.0000,0.000000
514.0000,0.000000
515.0000,0.000000
516.0000,0.000000
517.0000,0.000000
518.0000,0.000000
519.0000,0.000000
520.0000,0.000000
521.0000,0.000000
522.0000,0.000000
523.0000,0.000000
524.0000,0.000000
525.0000,0.000000
526.0000,0.000000
527.0000,0.000000
528.0000,0.000000
529.0000,0.000000
530.0000,0.000000
531.0000,0.000000
532.0000,0.000000
533.0000,0.000000
534.0000,0.000000
535.0000,0.000000
536.0000,0.000000
537.0000,0.000000
538.0000,0.000000
539.0000,0.000000
540.0000,0.000000
541.0000,0.000000
542.0000,0.000000
543.0000,0.000000
544.0000,0.000000
545.0000,0.000000
546.0000,0.000000
547.0000,0.000000
548.0000,0.000000
549.0000,0.000000
550.0000,0.000000
551.0000,0.000000
552.0000,0.000000
553.0000,0.000000
554.0000,0.000000
555.0000,0.000000
556.0000,0.000000
557.0000,0.000000
558.0000,0.000000
559.0000,0.000000
560.0000,0.000000
561.0000,0.000000
562.0000,0.000000
563.0000,0.000000
564.0000,0.000000
565.0000,0.000000
566.0000,0.000000
567.0000,0.000000
568.0000,0.000000
569.0000,0.000000
570.0000,0.000000
571.0000,0.000000
572.0000,0.000000
573.0000,0.000000
574.0000,0.000000
575.0000,0.000000
576.0000,0.000000
577.0000,0.000000
578.0000,0.000000
579.0000,0.000000
580.0000,0.000000
581.0000,0.000000
582.0000,0.000000
583.0000,0.000000
584.0000,0.000000
585.0000,0.000000
586.0000,0.000000
587.0000,0.000000
588.0000,0.000000
589.0000,0.000000
590.0000,0.000000
591.0000,0.000000
592.0000,0.000000
593.0000,0.000000
594.0000,0.000000
595.0000,0.000000
596.0000,0.000000
597.0000,0.000000
598.0000,0.000000
599.0000,0.000000
600.0000,0.000000
601.0000,0.000000
602.0000,0.000000
603.0000,0.000000
604.0000,0.000000
605.0000,0.000000
606.0000,0.000000
607.0000,0.000000
608.0000,0.000000
609.0000,0.000000
610.0000,0.000000
611.0000,0.000000
612.0000,0.000000
613.0000,0.000000
614.0000,0.000000
615.0000,0.000000
616.0000,0.000000
617.0000,0.000000
618.0000,0.000000
619.0000,0.000000
620.0000,0.000000
621.0000,0.000000
622.0000,0.000000
623.0000,0.000000
624.0000,0.000000
625.0000,0.000000
626.0000,0.000000
627.0000,0.000000
628.0000,0.000000
629.0000,0.000000
630.0000,0.000000
631.0000,0.000000
632.0000,0.000000
633.0000,0.000000
634.0000,0.000000
635.0000,0.000000
636.0000,0.000000
637.0000,0.000000
638.0000,0.000000
639.0000,0.000000
640.0000,0.000000
641.0000,0.000000
642.0000,0.000000
643.0000,0.000000
644.0000,0.000000
645.0000,0.000000
646.0000,0.000000
647.0000,0.000000
648.0000,0.000000
649.0000,0.000000
650.0000,0.000000
651.0000,0.000000
652.0000,0.000000
653.0000,0.000000
654.0000,0.000000
655.0000,0.000000
656.0000,0.000000
657.0000,0.000000
658.0000,0.000000
659.0000,0.000000
660.0000,0.000000
661.0000,0.000000
662.0000,0.000000
663.0000,0.000000
664.0000,0.000000
665.0000,0.000000
666.0000,0.000000
667.0000,0.000000
668.0000,0.000000
669.0000,0.000000
670.0000,0.000000
671.0000,0.000000
672.0000,0.000000
673.0000,0.000000
674.0000,0.000000
675.0000,0.000000
676.0000,0.000000
677.0000,0.000000
678.0000,0.000000
679.0000,0.000000
680.0000,0.000000
681.0000,0.000000
682.0000,0.000000
683.0000,0.000000
684.0000,0.000000
685.0000,0.000000
686.0000,0.000000
687.0000,0.000000
688.0000,0.000000
689.0000,0.000000
690.0000,0.000000
691.0000,0.000000
692.0000,0.000000
693.0000,0.000000
694.0000,0.000000
695.0000,0.000000
696.0000,0.000000
697.0000,0.000000
698.0000,0.000000
699.0000,0.000000
700.0000,0.000000
701.0000,0.000000
702.0000,0.000000
703.0000,0.000000
704.0000,0.000000
705.0000,0.000000
706.0000,0.000000
707.0000,0.000000
708.0000,0.000000
709.0000,0.000000
710.0000,0.000000
711.0000,0.000000
712.0000,0.000000
713.0000,0.000000
714.0000,0.000000
715.0000,0.000000
716.0000,0.000000
717.0000,0.000000
718.0000,0.000000
719.0000,0.000000
720.0000,0.000000
721.0000,0.000000
722.0000,0.000000
723.0000,0.000000
724.0000,0.000000
725.0000,0.000000
726.0000,0.000000
727.0000,0.000000
728.0000,0.000000
729.0000,0.000000
730.0000,0.000000
731.0000,0.000000
732.0000,0.000000
733.0000,0.000000
734.0000,0.000000
735.0000,0.000000
736.0000,0.000000
737.0000,0.000000
738.0000,0.000000
739.0000,0.000000
740.0000,0.000000
741.0000,0.000000
742.0000,0.000000
743.0000,0.000000
744.0000,0.000000
745.0000,0.000000
746.0000,0.000000
747.0000,0.000000
748.0000,0.000000
749.0000,0.000000
750.0000,0.000000
751.0000,0.000000
752.0000,0.000000
753.0000,0.000000
754.0000,0.000000
755.0000,0.000000
756.0000,0.000000
757.0000,0.000000
758.0000,0.000000
759.0000,0.000000
760.0000,0.000000
761.0000,0.000000
762.0000,0.000000
763.0000,0.000000
764.0000,0.000000
765.0000,0.000000
766.0000,0.000000
767.0000,0.000000
768.0000,0.000000
769.0000,0.000000
770.0000,0.000000
771.0000,0.000000
772.0000,0.000000
773.0000,0.000000
774.0000,0.000000
775.0000,0.000000
776.0000,0.000000
777.0000,0.000000
778.0000,0.000000
779.0000,0.000000
780.0000,0.000000
781.0000,0.000000
782.0000,0.000000
783.0000,0.000000
784.0000,0.000000
785.0000,0.000000
786.0000,0.000000
787.0000,0.000000
788.0000,0.000000
789.0000,0.000000
790.0000,0.000000
791.0000,0.000000
792.0000,0.000000
793.0000,0.000000
794.0000,0.000000
795.0000,0.000000
796.0000,0.000000
797.0000,0.000000
798.0000,0.000000
799.0000,0.000000
800.0000,0.000000
801.0000,0.000000
802.0000,0.000000
803.0000,0.000000
804.0000,0.000000
805.0000,0.000000
806.0000,0.000000
807.0000,0.000000
808.0000,0.000000
809.0000,0.000000
810.0000,0.000000
811.0000,0.000000
812.0000,0.000000
813.0000,0.000000
814.0000,0.000000
815.0000,0.000000
816.0000,0.000000
817.0000,0.000000
818.0000,0.000000
819.0000,0.000000
820.0000,0.000000
821.0000,0.000000
822.0000,0.000000
823.0000,0.000000
824.0000,0.000000
825.0000,0.000000
826.0000,0.000000
827.0000,0.000000
828.0000,0.000000
829.0000,0.000000
830.0000,0.000000
831.0000,0.000000
832.0000,0.000000
833.0000,0.000000
834.0000,0.000000
835.0000,0.000000
836.0000,0.000000
837.0000,0.000000
838.0000,0.000000
839.0000,0.000000
840.0000,0.000000
841.0000,0.000000
842.0000,0.000000
843.0000,0.000000
844.0000,0.000000
845.0000,0.000000
846.0000,0.000000
847.0000,0.000000
848.0000,0.000000
849.0000,0.000000
850.0000,0.000000
851.0000,0.000000
852.0000,0.000000
853.0000,0.000000
854.0000,0.000000
855.0000,0.000000
856.0000,0.000000
857.0000,0.000000
858.0000,0.000000
859.0000,0.000000
860.0000,0.000000
861.0000,0.000000
862.0000,0.000000
863.0000,0.000000
864.0000,0.000000
865.0000,0.000000
866.0000,0.000000
867.0000,0.000000
868.0000,0.000000
869.0000,0.000000
870.0000,0.000000
871.0000,0.000000
872.0000,0.000000
873.0000,0.000000
874.0000,0.000000
875.0000,0.000000
876.0000,0.000000
877.0000,0.000000
878.0000,0.000000
879.0000,0.000000
880.0000,0.000000
881.0000,0.000000
882.0000,0.000000
883.0000,0.000000
884.0000,0.000000
885.0000,0.000000
886.0000,0.000000
887.0000,0.000000
888.0000,0.000000
889.0000,0.000000
890.0000,0.000000
891.0000,0.000000
892.0000,0.000000
893.0000,0.000000
894.0000,0.000000
895.0000,0.000000
896.0000,0.000000
897.0000,0.000000
898.0000,0.000000
899.0000,0.000000
900.0000,0.000000
901.0000,0.000000
902.0000,0.000000
903.0000,0.000000
904.0000,0.000000
905.0000,0.000000
906.0000,0.000000
907.0000,0.000000
908.0000,0.000000
909.0000,0.000000
910.0000,0.000000
911.0000,0.000000
912.0000,0.000000
913.0000,0.000000
914.0000,0.000000
915.0000,0.000000
916.0000,0.000000
917.0000,0.000000
918.0000,0.000000
919.0000,0.000000
920.0000,0.000000
921.0000,0.000000
922.0000,0.000000
923.0000,0.000000
924.0000,0.000000
925.0000,0.000000
926.0000,0.000000
927.0000,0.000000
928.0000,0.000000
929.0000,0.000000
930.0000,0.000000
931.0000,0.000000
932.0000,0.000000
933.0000,0.000000
934.0000,0.000000
935.0000,0.000000
936.0000,0.000000
937.0000,0.000000
938.0000,0.000000
939.0000,0.000000
940.0000,0.000000
941.0000,0.000000
942.0000,0.000000
943.0000,0.000000
944.0000,0.000000
945.0000,0.000000
946.0000,0.000000
947.0000,0.000000
948.0000,0.000000
949.0000,0.000000
950.0000,0.000000
951.0000,0.000000
952.0000,0.000000
953.0000,0.000000
954.0000,0.000000
955.0000,0.000000
956.0000,0.000000
957.0000,0.000000
958.0000,0.000000
959.0000,0.000000
960.0000,0.000000
961.0000,0.000000
962.0000,0.000000
963.0000,0.000000
964.0000,0.000000
965.0000,0.000000
966.0000,0.000000
967.0000,0.000000
968.0000,0.000000
969.0000,0.000000
970.0000,0.000000
971.0000,0.000000
972.0000,0.000000
973.0000,0.000000
974.0000,0.000000
975.0000,0.000000
976.0000,0.000000
977.0000,0.000000
978.0000,0.000000
979.0000,0.000000
980.0000,0.000000
981.0000,0.000000
982.0000,0.000000
983.0000,0.000000
984.0000,0.000000
985.0000,0.000000
986.0000,0.000000
987.0000,0.000000
988.0000,0.000000
989.0000,0.000000
990.0000,0.000000
991.0000,0.000000
992.0000,0.000000
993.0000,0.000000
994.0000,0.000000
995.0000,0.000000
996.0000,0.000000
997.0000,0.000000
998.0000,0.000000
999.0000,0.000000
1000.0000,0.000000
1001.0000,0.000000
1002.0000,0.000000
1003.0000,0.000000
1004.0000,0.000000
1005.0000,0.000000
1006.0000,0.000000
1007.0000,0.000000
1008.0000,0.000000
1009.0000,0.000000
1010.0000,0.000000
1011.0000,0.000000
1012.0000,0.000000
1013.0000,0.000000
1014.0000,0.000000
1015.0000,0.000000
1016.0000,0.000000
1017.0000,0.000000
1018.0000,0.000000
1019.0000,0.000000
1020.0000,0.000000
1021.0000,0.000000
1022.0000,0.000000
1023.0000,0.000000
1024.0000,0.000000
1025.0000,0.000000
1026.0000,0.000000
1027.0000,0.000000
1028.0000,0.000000
1029.0000,0.000000
1030.0000,0.000000
1031.0000,0.000000
1032.0000,0.000000
1033.0000,0.000000
1034.0000,0.000000
1035.0000,0.000000
1036.0000,0.000000
1037.0000,0.000000
1038.0000,0.000000
1039.0000,0.000000
1040.0000,0.000000
1041.0000,0.000000
1042.0000,0.000000
1043.0000,0.000000
1044.0000,0.000000
1045.0000,0.000000
1046.0000,0.000000
1047.0000,0.000000
1048.0000,0.000000
1049.0000,0.000000
1050.0000,0.000000
1051.0000,0.000000
1052.0000,0.000000
1053.0000,0.000000
1054.0000,0.000000
1055.0000,0.000000
1056.0000,0.000000
1057.0000,0.000000
1058.0000,0.000000
1059.0000,0.000000
1060.0000,0.000000
1061.0000,0.000000
1062.0000,0.000000
1063.0000,0.000000
1064.0000,0.000000
1065.0000,0.000000
1066.0000,0.000000
1067.0000,0.000000
1068.0000,0.000000
1069.0000,0.000000
1070.0000,0.000000
1071.0000,0.000000
1072.0000,0.000000
1073.0000,0.000000
1074.0000,0.000000
1075.0000,0.000000
1076.0000,0.000000
1077.0000,0.000000
1078.0000,0.000000
1079.0000,0.000000
1080.0000,0.000000
1081.0000,0.000000
1082.0000,0.000000
1083.0000,0.000000
1084.0000,0.000000
1085.0000,0.000000
1086.0000,0.000000
1087.0000,0.000000
1088.0000,0.000000
1089.0000,0.000000
1090.0000,0.000000
1091.0000,0.000000
1092.0000,0.000000
1093.0000,0.000000
1094.0000,0.000000
1095.0000,0.000000
1096.0000,0.000000
1097.0000,0.000000
1098.0000,0.000000
1099.0000,0.000000
1100.0000,0.000000
1101.0000,0.000000
1102.0000,0.000000
1103.0000,0.000000
1104.0000,0.000000
1105.0000,0.000000
1106.0000,0.000000
1107.0000,0.000000
1108.0000,0.000000
1109.0000,0.000000
1110.0000,0.000000
1111.0000,0.000000
1112.0000,0.000000
1113.0000,0.000000
1114.0000,0.000000
1115.0000,0.000000
1116.0000,0.000000
1117.0000,0.000000
1118.0000,0.000000
1119.0000,0.000000
1120.0000,0.000000
1121.0000,0.000000
1122.0000,0.000000
1123.0000,0.000000
1124.0000,0.000000
1125.0000,0.000000
1126.0000,0.000000
1127.0000,0.000000
1128.0000,0.000000
1129.0000,0.000000
1130.0000,0.000000
1131.0000,0.000000
1132.0000,0.000000
1133.0000,0.000000
1134.0000,0.000000
1135.0000,0.000000
1136.0000,0.000000
1137.0000,0.000000
1138.0000,0.000000
1139.0000,0.000000
1140.0000,0.000000
1141.0000,0.000000
1142.0000,0.000000
1143.0000,0.000000
1144.0000,0.000000
1145.0000,0.000000
1146.0000,0.000000
1147.0000,0.000000
1148.0000,0.000000
1149.0000,0.000000
1150.0000,0.000000
1151.0000,0.000000
1152.0000,0.000000
1153.0000,0.000000
1154.0000,0.000000
1155.0000,0.000000
1156.0000,0.000000
1157.0000,0.000000
1158.0000,0.000000
1159.0000,0.000000
1160.0000,0.000000
1161.0000,0.000000
1162.0000,0.000000
1163.0000,0.000000
1164.0000,0.000000
1165.0000,0.000000
1166.0000,0.000000
1167.0000,0.000000
1168.0000,0.000000
1169.0000,0.000000
1170.0000,0.000000
1171.0000,0.000000
1172.0000,0.000000
1173.0000,0.000000
1174.0000,0.000000
1175.0000,0.000000
1176.0000,0.000000
1177.0000,0.000000
1178.0000,0.000000
1179.0000,0.000000
1180.0000,0.000000
1181.0000,0.000000
1182.0000,0.000000
1183.0000,0.000000
1184.0000,0.000000
1185.0000,0.000000
1186.0000,0.000000
1187.0000,0.000000
1188.0000,0.000000
1189.0000,0.000000
1190.0000,0.000000
1191.0000,0.000000
1192.0000,0.000000
1193.0000,0.000000
1194.0000,0.000000
1195.0000,0.000000
1196.0000,0.000000
1197.0000,0.000000
1198.0000,0.000000
1199.0000,0.000000
1200.0000,0.000000
1201.0000,0.000000
1202.0000,0.000000
1203.0000,0.000000
1204.0000,0.000000
1205.0000,0.000000
1206.0000,0.000000
1207.0000,0.000000
1208.0000,0.000000
1209.0000,0.000000
1210.0000,0.000000
1211.0000,0.000000
1212.0000,0.000000
1213.0000,0.000000
1214.0000,0.000000
1215.0000,0.000000
1216.0000,0.000000
1217.0000,0.000000
1218.0000,0.000000
1219.0000,0.000000
1220.0000,0.000000
1221.0000,0.000000
1222.0000,0.000000
1223.0000,0.000000
1224.0000,0.000000
1225.0000,0.000000
1226.0000,0.000000
1227.0000,0.000000
1228.0000,0.000000
1229.0000,0.000000
1230.0000,0.000000
1231.0000,0.000000
1232.0000,0.000000
1233.0000,0.000000
1234.0000,0.000000
1235.0000,0.000000
1236.0000,0.000000
1237.0000,0.000000
1238.0000,0.000000
1239.0000,0.000000
1240.0000,0.000000
1241.0000,0.000000
1242.0000,0.000000
1243.0000,0.000000
1244.0000,0.000000
1245.0000,0.000000
1246.0000,0.000000
1247.0000,0.000000
1248.0000,0.000000
1249.0000,0.000000
1250.0000,0.000000
1251.0000,0.000000
1252.0000,0.000000
1253.0000,0.000000
1254.0000,0.000000
1255.0000,0.000000
1256.0000,0.000000
1257.0000,0.000000
1258.0000,0.000000
1259.0000,0.000000
1260.0000,0.000000
1261.0000,0.000000
1262.0000,0.000000
1263.0000,0.000000
1264.0000,0.000000
1265.0000,0.000000
1266.0000,0.000000
1267.0000,0.000000
1268.0000,0.000000
1269.0000,0.000000
1270.0000,0.000000
1271.0000,0.000000
1272.0000,0.000000
1273.0000,0.000000
1274.0000,0.000000
1275.0000,0.000000
1276.0000,0.000000
1277.0000,0.000000
1278.0000,0.000000
1279.0000,0.000000
1280.0000,0.000000
1281.0000,0.000000
1282.0000,0.000000
1283.0000,0.000000
1284.0000,0.000000
1285.0000,0.000000
1286.0000,0.000000
1287.0000,0.000000
1288.0000,0.000000
1289.0000,0.000000
1290.0000,0.000000
1291.0000,0.000000
1292.0000,0.000000
1293.0000,0.000000
1294.0000,0.000000
1295.0000,0.000000
1296.0000,0.000000
1297.0000,0.000000
1298.0000,0.000000
1299.0000,0.000000
1300.0000,0.000000
1301.0000,0.000000
1302.0000,0.000000
1303.0000,0.000000
1304.0000,0.000000
1305.0000,0.000000
1306.0000,0.000000
1307.0000,0.000000
1308.0000,0.000000
1309.0000,0.000000
1310.0000,0.000000
1311.0000,0.000000
1312.0000,0.000000
1313.0000,0.000000
1314.0000,0.000000
1315.0000,0.000000
1316.0000,0.000000
1317.0000,0.000000
1318.0000,0.000000
1319.0000,0.000000
1320.0000,0.000000
1321.0000,0.000000
1322.0000,0.000000
1323.0000,0.000000
1324.0000,0.000000
1325.0000,0.000000
1326.0000,0.000000
1327.0000,0.000000
1328.0000,0.000000
1329.0000,0.000000
1330.0000,0.000000
1331.0000,0.000000
1332.0000,0.000000
1333.0000,0.000000
1334.0000,0.000000
1335.0000,0.000000
1336.0000,0.000000
1337.0000,0.000000
1338.0000,0.000000
1339.0000,0.000000
1340.0000,0.000000
1341.0000,0.000000
1342.0000,0.000000
1343.0000,0.000000
1344.0000,0.000000
1345.0000,0.000000
1346.0000,0.000000
1347.0000,0.000000
1348.0000,0.000000
1349.0000,0.000000
1350.0000,0.000000
1351.0000,0.000000
1352.0000,0.000000
1353.0000,0.000000
1354.0000,0.000000
1355.0000,0.000000
1356.0000,0.000000
1357.0000,0.000000
1358.0000,0.000000
1359.0000,0.000000
1360.0000,0.000000
1361.0000,0.000000
1362.0000,0.000000
1363.0000,0.000000
1364.0000,0.000000
1365.0000,0.000000
1366.0000,0.000000
1367.0000,0.000000
1368.0000,0.000000
1369.0000,0.000000
1370.0000,0.000000
1371.0000,0.000000
1372.0000,0.000000
1373.0000,0.000000
1374.0000,0.000000
1375.0000,0.000000
1376.0000,0.000000
1377.0000,0.000000
1378.0000,0.000000
1379.0000,0.000000
1380.0000,0.000000
1381.0000,0.000000
1382.0000,0.000000
1383.0000,0.000000
1384.0000,0.000000
1385.0000,0.000000
1386.0000,0.000000
1387.0000,0.000000
1388.0000,0.000000
1389.0000,0.000000
1390.0000,0.000000
1391.0000,0.000000
1392.0000,0.000000
1393.0000,0.000000
1394.0000,0.000000
1395.0000,0.000000
1396.0000,0.000000
1397.0000,0.000000
1398.0000,0.000000
1399.0000,0.000000
1400.0000,0.000000
1401.0000,0.000000
1402.0000,0.000000
1403.0000,0.000000
1404.0000,0.000000
1405.0000,0.000000
1406.0000,0.000000
1407.0000,0.000000
1408.0000,0.000000
1409.0000,0.000000
1410.0000,0.000000
1411.0000,0.000000
1412.0000,0.000000
1413.0000,0.000000
1414.0000,0.000000
1415.0000,0.000000
1416.0000,0.000000
1417.0000,0.000000
1418.0000,0.000000
1419.0000,0.000000
1420.0000,0.000000
1421.0000,0.000000
1422.0000,0.000000
1423.0000,0.000000
1424.0000,0.000000
1425.0000,0.000000
1426.0000,0.000000
1427.0000,0.000000
1428.0000,0.000000
1429.0000,0.000000
1430.0000,0.000000
1431.0000,0.000000
1432.0000,0.000000
1433.0000,0.000000
1434.0000,0.000000
1435.0000,0.000000
1436.0000,0.000000
1437.0000,0.000000
1438.0000,0.000000
1439.0000,0.000000
1440.0000,0.000000
1441.0000,0.000000
1442.0000,0.000000
1443.0000,0.000000
1444.0000,0.000000
1445.0000,0.000000
1446.0000,0.000000
1447.0000,0.000000
1448.0000,0.000000
1449.0000,0.000000
1450.0000,0.000000
1451.0000,0.000000
1452.0000,0.000000
1453.0000,0.000000
1454.0000,0.000000
1455.0000,0.000000
1456.0000,0.000000
1457.0000,0.000000
1458.0000,0.000000
1459.0000,0.000000
1460.0000,0.000000
1461.0000,0.000000
1462.0000,0.000000
1463.0000,0.000000
1464.0000,0.000000
1465.0000,0.000000
1466.0000,0.000000
1467.0000,0.000000
1468.0000,0.000000
1469.0000,0.000000
1470.0000,0.000000
1471.0000,0.000000
1472.0000,0.000000
1473.0000,0.000000
1474.0000,0.000000
1475.0000,0.000000
1476.0000,0.000000
1477.0000,0.000000
1478.0000,0.000000
1479.0000,0.000000
1480.0000,0.000000
1481.0000,0.000000
1482.0000,0.000000
1483.0000,0.000000
1484.0000,0.000000
1485.0000,0.000000
1486.0000,0.000000
1487.0000,0.000000
1488.0000,0.000000
1489.0000,0.000000
1490.0000,0.000000
1491.0000,0.000000
1492.0000,0.000000
1493.0000,0.000000
1494.0000,0.000000
1495.0000,0.000000
1496.0000,0.000000
1497.0000,0.000000
1498.0000,0.000000
1499.0000,0.000000
1500.0000,0.000000
1501.0000,0.000000
1502.0000,0.000000
1503.0000,0.000000
1504.0000,0.000000
1505.0000,0.000000
1506.0000,0.000000
1507.0000,0.000000
1508.0000,0.000000
1509.0000,0.000000
1510.0000,0.000000
1511.0000,0.000000
1512.0000,0.000000
1513.0000,0.000000
1514.0000,0.000000
1515.0000,0.000000
1516.0000,0.000000
1517.0000,0.000000
1518.0000,0.000000
1519.0000,0.000000
1520.0000,0.000000
1521.0000,0.000000
1522.0000,0.000000
1523.0000,0.000000
1524.0000,0.000000
1525.0000,0.000000
1526.0000,0.000000
1527.0000,0.000000
1528.0000,0.000000
1529.0000,0.000000
1530.0000,0.000000
1531.0000,0.000000
1532.0000,0.000000
1533.0000,0.000000
1534.0000,0.000000
1535.0000,0.000000
1536.0000,0.000000
1537.0000,0.000000
1538.0000,0.000000
1539.0000,0.000000
1540.0000,0.000000
1541.0000,0.000000
1542.0000,0.000000
1543.0000,0.000000
1544.0000,0.000000
1545.0000,0.000000
1546.0000,0.000000
1547.0000,0.000000
1548.0000,0.000000
1549.0000,0.000000
1550.0000,0.000000
1551.0000,0.000000
1552.0000,0.000000
1553.0000,0.000000
1554.0000,0.000000
1555.0000,0.000000
1556.0000,0.000000
1557.0000,0.000000
1558.0000,0.000000
1559.0000,0.000000
1560.0000,0.000000
1561.0000,0.000000
1562.0000,0.000000
1563.0000,0.000000
1564.0000,0.000000
1565.0000,0.000000
1566.0000,0.000000
1567.0000,0.000000
1568.0000,0.000000
1569.0000,0.000000
1570.0000,0.000000
1571.0000,0.000000
1572.0000,0.000000
1573.0000,0.000000
1574.0000,0.000000
1575.0000,0.000000
1576.0000,0.000000
1577.0000,0.000000
1578.0000,0.000000
1579.0000,0.000000
1580.0000,0.000000
1581.0000,0.000000
1582.0000,0.000000
1583.0000,0.000000
1584.0000,0.000000
1585.0000,0.000000
1586.0000,0.000000
1587.0000,0.000000
1588.0000,0.000000
1589.0000,0.000000
1590.0000,0.000000
1591.0000,0.000000
1592.0000,0.000000
1593.0000,0.000000
1594.0000,0.000000
1595.0000,0.000000
1596.0000,0.000000
1597.0000,0.000000
1598.0000,0.000000
1599.0000,0.000000
1600.0000,0.000000
1601.0000,0.000000
1602.0000,0.000000
1603.0000,0.000000
1604.0000,0.000000
1605.0000,0.000000
1606.0000,0.000000
1607.0000,0.000000
1608.0000,0.000000
1609.0000,0.000000
1610.0000,0.000000
1611.0000,0.000000
1612.0000,0.000000
1613.0000,0.000000
1614.0000,0.000000
1615.0000,0.000000
1616.0000,0.000000
1617.0000,0.000000
1618.0000,0.000000
1619.0000,0.000000
1620.0000,0.000000
1621.0000,0.000000
1622.0000,0.000000
1623.0000,0.000000
1624.0000,0.000000
1625.0000,0.000000
1626.0000,0.000000
1627.0000,0.000000
1628.0000,0.000000
1629.0000,0.000000
1630.0000,0.000000
1631.0000,0.000000
1632.0000,0.000000
1633.0000,0.000000
1634.0000,0.000000
1635.0000,0.000000
1636.0000,0.000000
1637.0000,0.000000
1638.0000,0.000000
1639.0000,0.000000
1640.0000,0.000000
1641.0000,0.000000
1642.0000,0.000000
1643.0000,0.000000
1644.0000,0.000000
1645.0000,0.000000
1646.0000,0.000000
1647.0000,0.000000
1648.0000,0.000000
1649.0000,0.000000
1650.0000,0.000000
1651.0000,0.000000
1652.0000,0.000000
1653.0000,0.000000
1654.0000,0.000000
1655.0000,0.000000
1656.0000,0.000000
1657.0000,0.000000
1658.0000,0.000000
1659.0000,0.000000
1660.0000,0.000000
1661.0000,0.000000
1662.0000,0.000000
1663.0000,0.000000
1664.0000,0.000000
1665.0000,0.000000
1666.0000,0.000000
1667.0000,0.000000
1668.0000,0.000000
1669.0000,0.000000
1670.0000,0.000000
1671.0000,0.000000
1672.0000,0.000000
1673.0000,0.000000
1674.0000,0.000000
1675.0000,0.000000
1676.0000,0.000000
1677.0000,0.000000
1678.0000,0.000000
1679.0000,0.000000
1680.0000,0.000000
1681.0000,0.000000
1682.0000,0.000000
1683.0000,0.000000
1684.0000,0.000000
1685.0000,0.000000
1686.0000,0.000000
1687.0000,0.000000
1688.0000,0.000000
1689.0000,0.000000
1690.0000,0.000000
1691.0000,0.000000
1692.0000,0.000000
1693.0000,0.000000
1694.0000,0.000000
1695.0000,0.000000
1696.0000,0.000000
1697.0000,0.000000
1698.0000,0.000000
1699.0000,0.000000
1700.0000,0.000000
1701.0000,0.000000
1702.0000,0.000000
1703.0000,0.000000
1704.0000,0.000000
1705.0000,0.000000
1706.0000,0.000000
1707.0000,0.000000
1708.0000,0.000000
1709.0000,0.000000
1710.0000,0.000000
1711.0000,0.000000
1712.0000,0.000000
1713.0000,0.000000
1714.0000,0.000000
1715.0000,0.000000
1716.0000,0.000000
1717.0000,0.000000
1718.0000,0.000000
1719.0000,0.000000
1720.0000,0.000000
1721.0000,0.000000
1722.0000,0.000000
1723.0000,0.000000
1724.0000,0.000000
1725.0000,0.000000
1726.0000,0.000000
1727.0000,0.000000
1728.0000,0.000000
1729.0000,0.000000
1730.0000,0.000000
1731.0000,0.000000
1732.0000,0.000000
1733.0000,0.000000
1734.0000,0.000000
1735.0000,0.000000
1736.0000,0.000000
1737.0000,0.000000
1738.0000,0.000000
1739.0000,0.000000
1740.0000,0.000000
1741.0000,0.000000
1742.0000,0.000000
1743.0000,0.000000
1744.0000,0.000000
1745.0000,0.000000
1746.0000,0.000000
1747.0000,0.000000
1748.0000,0.000000
1749.0000,0.000000
1750.0000,0.000000
1751.0000,0.000000
1752.0000,0.000000
1753.0000,0.000000
1754.0000,0.000000
1755.0000,0.000000
1756.0000,0.000000
1757.0000,0.000000
1758.0000,0.000000
1759.0000,0.000000
1760.0000,0.000000
1761.0000,0.000000
1762.0000,0.000000
1763.0000,0.000000
1764.0000,0.000000
1765.0000,0.000000
1766.0000,0.000000
1767.0000,0.000000
1768.0000,0.000000
1769.0000,0.000000
1770.0000,0.000000
1771.0000,0.000000
1772.0000,0.000000
1773.0000,0.000000
1774.0000,0.000000
1775.0000,0.000000
1776.0000,0.000000
1777.0000,0.000000
1778.0000,0.000000
1779.0000,0.000000
1780.0000,0.000000
1781.0000,0.000000
1782.0000,0.000000
1783.0000,0.000000
1784.0000,0.000000
1785.0000,0.000000
1786.0000,0.000000
1787.0000,0.000000
1788.0000,0.000000
1789.0000,0.000000
1790.0000,0.000000
1791.0000,0.000000
1792.0000,0.000000
1793.0000,0.000000
1794.0000,0.000000
1795.0000,0.000000
1796.0000,0.000000
1797.0000,0.000000
1798.0000,0.000000
1799.0000,0.000000
1800.0000,0.000000
1801.0000,0.000000
1802.0000,0.000000
1803.0000,0.000000
1804.0000,0.000000
1805.0000,0.000000
1806.0000,0.000000
1807.0000,0.000000
1808.0000,0.000000
1809.0000,0.000000
1810.0000,0.000000
1811.0000,0.000000
1812.0000,0.000000
1813.0000,0.000000
1814.0000,0.000000
1815.0000,0.000000
1816.0000,0.000000
1817.0000,0.000000
1818.0000,0.000000
1819.0000,0.000000
1820.0000,0.000000
1821.0000,0.000000
1822.0000,0.000000
1823.0000,0.000000
1824.0000,0.000000
1825.0000,0.000000
1826.0000,0.000000
1827.0000,0.000000
1828.0000,0.000000
1829.0000,0.000000
1830.0000,0.000000
1831.0000,0.000000
1832.0000,0.000000
1833.0000,0.000000
1834.0000,0.000000
1835.0000,0.000000
1836.0000,0.000000
1837.0000,0.000000
1838.0000,0.000000
1839.0000,0.000000
1840.0000,0.000000
1841.0000,0.000000
1842.0000,0.000000
1843.0000,0.000000
1844.0000,0.000000
1845.0000,0.000000
1846.0000,0.000000
1847.0000,0.000000
1848.0000,0.000000
1849.0000,0.000000
1850.0000,0.000000
1851.0000,0.000000
1852.0000,0.000000
1853.0000,0.000000
1854.0000,0.000000
1855.0000,0.000000
1856.0000,0.000000
1857.0000,0.000000
1858.0000,0.000000
1859.0000,0.000000
1860.0000,0.000000
1861.0000,0.000000
1862.0000,0.000000
1863.0000,0.000000
1864.0000,0.000000
1865.0000,0.000000
1866.0000,0.000000
1867.0000,0.000000
1868.0000,0.000000
1869.0000,0.000000
1870.0000,0.000000
1871.0000,0.000000
1872.0000,0.000000
1873.0000,0.000000
1874.0000,0.000000
1875.0000,0.000000
1876.0000,0.000000
1877.0000,0.000000
1878.0000,0.000000
1879.0000,0.000000
1880.0000,0.000000
1881.0000,0.000000
1882.0000,0.000000
1883.0000,0.000000
1884.0000,0.000000
1885.0000,0.000000
1886.0000,0.000000
1887.0000,0.000000
1888.0000,0.000000
1889.0000,0.000000
1890.0000,0.000000
1891.0000,0.000000
1892.0000,0.000000
1893.0000,0.000000
1894.0000,0.000000
1895.0000,0.000000
1896.0000,0.000000
1897.0000,0.000000
1898.0000,0.000000
1899.0000,0.000000
1900.0000,0.000000
1901.0000,0.000000
1902.0000,0.000000
1903.0000,0.000000
1904.0000,0.000000
1905.0000,0.000000
1906.0000,0.000000
1907.0000,0.000000
1908.0000,0.000000
1909.0000,0.000000
1910.0000,0.000000
1911.0000,0.000000
1912.0000,0.000000
1913.0000,0.000000
1914.0000,0.000000
1915.0000,0.000000
1916.0000,0.000000
1917.0000,0.000000
1918.0000,0.000000
1919.0000,0.000000
1920.0000,0.000000
1921.0000,0.000000
1922.0000,0.000000
1923.0000,0.000000
1924.0000,0.000000
1925.0000,0.000000
1926.0000,0.000000
1927.0000,0.000000
1928.0000,0.000000
1929.0000,0.000000
1930.0000,0.000000
1931.0000,0.000000
1932.0000,0.000000
1933.0000,0.000000
1934.0000,0.000000
1935.0000,0.000000
1936.0000,0.000000
1937.0000,0.000000
1938.0000,0.000000
1939.0000,0.000000
1940.0000,0.000000
1941.0000,0.000000
1942.0000,0.000000
1943.0000,0.000000
1944.0000,0.000000
1945.0000,0.000000
1946.0000,0.000000
1947.0000,0.000000
1948.0000,0.000000
1949.0000,0.000000
1950.0000,0.000000
1951.0000,0.000000
1952.0000,0.000000
1953.0000,0.000000
1954.0000,0.000000
1955.0000,0.000000
1956.0000,0.000000
1957.0000,0.000000
1958.0000,0.000000
1959.0000,0.000000
1960.0000,0.000000
1961.0000,0.000000
1962.0000,0.000000
1963.0000,0.000000
1964.0000,0.000000
1965.0000,0.000000
1966.0000,0.000000
1967.0000,0.000000
1968.0000,0.000000
1969.0000,0.000000
1970.0000,0.000000
1971.0000,0.000000
1972.0000,0.000000
1973.0000,0.000000
1974.0000,0.000000
1975.0000,0.000000
1976.0000,0.000000
1977.0000,0.000000
1978.0000,0.000000
1979.0000,0.000000
1980.0000,0.000000
1981.0000,0.000000
1982.0000,0.000000
1983.0000,0.000000
1984.0000,0.000000
1985.0000,0.000000
1986.0000,0.000000
1987.0000,0.000000
1988.0000,0.000000
1989.0000,0.000000
1990.0000,0.000000
1991.0000,0.000000
1992.0000,0.000000
1993.0000,0.000000
1994.0000,0.000000
1995.0000,0.000000
1996.0000,0.000000
1997.0000,0.000000
1998.0000,0.000000
1999.0000,0.000000
2000.0000,0.000000
