raman_shift_cm-1,intensity
200.0000,175.205940
201.0000,176.208469
202.0000,177.214705
203.0000,178.224649
204.0000,179.238301
205.0000,180.255661
206.0000,181.276728
207.0000,182.301503
208.0000,183.329985
209.0000,184.362176
210.0000,185.398074
211.0000,186.437680
212.0000,187.480994
213.0000,188.528016
214.0000,189.578746
215.0000,190.633184
216.0000,191.691330
217.0000,192.753185
218.0000,193.818747
219.0000,194.888017
220.0000,195.960996
221.0000,197.037683
222.0000,198.118079
223.0000,199.202182
224.0000,200.289994
225.0000,201.381515
226.0000,202.476743
227.0000,203.575681
228.0000,204.678327
229.0000,205.784681
230.0000,206.894745
231.0000,208.008516
232.0000,209.125997
233.0000,210.247186
234.0000,211.372085
235.0000,212.500692
236.0000,213.633008
237.0000,214.769033
238.0000,215.908767
239.0000,217.052210
240.0000,218.199362
241.0000,219.350223
242.0000,220.504794
243.0000,221.663074
244.0000,222.825063
245.0000,223.990761
246.0000,225.160169
247.0000,226.333287
248.0000,227.510114
249.0000,228.690650
250.0000,229.874896
251.0000,231.062852
252.0000,232.254518
253.0000,233.449894
254.0000,234.648979
255.0000,235.851775
256.0000,237.058280
257.0000,238.268495
258.0000,239.482421
259.0000,240.700057
260.0000,241.921403
261.0000,243.146459
262.0000,244.375226
263.0000,245.607704
264.0000,246.843891
265.0000,248.083790
266.0000,249.327399
267.0000,250.574719
268.0000,251.825750
269.0000,253.080491
270.0000,254.338944
271.0000,255.601107
272.0000,256.866982
273.0000,258.136568
274.0000,259.409865
275.0000,260.686874
276.0000,261.967594
277.0000,263.252025
278.0000,264.540168
279.0000,265.832023
280.0000,267.127589
281.0000,268.426868
282.0000,269.729858
283.0000,271.036560
284.0000,272.346975
285.0000,273.661102
286.0000,274.978941
287.0000,276.300492
288.0000,277.625756
289.0000,278.954732
290.0000,280.287421
291.0000,281.623823
292.0000,282.963938
293.0000,284.307766
294.0000,285.655307
295.0000,287.006561
296.0000,288.361529
297.0000,289.720209
298.0000,291.082604
299.0000,292.448712
300.0000,293.818534
301.0000,295.192069
302.0000,296.569319
303.0000,297.950282
304.0000,299.334960
305.0000,300.723353
306.0000,302.115459
307.0000,303.511281
308.0000,304.910817
309.0000,306.314068
310.0000,307.721034
311.0000,309.131715
312.0000,310.546111
313.0000,311.964223
314.0000,313.386050
315.0000,314.811593
316.0000,316.240852
317.0000,317.673826
318.0000,319.110517
319.0000,320.550924
320.0000,321.995048
321.0000,323.442888
322.0000,324.894445
323.0000,326.349718
324.0000,327.808709
325.0000,329.271417
326.0000,330.737843
327.0000,332.207986
328.0000,333.681847
329.0000,335.159426
330.0000,336.640722
331.0000,338.125738
332.0000,339.614471
333.0000,341.106924
334.0000,342.603095
335.0000,344.102985
336.0000,345.606595
337.0000,347.113924
338.0000,348.624973
339.0000,350.139742
340.0000,351.658230
341.0000,353.180440
342.0000,354.706369
343.0000,356.236020
344.0000,357.769391
345.0000,359.306484
346.0000,360.847299
347.0000,362.391835
348.0000,363.940093
349.0000,365.492073
350.0000,367.047776
351.0000,368.607201
352.0000,370.170350
353.0000,371.737222
354.0000,373.307817
355.0000,374.882136
356.0000,376.460180
357.0000,378.041948
358.0000,379.627440
359.0000,381.216658
360.0000,382.809601
361.0000,384.406269
362.0000,386.006664
363.0000,387.610785
364.0000,389.218632
365.0000,390.830207
366.0000,392.445508
367.0000,394.064538
368.0000,395.687295
369.0000,397.313781
370.0000,398.943996
371.0000,400.577940
372.0000,402.215613
373.0000,403.857016
374.0000,405.502150
375.0000,407.151014
376.0000,408.803610
377.0000,410.459937
378.0000,412.119996
379.0000,413.783788
380.0000,415.451312
381.0000,417.122570
382.0000,418.797562
383.0000,420.476288
384.0000,422.158749
385.0000,423.844946
386.0000,425.534878
387.0000,427.228547
388.0000,428.925952
389.0000,430.627095
390.0000,432.331976
391.0000,434.040596
392.0000,435.752955
393.0000,437.469053
394.0000,439.188892
395.0000,440.912473
396.0000,442.639794
397.0000,444.370858
398.0000,446.105665
399.0000,447.844216
400.0000,449.586511
401.0000,451.332551
402.0000,453.082337
403.0000,454.835869
404.0000,456.593149
405.0000,458.354177
406.0000,460.118953
407.0000,461.887480
408.0000,463.659756
409.0000,465.435784
410.0000,467.215565
411.0000,468.999098
412.0000,470.786386
413.0000,472.577428
414.0000,474.372227
415.0000,476.170782
416.0000,477.973096
417.0000,479.779168
418.0000,481.589000
419.0000,483.402593
420.0000,485.219949
421.0000,487.041068
422.0000,488.865951
423.0000,490.694600
424.0000,492.527016
425.0000,494.363200
426.0000,496.203154
427.0000,498.046878
428.0000,499.894375
429.0000,501.745645
430.0000,503.600689
431.0000,505.459511
432.0000,507.322110
433.0000,509.188489
434.0000,511.058648
435.0000,512.932590
436.0000,514.810317
437.0000,516.691830
438.0000,518.577130
439.0000,520.466220
440.0000,522.359101
441.0000,524.255776
442.0000,526.156246
443.0000,528.060513
444.0000,529.968580
445.0000,531.880448
446.0000,533.796120
447.0000,535.715598
448.0000,537.638884
449.0000,539.565981
450.0000,541.496891
451.0000,543.431617
452.0000,545.370161
453.0000,547.312526
454.0000,549.258714
455.0000,551.208730
456.0000,553.162574
457.0000,555.120251
458.0000,557.081764
459.0000,559.047116
460.0000,561.016309
461.0000,562.989349
462.0000,564.966237
463.0000,566.946978
464.0000,568.931576
465.0000,570.920033
466.0000,572.912355
467.0000,574.908546
468.0000,576.908609
469.0000,578.912550
470.0000,580.920371
471.0000,582.932080
472.0000,584.947679
473.0000,586.967175
474.0000,588.990572
475.0000,591.017875
476.0000,593.049091
477.0000,595.084225
478.0000,597.123283
479.0000,599.166271
480.0000,601.213196
481.0000,603.264064
482.0000,605.318882
483.0000,607.377656
484.0000,609.440395
485.0000,611.507107
486.0000,613.577798
487.0000,615.652477
488.0000,617.731153
489.0000,619.813834
490.0000,621.900530
491.0000,623.991250
492.0000,626.086004
493.0000,628.184803
494.0000,630.287656
495.0000,632.394576
496.0000,634.505573
497.0000,636.620660
498.0000,638.739850
499.0000,640.863155
500.0000,642.990588
501.0000,645.122165
502.0000,647.257899
503.0000,649.397807
504.0000,651.541904
505.0000,653.690207
506.0000,655.842733
507.0000,657.999501
508.0000,660.160530
509.0000,662.325839
510.0000,664.495450
511.0000,666.669383
512.0000,668.847663
513.0000,671.030313
514.0000,673.217357
515.0000,675.408822
516.0000,677.604735
517.0000,679.805125
518.0000,682.010022
519.0000,684.219458
520.0000,686.433465
521.0000,688.652080
522.0000,690.875337
523.0000,693.103276
524.0000,695.335937
525.0000,697.573362
526.0000,699.815598
527.0000,702.062690
528.0000,704.314689
529.0000,706.571647
530.0000,708.833620
531.0000,711.100666
532.0000,713.372848
533.0000,715.650230
534.0000,717.932881
535.0000,720.220876
536.0000,722.514291
537.0000,724.813209
538.0000,727.117717
539.0000,729.427908
540.0000,731.743879
541.0000,734.065737
542.0000,736.393591
543.0000,738.727559
544.0000,741.067770
545.0000,743.414355
546.0000,745.767460
547.0000,748.127238
548.0000,750.493851
549.0000,752.867476
550.0000,755.248300
551.0000,757.636524
552.0000,760.032365
553.0000,762.436053
554.0000,764.847839
555.0000,767.267990
556.0000,769.696796
557.0000,772.134568
558.0000,774.581642
559.0000,777.038383
560.0000,779.505184
561.0000,781.982472
562.0000,784.470710
563.0000,786.970401
564.0000,789.482094
565.0000,792.006383
566.0000,794.543922
567.0000,797.095419
568.0000,799.661656
569.0000,802.243484
570.0000,804.841843
571.0000,807.457762
572.0000,810.092379
573.0000,812.746949
574.0000,815.422860
575.0000,818.121651
576.0000,820.845032
577.0000,823.594906
578.0000,826.373397
579.0000,829.182879
580.0000,832.026014
581.0000,834.905796
582.0000,837.825597
583.0000,840.789228
584.0000,843.801010
585.0000,846.865853
586.0000,849.989359
587.0000,853.177935
588.0000,856.438941
589.0000,859.780857
590.0000,863.213492
591.0000,866.748240
592.0000,870.398387
593.0000,874.179500
594.0000,878.109896
595.0000,882.211237
596.0000,886.509265
597.0000,891.034739
598.0000,895.824610
599.0000,900.923527
600.0000,906.385756
601.0000,912.277658
602.0000,918.680891
603.0000,925.696560
604.0000,933.450614
605.0000,942.100853
606.0000,951.845975
607.0000,962.937118
608.0000,975.692198
609.0000,990.512825
610.0000,1007.902175
611.0000,1028.478804
612.0000,1052.974082
613.0000,1082.186200
614.0000,1116.837331
615.0000,1157.243385
616.0000,1202.684683
617.0000,1250.460091
618.0000,1295.008448
619.0000,1328.209173
620.0000,1342.116319
621.0000,1333.324482
622.0000,1305.239066
623.0000,1265.806019
624.0000,1223.145922
625.0000,1182.819935
626.0000,1147.529195
627.0000,1117.993380
628.0000,1093.896579
629.0000,1074.516620
630.0000,1059.055315
631.0000,1046.781291
632.0000,1037.075993
633.0000,1029.436246
634.0000,1023.460440
635.0000,1018.830659
636.0000,1015.295766
637.0000,1012.657063
638.0000,1010.756751
639.0000,1009.468879
640.0000,1008.692345
641.0000,1008.345490
642.0000,1008.361954
643.0000,1008.687470
644.0000,1009.277391
645.0000,1010.094765
646.0000,1011.108835
647.0000,1012.293857
648.0000,1013.628171
649.0000,1015.093459
650.0000,1016.674156
651.0000,1018.356976
652.0000,1020.130524
653.0000,1021.984992
654.0000,1023.911900
655.0000,1025.903891
656.0000,1027.954555
657.0000,1030.058291
658.0000,1032.210191
659.0000,1034.405933
660.0000,1036.641706
661.0000,1038.914139
662.0000,1041.220239
663.0000,1043.557344
664.0000,1045.923080
665.0000,1048.315323
666.0000,1050.732171
667.0000,1053.171913
668.0000,1055.633013
669.0000,1058.114082
670.0000,1060.613864
671.0000,1063.131224
672.0000,1065.665131
673.0000,1068.214648
674.0000,1070.778921
675.0000,1073.357173
676.0000,1075.948691
677.0000,1078.552826
678.0000,1081.168981
679.0000,1083.796610
680.0000,1086.435209
681.0000,1089.084315
682.0000,1091.743504
683.0000,1094.412380
684.0000,1097.090581
685.0000,1099.777771
686.0000,1102.473638
687.0000,1105.177894
688.0000,1107.890272
689.0000,1110.610521
690.0000,1113.338412
691.0000,1116.073728
692.0000,1118.816269
693.0000,1121.565848
694.0000,1124.322290
695.0000,1127.085432
696.0000,1129.855120
697.0000,1132.631213
698.0000,1135.413575
699.0000,1138.202082
700.0000,1140.996615
701.0000,1143.797065
702.0000,1146.603326
703.0000,1149.415301
704.0000,1152.232899
705.0000,1155.056032
706.0000,1157.884619
707.0000,1160.718583
708.0000,1163.557850
709.0000,1166.402354
710.0000,1169.252028
711.0000,1172.106811
712.0000,1174.966647
713.0000,1177.831478
714.0000,1180.701255
715.0000,1183.575928
716.0000,1186.455449
717.0000,1189.339775
718.0000,1192.228865
719.0000,1195.122677
720.0000,1198.021175
721.0000,1200.924322
722.0000,1203.832085
723.0000,1206.744431
724.0000,1209.661329
725.0000,1212.582749
726.0000,1215.508665
727.0000,1218.439048
728.0000,1221.373875
729.0000,1224.313121
730.0000,1227.256762
731.0000,1230.204777
732.0000,1233.157145
733.0000,1236.113847
734.0000,1239.074862
735.0000,1242.040173
736.0000,1245.009763
737.0000,1247.983614
738.0000,1250.961712
739.0000,1253.944041
740.0000,1256.930587
741.0000,1259.921336
742.0000,1262.916274
743.0000,1265.915390
744.0000,1268.918671
745.0000,1271.926106
746.0000,1274.937684
747.0000,1277.953394
748.0000,1280.973226
749.0000,1283.997171
750.0000,1287.025220
751.0000,1290.057364
752.0000,1293.093595
753.0000,1296.133904
754.0000,1299.178285
755.0000,1302.226729
756.0000,1305.279231
757.0000,1308.335783
758.0000,1311.396379
759.0000,1314.461013
760.0000,1317.529680
761.0000,1320.602373
762.0000,1323.679089
763.0000,1326.759822
764.0000,1329.844567
765.0000,1332.933320
766.0000,1336.026077
767.0000,1339.122834
768.0000,1342.223587
769.0000,1345.328333
770.0000,1348.437068
771.0000,1351.549789
772.0000,1354.666493
773.0000,1357.787179
774.0000,1360.911842
775.0000,1364.040480
776.0000,1367.173093
777.0000,1370.309676
778.0000,1373.450230
779.0000,1376.594751
780.0000,1379.743238
781.0000,1382.895691
782.0000,1386.052107
783.0000,1389.212486
784.0000,1392.376827
785.0000,1395.545129
786.0000,1398.717391
787.0000,1401.893613
788.0000,1405.073795
789.0000,1408.257936
790.0000,1411.446036
791.0000,1414.638095
792.0000,1417.834115
793.0000,1421.034093
794.0000,1424.238033
795.0000,1427.445933
796.0000,1430.657795
797.0000,1433.873619
798.0000,1437.093407
799.0000,1440.317160
800.0000,1443.544879
801.0000,1446.776565
802.0000,1450.012220
803.0000,1453.251845
804.0000,1456.495443
805.0000,1459.743015
806.0000,1462.994564
807.0000,1466.250091
808.0000,1469.509600
809.0000,1472.773092
810.0000,1476.040570
811.0000,1479.312036
812.0000,1482.587495
813.0000,1485.866949
814.0000,1489.150401
815.0000,1492.437855
816.0000,1495.729314
817.0000,1499.024781
818.0000,1502.324262
819.0000,1505.627759
820.0000,1508.935278
821.0000,1512.246822
822.0000,1515.562395
823.0000,1518.882004
824.0000,1522.205652
825.0000,1525.533345
826.0000,1528.865088
827.0000,1532.200887
828.0000,1535.540747
829.0000,1538.884675
830.0000,1542.232676
831.0000,1545.584756
832.0000,1548.940923
833.0000,1552.301184
834.0000,1555.665545
835.0000,1559.034013
836.0000,1562.406597
837.0000,1565.783304
838.0000,1569.164142
839.0000,1572.549120
840.0000,1575.938247
841.0000,1579.331530
842.0000,1582.728981
843.0000,1586.130608
844.0000,1589.536421
845.0000,1592.946431
846.0000,1596.360648
847.0000,1599.779083
848.0000,1603.201748
849.0000,1606.628655
850.0000,1610.059816
851.0000,1613.495243
852.0000,1616.934950
853.0000,1620.378950
854.0000,1623.827257
855.0000,1627.279885
856.0000,1630.736851
857.0000,1634.198169
858.0000,1637.663855
859.0000,1641.133926
860.0000,1644.608399
861.0000,1648.087293
862.0000,1651.570626
863.0000,1655.058417
864.0000,1658.550686
865.0000,1662.047453
866.0000,1665.548741
867.0000,1669.054571
868.0000,1672.564967
869.0000,1676.079951
870.0000,1679.599551
871.0000,1683.123790
872.0000,1686.652696
873.0000,1690.186296
874.0000,1693.724620
875.0000,1697.267698
876.0000,1700.815560
877.0000,1704.368239
878.0000,1707.925768
879.0000,1711.488184
880.0000,1715.055522
881.0000,1718.627821
882.0000,1722.205119
883.0000,1725.787458
884.0000,1729.374881
885.0000,1732.967433
886.0000,1736.565159
887.0000,1740.168110
888.0000,1743.776335
889.0000,1747.389887
890.0000,1751.008822
891.0000,1754.633197
892.0000,1758.263072
893.0000,1761.898511
894.0000,1765.539579
895.0000,1769.186344
896.0000,1772.838879
897.0000,1776.497259
898.0000,1780.161563
899.0000,1783.831874
900.0000,1787.508278
901.0000,1791.190866
902.0000,1794.879733
903.0000,1798.574978
904.0000,1802.276708
905.0000,1805.985033
906.0000,1809.700067
907.0000,1813.421933
908.0000,1817.150759
909.0000,1820.886680
910.0000,1824.629837
911.0000,1828.380382
912.0000,1832.138471
913.0000,1835.904270
914.0000,1839.677957
915.0000,1843.459716
916.0000,1847.249743
917.0000,1851.048246
918.0000,1854.855445
919.0000,1858.671572
920.0000,1862.496874
921.0000,1866.331612
922.0000,1870.176063
923.0000,1874.030522
924.0000,1877.895301
925.0000,1881.770734
926.0000,1885.657175
927.0000,1889.555001
928.0000,1893.464614
929.0000,1897.386445
930.0000,1901.320952
931.0000,1905.268625
932.0000,1909.229988
933.0000,1913.205604
934.0000,1917.196075
935.0000,1921.202048
936.0000,1925.224216
937.0000,1929.263327
938.0000,1933.320184
939.0000,1937.395655
940.0000,1941.490674
941.0000,1945.606251
942.0000,1949.743480
943.0000,1953.903545
944.0000,1958.087728
945.0000,1962.297425
946.0000,1966.534151
947.0000,1970.799559
948.0000,1975.095451
949.0000,1979.423793
950.0000,1983.786741
951.0000,1988.186656
952.0000,1992.626131
953.0000,1997.108017
954.0000,2001.635458
955.0000,2006.211925
956.0000,2010.841259
957.0000,2015.527718
958.0000,2020.276034
959.0000,2025.091478
960.0000,2029.979935
961.0000,2034.947990
962.0000,2040.003031
963.0000,2045.153372
964.0000,2050.408392
965.0000,2055.778703
966.0000,2061.276349
967.0000,2066.915045
968.0000,2072.710458
969.0000,2078.680549
970.0000,2084.845987
971.0000,2091.230643
972.0000,2097.862203
973.0000,2104.772912
974.0000,2112.000490
975.0000,2119.589267
976.0000,2127.591599
977.0000,2136.069634
978.0000,2145.097537
979.0000,2154.764309
980.0000,2165.177373
981.0000,2176.467163
982.0000,2188.793035
983.0000,2202.350901
984.0000,2217.383130
985.0000,2234.191420
986.0000,2253.153501
987.0000,2274.744705
988.0000,2299.565474
989.0000,2328.375528
990.0000,2362.134195
991.0000,2402.043001
992.0000,2449.578616
993.0000,2506.486819
994.0000,2574.673054
995.0000,2655.862439
996.0000,2750.813574
997.0000,2857.820274
998.0000,2970.459659
999.0000,3075.500510
1000.0000,3153.619213
1001.0000,3185.909698
1002.0000,3164.278779
1003.0000,3096.851965
1004.0000,3002.568561
1005.0000,2900.787277
1006.0000,2804.777337
1007.0000,2721.003730
1008.0000,2651.220258
1009.0000,2594.723145
1010.0000,2549.851403
1011.0000,2514.775645
1012.0000,2487.841417
1013.0000,2467.682902
1014.0000,2453.234467
1015.0000,2443.704829
1016.0000,2438.543697
1017.0000,2437.413328
1018.0000,2440.169504
1019.0000,2446.852830
1020.0000,2457.689353
1021.0000,2473.097272
1022.0000,2493.692182
1023.0000,2520.273831
1024.0000,2553.758266
1025.0000,2594.984891
1026.0000,2644.279424
1027.0000,2700.626199
1028.0000,2760.426726
1029.0000,2816.346968
1030.0000,2857.709219
1031.0000,2874.071021
1032.0000,2860.941283
1033.0000,2822.752345
1034.0000,2769.886264
1035.0000,2712.956951
1036.0000,2659.229366
1037.0000,2612.225459
1038.0000,2572.874339
1039.0000,2540.750629
1040.0000,2514.898352
1041.0000,2494.263192
1042.0000,2477.879381
1043.0000,2464.929791
1044.0000,2454.749174
1045.0000,2446.805966
1046.0000,2440.678807
1047.0000,2436.034307
1048.0000,2432.608207
1049.0000,2430.190213
1050.0000,2428.612102
1051.0000,2427.738499
1052.0000,2427.459783
1053.0000,2427.686610
1054.0000,2428.345703
1055.0000,2429.376579
1056.0000,2430.729014
1057.0000,2432.361055
1058.0000,2434.237460
1059.0000,2436.328465
1060.0000,2438.608802
1061.0000,2441.056914
1062.0000,2443.654321
1063.0000,2446.385115
1064.0000,2449.235541
1065.0000,2452.193656
1066.0000,2455.249053
1067.0000,2458.392633
1068.0000,2461.616405
1069.0000,2464.913338
1070.0000,2468.277219
1071.0000,2471.702546
1072.0000,2475.184432
1073.0000,2478.718526
1074.0000,2482.300942
1075.0000,2485.928205
1076.0000,2489.597199
1077.0000,2493.305126
1078.0000,2497.049468
1079.0000,2500.827955
1080.0000,2504.638540
1081.0000,2508.479373
1082.0000,2512.348781
1083.0000,2516.245251
1084.0000,2520.167413
1085.0000,2524.114027
1086.0000,2528.083972
1087.0000,2532.076234
1088.0000,2536.089896
1089.0000,2540.124134
1090.0000,2544.178207
1091.0000,2548.251453
1092.0000,2552.343280
1093.0000,2556.453167
1094.0000,2560.580658
1095.0000,2564.725357
1096.0000,2568.886928
1097.0000,2573.065094
1098.0000,2577.259634
1099.0000,2581.470381
1100.0000,2585.697227
1101.0000,2589.940115
1102.0000,2594.199051
1103.0000,2598.474096
1104.0000,2602.765371
1105.0000,2607.073065
1106.0000,2611.397431
1107.0000,2615.738795
1108.0000,2620.097563
1109.0000,2624.474224
1110.0000,2628.869359
1111.0000,2633.283652
1112.0000,2637.717901
1113.0000,2642.173030
1114.0000,2646.650104
1115.0000,2651.150351
1116.0000,2655.675177
1117.0000,2660.226198
1118.0000,2664.805269
1119.0000,2669.414517
1120.0000,2674.056385
1121.0000,2678.733685
1122.0000,2683.449658
1123.0000,2688.208049
1124.0000,2693.013195
1125.0000,2697.870134
1126.0000,2702.784739
1127.0000,2707.763881
1128.0000,2712.815626
1129.0000,2717.949488
1130.0000,2723.176734
1131.0000,2728.510775
1132.0000,2733.967651
1133.0000,2739.566649
1134.0000,2745.331091
1135.0000,2751.289341
1136.0000,2757.476099
1137.0000,2763.934082
1138.0000,2770.716196
1139.0000,2777.888360
1140.0000,2785.533183
1141.0000,2793.754697
1142.0000,2802.684404
1143.0000,2812.488787
1144.0000,2823.378173
1145.0000,2835.616087
1146.0000,2849.526498
1147.0000,2865.492466
1148.0000,2883.932056
1149.0000,2905.223514
1150.0000,2929.532284
1151.0000,2956.481359
1152.0000,2984.655828
1153.0000,3011.142674
1154.0000,3031.688230
1155.0000,3042.130307
1156.0000,3040.685094
1157.0000,3029.136351
1158.0000,3011.646214
1159.0000,2992.468299
1160.0000,2974.515571
1161.0000,2959.202890
1162.0000,2946.907209
1163.0000,2937.463031
1164.0000,2930.492055
1165.0000,2925.576164
1166.0000,2922.332239
1167.0000,2920.436257
1168.0000,2919.624635
1169.0000,2919.686987
1170.0000,2920.456771
1171.0000,2921.802424
1172.0000,2923.619850
1173.0000,2925.826378
1174.0000,2928.356021
1175.0000,2931.155806
1176.0000,2934.182947
1177.0000,2937.402672
1178.0000,2940.786542
1179.0000,2944.311158
1180.0000,2947.957155
1181.0000,2951.708409
1182.0000,2955.551426
1183.0000,2959.474849
1184.0000,2963.469073
1185.0000,2967.525935
1186.0000,2971.638465
1187.0000,2975.800688
1188.0000,2980.007455
1189.0000,2984.254317
1190.0000,2988.537410
1191.0000,2992.853370
1192.0000,2997.199256
1193.0000,3001.572487
1194.0000,3005.970794
1195.0000,3010.392173
1196.0000,3014.834850
1197.0000,3019.297252
1198.0000,3023.777978
1199.0000,3028.275777
1200.0000,3032.789531
1201.0000,3037.318237
1202.0000,3041.860995
1203.0000,3046.416992
1204.0000,3050.985497
1205.0000,3055.565846
1206.0000,3060.157440
1207.0000,3064.759733
1208.0000,3069.372230
1209.0000,3073.994478
1210.0000,3078.626066
1211.0000,3083.266617
1212.0000,3087.915785
1213.0000,3092.573255
1214.0000,3097.238735
1215.0000,3101.911959
1216.0000,3106.592680
1217.0000,3111.280670
1218.0000,3115.975721
1219.0000,3120.677639
1220.0000,3125.386244
1221.0000,3130.101370
1222.0000,3134.822862
1223.0000,3139.550578
1224.0000,3144.284383
1225.0000,3149.024155
1226.0000,3153.769776
1227.0000,3158.521140
1228.0000,3163.278146
1229.0000,3168.040700
1230.0000,3172.808713
1231.0000,3177.582103
1232.0000,3182.360794
1233.0000,3187.144712
1234.0000,3191.933790
1235.0000,3196.727964
1236.0000,3201.527175
1237.0000,3206.331365
1238.0000,3211.140482
1239.0000,3215.954475
1240.0000,3220.773299
1241.0000,3225.596907
1242.0000,3230.425259
1243.0000,3235.258315
1244.0000,3240.096038
1245.0000,3244.938391
1246.0000,3249.785343
1247.0000,3254.636861
1248.0000,3259.492915
1249.0000,3264.353478
1250.0000,3269.218522
1251.0000,3274.088022
1252.0000,3278.961954
1253.0000,3283.840295
1254.0000,3288.723024
1255.0000,3293.610120
1256.0000,3298.501564
1257.0000,3303.397337
1258.0000,3308.297422
1259.0000,3313.201802
1260.0000,3318.110461
1261.0000,3323.023385
1262.0000,3327.940559
1263.0000,3332.861970
1264.0000,3337.787604
1265.0000,3342.717451
1266.0000,3347.651498
1267.0000,3352.589735
1268.0000,3357.532151
1269.0000,3362.478736
1270.0000,3367.429482
1271.0000,3372.384379
1272.0000,3377.343419
1273.0000,3382.306594
1274.0000,3387.273898
1275.0000,3392.245322
1276.0000,3397.220862
1277.0000,3402.200509
1278.0000,3407.184260
1279.0000,3412.172107
1280.0000,3417.164048
1281.0000,3422.160075
1282.0000,3427.160187
1283.0000,3432.164377
1284.0000,3437.172644
1285.0000,3442.184982
1286.0000,3447.201391
1287.0000,3452.221865
1288.0000,3457.246404
1289.0000,3462.275005
1290.0000,3467.307667
1291.0000,3472.344386
1292.0000,3477.385163
1293.0000,3482.429997
1294.0000,3487.478885
1295.0000,3492.531829
1296.0000,3497.588827
1297.0000,3502.649881
1298.0000,3507.714989
1299.0000,3512.784153
1300.0000,3517.857373
1301.0000,3522.934651
1302.0000,3528.015988
1303.0000,3533.101386
1304.0000,3538.190846
1305.0000,3543.284371
1306.0000,3548.381963
1307.0000,3553.483626
1308.0000,3558.589361
1309.0000,3563.699173
1310.0000,3568.813065
1311.0000,3573.931041
1312.0000,3579.053105
1313.0000,3584.179262
1314.0000,3589.309517
1315.0000,3594.443875
1316.0000,3599.582341
1317.0000,3604.724922
1318.0000,3609.871624
1319.0000,3615.022454
1320.0000,3620.177418
1321.0000,3625.336525
1322.0000,3630.499782
1323.0000,3635.667197
1324.0000,3640.838779
1325.0000,3646.014538
1326.0000,3651.194482
1327.0000,3656.378624
1328.0000,3661.566972
1329.0000,3666.759539
1330.0000,3671.956337
1331.0000,3677.157377
1332.0000,3682.362673
1333.0000,3687.572239
1334.0000,3692.786089
1335.0000,3698.004238
1336.0000,3703.226702
1337.0000,3708.453498
1338.0000,3713.684643
1339.0000,3718.920156
1340.0000,3724.160056
1341.0000,3729.404362
1342.0000,3734.653097
1343.0000,3739.906282
1344.0000,3745.163941
1345.0000,3750.426098
1346.0000,3755.692779
1347.0000,3760.964012
1348.0000,3766.239824
1349.0000,3771.520245
1350.0000,3776.805307
1351.0000,3782.095043
1352.0000,3787.389488
1353.0000,3792.688678
1354.0000,3797.992652
1355.0000,3803.301450
1356.0000,3808.615116
1357.0000,3813.933695
1358.0000,3819.257233
1359.0000,3824.585782
1360.0000,3829.919394
1361.0000,3835.258126
1362.0000,3840.602036
1363.0000,3845.951188
1364.0000,3851.305648
1365.0000,3856.665485
1366.0000,3862.030775
1367.0000,3867.401596
1368.0000,3872.778032
1369.0000,3878.160172
1370.0000,3883.548110
1371.0000,3888.941946
1372.0000,3894.341786
1373.0000,3899.747746
1374.0000,3905.159945
1375.0000,3910.578512
1376.0000,3916.003585
1377.0000,3921.435311
1378.0000,3926.873847
1379.0000,3932.319361
1380.0000,3937.772033
1381.0000,3943.232056
1382.0000,3948.699636
1383.0000,3954.174996
1384.0000,3959.658374
1385.0000,3965.150027
1386.0000,3970.650232
1387.0000,3976.159287
1388.0000,3981.677514
1389.0000,3987.205262
1390.0000,3992.742906
1391.0000,3998.290856
1392.0000,4003.849555
1393.0000,4009.419482
1394.0000,4015.001163
1395.0000,4020.595166
1396.0000,4026.202114
1397.0000,4031.822687
1398.0000,4037.457628
1399.0000,4043.107753
1400.0000,4048.773958
1401.0000,4054.457226
1402.0000,4060.158644
1403.0000,4065.879408
1404.0000,4071.620844
1405.0000,4077.384421
1406.0000,4083.171769
1407.0000,4088.984704
1408.0000,4094.825252
1409.0000,4100.695678
1410.0000,4106.598520
1411.0000,4112.536632
1412.0000,4118.513230
1413.0000,4124.531947
1414.0000,4130.596901
1415.0000,4136.712773
1416.0000,4142.884902
1417.0000,4149.119395
1418.0000,4155.423265
1419.0000,4161.804591
1420.0000,4168.272722
1421.0000,4174.838512
1422.0000,4181.514622
1423.0000,4188.315880
1424.0000,4195.259736
1425.0000,4202.366827
1426.0000,4209.661675
1427.0000,4217.173579
1428.0000,4224.937737
1429.0000,4232.996677
1430.0000,4241.402087
1431.0000,4250.217176
1432.0000,4259.519720
1433.0000,4269.406014
1434.0000,4279.996019
1435.0000,4291.440027
1436.0000,4303.927283
1437.0000,4317.696973
1438.0000,4333.051881
1439.0000,4350.374503
1440.0000,4370.144063
1441.0000,4392.949669
1442.0000,4419.487876
1443.0000,4450.518874
1444.0000,4486.730456
1445.0000,4528.423501
1446.0000,4574.912610
1447.0000,4623.625285
1448.0000,4669.265195
1449.0000,4704.098464
1450.0000,4720.557536
1451.0000,4715.399182
1452.0000,4691.866659
1453.0000,4657.527547
1454.0000,4620.115749
1455.0000,4584.927623
1456.0000,4554.535693
1457.0000,4529.625386
1458.0000,4509.895849
1459.0000,4494.659317
1460.0000,4483.155628
1461.0000,4474.688255
1462.0000,4468.668119
1463.0000,4464.616024
1464.0000,4462.149504
1465.0000,4460.965806
1466.0000,4460.825774
1467.0000,4461.540194
1468.0000,4462.958806
1469.0000,4464.961683
1470.0000,4467.452562
1471.0000,4470.353703
1472.0000,4473.601933
1473.0000,4477.145598
1474.0000,4480.942211
1475.0000,4484.956610
1476.0000,4489.159538
1477.0000,4493.526512
1478.0000,4498.036940
1479.0000,4502.673417
1480.0000,4507.421159
1481.0000,4512.267553
1482.0000,4517.201794
1483.0000,4522.214587
1484.0000,4527.297903
1485.0000,4532.444787
1486.0000,4537.649189
1487.0000,4542.905830
1488.0000,4548.210092
1489.0000,4553.557925
1490.0000,4558.945762
1491.0000,4564.370460
1492.0000,4569.829241
1493.0000,4575.319645
1494.0000,4580.839489
1495.0000,4586.386835
1496.0000,4591.959958
1497.0000,4597.557324
1498.0000,4603.177563
1499.0000,4608.819457
1500.0000,4614.481920
1501.0000,4620.163984
1502.0000,4625.864789
1503.0000,4631.583569
1504.0000,4637.319649
1505.0000,4643.072431
1506.0000,4648.841389
1507.0000,4654.626065
1508.0000,4660.426064
1509.0000,4666.241045
1510.0000,4672.070725
1511.0000,4677.914866
1512.0000,4683.773284
1513.0000,4689.645836
1514.0000,4695.532425
1515.0000,4701.432997
1516.0000,4707.347539
1517.0000,4713.276080
1518.0000,4719.218689
1519.0000,4725.175477
1520.0000,4731.146597
1521.0000,4737.132244
1522.0000,4743.132658
1523.0000,4749.148123
1524.0000,4755.178972
1525.0000,4761.225588
1526.0000,4767.288405
1527.0000,4773.367915
1528.0000,4779.464672
1529.0000,4785.579291
1530.0000,4791.712462
1531.0000,4797.864948
1532.0000,4804.037599
1533.0000,4810.231352
1534.0000,4816.447250
1535.0000,4822.686445
1536.0000,4828.950211
1537.0000,4835.239961
1538.0000,4841.557262
1539.0000,4847.903851
1540.0000,4854.281657
1541.0000,4860.692827
1542.0000,4867.139751
1543.0000,4873.625100
1544.0000,4880.151858
1545.0000,4886.723369
1546.0000,4893.343392
1547.0000,4900.016158
1548.0000,4906.746447
1549.0000,4913.539670
1550.0000,4920.401976
1551.0000,4927.340371
1552.0000,4934.362869
1553.0000,4941.478669
1554.0000,4948.698369
1555.0000,4956.034234
1556.0000,4963.500515
1557.0000,4971.113851
1558.0000,4978.893759
1559.0000,4986.863253
1560.0000,4995.049611
1561.0000,5003.485350
1562.0000,5012.209460
1563.0000,5021.268977
1564.0000,5030.721002
1565.0000,5040.635301
1566.0000,5051.097675
1567.0000,5062.214315
1568.0000,5074.117459
1569.0000,5086.972672
1570.0000,5100.988126
1571.0000,5116.426113
1572.0000,5133.616652
1573.0000,5152.971902
1574.0000,5174.997472
1575.0000,5200.290977
1576.0000,5229.506595
1577.0000,5263.243710
1578.0000,5301.788532
1579.0000,5344.620992
1580.0000,5389.673307
1581.0000,5432.641894
1582.0000,5467.226393
1583.0000,5487.281515
1584.0000,5490.252117
1585.0000,5478.963118
1586.0000,5459.843676
1587.0000,5439.507184
1588.0000,5422.616436
1589.0000,5411.664471
1590.0000,5407.686048
1591.0000,5411.025798
1592.0000,5421.859078
1593.0000,5440.471838
1594.0000,5467.369065
1595.0000,5503.243028
1596.0000,5548.764432
1597.0000,5604.084065
1598.0000,5667.889748
1599.0000,5735.996765
1600.0000,5800.039657
1601.0000,5847.906910
1602.0000,5867.769829
1603.0000,5854.521942
1604.0000,5813.126115
1605.0000,5755.259931
1606.0000,5692.868274
1607.0000,5634.125393
1608.0000,5582.989638
1609.0000,5540.499225
1610.0000,5506.167577
1611.0000,5478.911608
1612.0000,5457.538643
1613.0000,5440.956804
1614.0000,5428.242543
1615.0000,5418.644123
1616.0000,5411.560978
1617.0000,5406.517141
1618.0000,5403.136101
1619.0000,5401.119501
1620.0000,5400.229996
1621.0000,5400.277801
1622.0000,5401.110269
1623.0000,5402.603863
1624.0000,5404.657966
1625.0000,5407.190118
1626.0000,5410.132317
1627.0000,5413.428147
1628.0000,5417.030534
1629.0000,5420.899976
1630.0000,5425.003155
1631.0000,5429.311818
1632.0000,5433.801895
1633.0000,5438.452785
1634.0000,5443.246773
1635.0000,5448.168567
1636.0000,5453.204911
1637.0000,5458.344271
1638.0000,5463.576571
1639.0000,5468.892986
1640.0000,5474.285750
1641.0000,5479.748019
1642.0000,5485.273734
1643.0000,5490.857520
1644.0000,5496.494594
1645.0000,5502.180690
1646.0000,5507.911991
1647.0000,5513.685075
1648.0000,5519.496869
1649.0000,5525.344602
1650.0000,5531.225774
1651.0000,5537.138124
1652.0000,5543.079604
1653.0000,5549.048351
1654.0000,5555.042673
1655.0000,5561.061028
1656.0000,5567.102006
1657.0000,5573.164319
1658.0000,5579.246789
1659.0000,5585.348332
1660.0000,5591.467955
1661.0000,5597.604743
1662.0000,5603.757854
1663.0000,5609.926510
1664.0000,5616.109993
1665.0000,5622.307639
1666.0000,5628.518834
1667.0000,5634.743006
1668.0000,5640.979627
1669.0000,5647.228206
1670.0000,5653.488284
1671.0000,5659.759435
1672.0000,5666.041263
1673.0000,5672.333397
1674.0000,5678.635491
1675.0000,5684.947221
1676.0000,5691.268284
1677.0000,5697.598398
1678.0000,5703.937295
1679.0000,5710.284727
1680.0000,5716.640460
1681.0000,5723.004273
1682.0000,5729.375960
1683.0000,5735.755325
1684.0000,5742.142185
1685.0000,5748.536368
1686.0000,5754.937711
1687.0000,5761.346058
1688.0000,5767.761265
1689.0000,5774.183195
1690.0000,5780.611718
1691.0000,5787.046709
1692.0000,5793.488054
1693.0000,5799.935641
1694.0000,5806.389367
1695.0000,5812.849131
1696.0000,5819.314839
1697.0000,5825.786403
1698.0000,5832.263737
1699.0000,5838.746760
1700.0000,5845.235395
1701.0000,5851.729569
1702.0000,5858.229213
1703.0000,5864.734260
1704.0000,5871.244647
1705.0000,5877.760313
1706.0000,5884.281202
1707.0000,5890.807257
1708.0000,5897.338428
1709.0000,5903.874662
1710.0000,5910.415914
1711.0000,5916.962137
1712.0000,5923.513286
1713.0000,5930.069322
1714.0000,5936.630202
1715.0000,5943.195889
1716.0000,5949.766347
1717.0000,5956.341539
1718.0000,5962.921432
1719.0000,5969.505994
1720.0000,5976.095194
1721.0000,5982.689001
1722.0000,5989.287388
1723.0000,5995.890326
1724.0000,6002.497789
1725.0000,6009.109753
1726.0000,6015.726191
1727.0000,6022.347082
1728.0000,6028.972402
1729.0000,6035.602129
1730.0000,6042.236244
1731.0000,6048.874725
1732.0000,6055.517553
1733.0000,6062.164710
1734.0000,6068.816177
1735.0000,6075.471937
1736.0000,6082.131974
1737.0000,6088.796272
1738.0000,6095.464814
1739.0000,6102.137586
1740.0000,6108.814573
1741.0000,6115.495762
1742.0000,6122.181138
1743.0000,6128.870689
1744.0000,6135.564402
1745.0000,6142.262265
1746.0000,6148.964266
1747.0000,6155.670394
1748.0000,6162.380638
1749.0000,6169.094987
1750.0000,6175.813430
1751.0000,6182.535959
1752.0000,6189.262562
1753.0000,6195.993231
1754.0000,6202.727957
1755.0000,6209.466731
1756.0000,6216.209545
1757.0000,6222.956389
1758.0000,6229.707257
1759.0000,6236.462141
1760.0000,6243.221032
1761.0000,6249.983925
1762.0000,6256.750811
1763.0000,6263.521683
1764.0000,6270.296536
1765.0000,6277.075363
1766.0000,6283.858157
1767.0000,6290.644913
1768.0000,6297.435624
1769.0000,6304.230286
1770.0000,6311.028891
1771.0000,6317.831435
1772.0000,6324.637913
1773.0000,6331.448319
1774.0000,6338.262649
1775.0000,6345.080897
1776.0000,6351.903060
1777.0000,6358.729132
1778.0000,6365.559108
1779.0000,6372.392986
1780.0000,6379.230760
1781.0000,6386.072427
1782.0000,6392.917981
1783.0000,6399.767421
1784.0000,6406.620741
1785.0000,6413.477938
1786.0000,6420.339009
1787.0000,6427.203950
1788.0000,6434.072757
1789.0000,6440.945428
1790.0000,6447.821959
1791.0000,6454.702347
1792.0000,6461.586589
1793.0000,6468.474682
1794.0000,6475.366623
1795.0000,6482.262409
1796.0000,6489.162037
1797.0000,6496.065505
1798.0000,6502.972811
1799.0000,6509.883950
1800.0000,6516.798922
1801.0000,6523.717724
1802.0000,6530.640352
1803.0000,6537.566806
1804.0000,6544.497082
1805.0000,6551.431178
1806.0000,6558.369093
1807.0000,6565.310824
1808.0000,6572.256368
1809.0000,6579.205725
1810.0000,6586.158892
1811.0000,6593.115867
1812.0000,6600.076648
1813.0000,6607.041234
1814.0000,6614.009622
1815.0000,6620.981811
1816.0000,6627.957799
1817.0000,6634.937584
1818.0000,6641.921166
1819.0000,6648.908541
1820.0000,6655.899709
1821.0000,6662.894668
1822.0000,6669.893417
1823.0000,6676.895954
1824.0000,6683.902277
1825.0000,6690.912386
1826.0000,6697.926279
1827.0000,6704.943954
1828.0000,6711.965410
1829.0000,6718.990647
1830.0000,6726.019662
1831.0000,6733.052454
1832.0000,6740.089023
1833.0000,6747.129366
1834.0000,6754.173484
1835.0000,6761.221374
1836.0000,6768.273036
1837.0000,6775.328468
1838.0000,6782.387670
1839.0000,6789.450640
1840.0000,6796.517378
1841.0000,6803.587882
1842.0000,6810.662151
1843.0000,6817.740185
1844.0000,6824.821982
1845.0000,6831.907542
1846.0000,6838.996863
1847.0000,6846.089945
1848.0000,6853.186787
1849.0000,6860.287388
1850.0000,6867.391747
1851.0000,6874.499864
1852.0000,6881.611737
1853.0000,6888.727365
1854.0000,6895.846749
1855.0000,6902.969887
1856.0000,6910.096778
1857.0000,6917.227422
1858.0000,6924.361818
1859.0000,6931.499965
1860.0000,6938.641863
1861.0000,6945.787511
1862.0000,6952.936908
1863.0000,6960.090054
1864.0000,6967.246947
1865.0000,6974.407588
1866.0000,6981.571975
1867.0000,6988.740109
1868.0000,6995.911988
1869.0000,7003.087612
1870.0000,7010.266980
1871.0000,7017.450092
1872.0000,7024.636947
1873.0000,7031.827544
1874.0000,7039.021884
1875.0000,7046.219965
1876.0000,7053.421787
1877.0000,7060.627350
1878.0000,7067.836653
1879.0000,7075.049695
1880.0000,7082.266477
1881.0000,7089.486997
1882.0000,7096.711255
1883.0000,7103.939250
1884.0000,7111.170983
1885.0000,7118.406453
1886.0000,7125.645659
1887.0000,7132.888601
1888.0000,7140.135278
1889.0000,7147.385690
1890.0000,7154.639837
1891.0000,7161.897718
1892.0000,7169.159333
1893.0000,7176.424681
1894.0000,7183.693763
1895.0000,7190.966577
1896.0000,7198.243123
1897.0000,7205.523402
1898.0000,7212.807412
1899.0000,7220.095153
1900.0000,7227.386625
1901.0000,7234.681827
1902.0000,7241.980760
1903.0000,7249.283423
1904.0000,7256.589815
1905.0000,7263.899937
1906.0000,7271.213787
1907.0000,7278.531366
1908.0000,7285.852673
1909.0000,7293.177709
1910.0000,7300.506472
1911.0000,7307.838962
1912.0000,7315.175180
1913.0000,7322.515124
1914.0000,7329.858795
1915.0000,7337.206192
1916.0000,7344.557316
1917.0000,7351.912165
1918.0000,7359.270739
1919.0000,7366.633039
1920.0000,7373.999064
1921.0000,7381.368814
1922.0000,7388.742288
1923.0000,7396.119486
1924.0000,7403.500408
1925.0000,7410.885054
1926.0000,7418.273424
1927.0000,7425.665517
1928.0000,7433.061333
1929.0000,7440.460872
1930.0000,7447.864133
1931.0000,7455.271117
1932.0000,7462.681823
1933.0000,7470.096252
1934.0000,7477.514402
1935.0000,7484.936273
1936.0000,7492.361866
1937.0000,7499.791180
1938.0000,7507.224216
1939.0000,7514.660972
1940.0000,7522.101448
1941.0000,7529.545646
1942.0000,7536.993563
1943.0000,7544.445200
1944.0000,7551.900558
1945.0000,7559.359635
1946.0000,7566.822431
1947.0000,7574.288947
1948.0000,7581.759183
1949.0000,7589.233137
1950.0000,7596.710810
1951.0000,7604.192202
1952.0000,7611.677312
1953.0000,7619.166141
1954.0000,7626.658688
1955.0000,7634.154953
1956.0000,7641.654936
1957.0000,7649.158637
1958.0000,7656.666056
1959.0000,7664.177192
1960.0000,7671.692045
1961.0000,7679.210615
1962.0000,7686.732903
1963.0000,7694.258908
1964.0000,7701.788629
1965.0000,7709.322067
1966.0000,7716.859221
1967.0000,7724.400092
1968.0000,7731.944679
1969.0000,7739.492983
1970.0000,7747.045002
1971.0000,7754.600737
1972.0000,7762.160188
1973.0000,7769.723355
1974.0000,7777.290237
1975.0000,7784.860835
1976.0000,7792.435147
1977.0000,7800.013175
1978.0000,7807.594919
1979.0000,7815.180377
1980.0000,7822.769549
1981.0000,7830.362437
1982.0000,7837.959039
1983.0000,7845.559356
1984.0000,7853.163387
1985.0000,7860.771133
1986.0000,7868.382592
1987.0000,7875.997766
1988.0000,7883.616654
1989.0000,7891.239256
1990.0000,7898.865571
1991.0000,7906.495600
1992.0000,7914.129343
1993.0000,7921.766799
1994.0000,7929.407969
1995.0000,7937.052852
1996.0000,7944.701448
1997.0000,7952.353758
1998.0000,7960.009781
1999.0000,7967.669516
2000.0000,7975.332964
