raman_shift_cm-1,intensity
200.0000,42.992778
201.0000,42.136024
202.0000,34.832941
203.0000,31.103686
204.0000,54.854278
205.0000,50.017054
206.0000,41.182435
207.0000,29.005305
208.0000,33.379600
209.0000,49.840531
210.0000,48.028289
211.0000,40.135492
212.0000,43.900303
213.0000,41.469144
214.0000,32.825993
215.0000,37.882575
216.0000,43.904390
217.0000,40.345616
218.0000,48.955978
219.0000,41.480557
220.0000,39.893698
221.0000,38.382343
222.0000,39.711025
223.0000,54.166157
224.0000,39.396671
225.0000,48.529061
226.0000,56.797797
227.0000,38.568676
228.0000,32.512032
229.0000,38.477083
230.0000,30.117842
231.0000,42.283384
232.0000,32.345543
233.0000,33.616603
234.0000,51.961202
235.0000,35.557012
236.0000,66.637137
237.0000,45.703032
238.0000,42.059784
239.0000,39.421754
240.0000,20.571208
241.0000,40.454602
242.0000,37.177185
243.0000,44.639957
244.0000,48.546867
245.0000,32.688155
246.0000,27.007581
247.0000,50.764745
248.0000,24.190687
249.0000,29.928660
250.0000,49.764583
251.0000,23.190555
252.0000,47.797204
253.0000,44.076635
254.0000,50.472201
255.0000,39.848484
256.0000,44.251696
257.0000,39.484190
258.0000,36.384795
259.0000,46.094475
260.0000,38.339613
261.0000,34.790245
262.0000,29.348868
263.0000,46.966106
264.0000,51.323210
265.0000,28.313398
266.0000,43.061377
267.0000,44.577270
268.0000,30.423531
269.0000,33.192029
270.0000,42.351903
271.0000,55.888277
272.0000,43.128226
273.0000,30.962140
274.0000,38.896685
275.0000,32.314957
276.0000,44.292517
277.0000,55.106533
278.0000,48.209063
279.0000,22.859774
280.0000,56.533808
281.0000,47.185951
282.0000,48.283545
283.0000,28.586738
284.0000,37.176393
285.0000,34.179745
286.0000,26.262615
287.0000,39.304534
288.0000,38.511836
289.0000,54.601404
290.0000,49.370211
291.0000,36.513416
292.0000,42.798840
293.0000,48.842091
294.0000,25.601768
295.0000,32.042890
296.0000,40.130689
297.0000,41.454588
298.0000,49.292536
299.0000,35.677563
300.0000,39.521599
301.0000,50.912163
302.0000,33.373791
303.0000,37.081567
304.0000,54.187488
305.0000,45.349672
306.0000,50.462818
307.0000,30.751707
308.0000,47.222700
309.0000,34.147980
310.0000,44.034076
311.0000,34.817828
312.0000,37.318454
313.0000,38.474126
314.0000,44.159277
315.0000,41.644439
316.0000,37.503946
317.0000,37.504042
318.0000,30.908520
319.0000,32.929608
320.0000,46.664833
321.0000,41.197283
322.0000,25.661905
323.0000,28.415550
324.0000,45.195816
325.0000,66.179663
326.0000,46.856914
327.0000,41.816178
328.0000,44.685271
329.0000,46.400696
330.0000,43.836039
331.0000,38.893947
332.0000,42.478050
333.0000,32.414549
334.0000,41.903146
335.0000,47.475732
336.0000,45.587538
337.0000,43.085310
338.0000,39.413779
339.0000,43.482645
340.0000,28.263837
341.0000,45.924416
342.0000,46.524050
343.0000,42.192440
344.0000,40.302439
345.0000,32.284712
346.0000,49.088645
347.0000,47.520118
348.0000,28.739485
349.0000,49.553675
350.0000,28.382238
351.0000,31.122194
352.0000,51.060435
353.0000,33.021686
354.0000,41.381268
355.0000,40.041261
356.0000,49.454556
357.0000,45.394749
358.0000,39.811509
359.0000,45.343699
360.0000,45.026917
361.0000,39.661560
362.0000,32.576780
363.0000,46.679054
364.0000,44.595153
365.0000,37.990343
366.0000,43.078097
367.0000,41.345928
368.0000,47.608629
369.0000,42.855827
370.0000,35.242850
371.0000,43.123047
372.0000,54.058394
373.0000,39.250029
374.0000,30.418785
375.0000,52.135099
376.0000,38.345142
377.0000,45.179025
378.0000,41.988556
379.0000,30.580493
380.0000,52.379540
381.0000,40.890147
382.0000,26.230499
383.0000,30.839037
384.0000,42.925911
385.0000,42.463603
386.0000,36.334844
387.0000,45.282651
388.0000,62.961187
389.0000,31.463935
390.0000,31.517829
391.0000,45.649256
392.0000,28.664267
393.0000,27.711738
394.0000,29.410214
395.0000,34.513564
396.0000,34.341798
397.0000,45.779478
398.0000,48.443777
399.0000,53.619442
400.0000,38.507603
401.0000,45.076772
402.0000,53.047452
403.0000,34.687243
404.0000,40.033717
405.0000,35.573184
406.0000,45.680295
407.0000,56.668804
408.0000,26.964296
409.0000,42.308026
410.0000,37.729956
411.0000,39.503817
412.0000,55.111967
413.0000,34.418339
414.0000,41.975701
415.0000,44.721350
416.0000,38.418820
417.0000,48.986283
418.0000,37.218968
419.0000,39.556943
420.0000,43.697690
421.0000,34.190569
422.0000,42.867651
423.0000,29.051494
424.0000,41.157131
425.0000,38.343196
426.0000,51.159150
427.0000,33.176137
428.0000,30.545744
429.0000,54.248067
430.0000,29.395307
431.0000,38.731348
432.0000,46.485213
433.0000,42.628276
434.0000,33.106000
435.0000,44.146871
436.0000,33.395691
437.0000,39.088389
438.0000,43.263405
439.0000,39.950916
440.0000,43.538860
441.0000,52.712857
442.0000,30.468553
443.0000,40.443182
444.0000,49.835125
445.0000,47.212916
446.0000,46.393098
447.0000,32.057834
448.0000,39.650130
449.0000,41.876245
450.0000,28.808631
451.0000,49.857756
452.0000,38.374912
453.0000,38.898571
454.0000,49.643548
455.0000,34.532029
456.0000,32.482902
457.0000,44.308805
458.0000,48.567394
459.0000,38.354904
460.0000,33.161842
461.0000,43.491182
462.0000,53.290072
463.0000,28.070985
464.0000,40.622873
465.0000,32.759614
466.0000,43.131991
467.0000,45.315150
468.0000,37.681496
469.0000,31.494279
470.0000,37.065337
471.0000,51.580072
472.0000,45.392782
473.0000,33.473956
474.0000,39.047271
475.0000,36.220070
476.0000,33.036334
477.0000,33.223617
478.0000,46.718110
479.0000,36.415957
480.0000,40.226522
481.0000,46.992723
482.0000,47.933868
483.0000,28.582991
484.0000,35.434213
485.0000,48.810571
486.0000,38.911191
487.0000,49.234497
488.0000,37.602985
489.0000,25.042400
490.0000,40.024631
491.0000,31.087406
492.0000,43.906781
493.0000,38.684936
494.0000,38.689245
495.0000,37.423910
496.0000,32.710847
497.0000,41.542004
498.0000,44.564118
499.0000,38.528244
500.0000,33.354202
501.0000,47.549895
502.0000,32.999373
503.0000,40.783008
504.0000,31.907365
505.0000,35.286643
506.0000,42.862179
507.0000,47.477227
508.0000,46.141729
509.0000,50.716127
510.0000,34.085370
511.0000,52.578534
512.0000,42.145468
513.0000,31.142936
514.0000,39.491734
515.0000,37.970454
516.0000,55.289093
517.0000,43.245314
518.0000,37.763985
519.0000,45.463770
520.0000,46.217382
521.0000,44.816621
522.0000,51.429981
523.0000,32.213263
524.0000,51.220838
525.0000,60.555047
526.0000,33.179510
527.0000,50.112246
528.0000,51.503151
529.0000,43.733621
530.0000,35.996080
531.0000,45.016489
532.0000,23.811576
533.0000,48.739642
534.0000,41.333572
535.0000,54.743679
536.0000,32.302822
537.0000,47.571798
538.0000,61.637355
539.0000,49.463616
540.0000,38.443987
541.0000,42.524408
542.0000,43.735143
543.0000,38.186037
544.0000,32.187044
545.0000,31.816407
546.0000,48.992603
547.0000,42.761099
548.0000,49.827880
549.0000,52.508704
550.0000,48.739452
551.0000,49.277824
552.0000,46.872435
553.0000,48.234247
554.0000,45.890470
555.0000,45.448737
556.0000,49.382341
557.0000,47.495591
558.0000,45.126643
559.0000,40.663382
560.0000,48.257733
561.0000,51.033184
562.0000,47.166864
563.0000,44.098823
564.0000,43.405972
565.0000,46.275919
566.0000,41.341263
567.0000,43.032451
568.0000,43.517701
569.0000,45.297696
570.0000,52.332061
571.0000,47.268518
572.0000,54.873244
573.0000,48.859945
574.0000,50.193529
575.0000,65.188530
576.0000,54.526688
577.0000,51.538671
578.0000,45.842498
579.0000,70.425950
580.0000,55.727379
581.0000,68.220017
582.0000,63.605370
583.0000,72.351484
584.0000,65.659015
585.0000,68.314730
586.0000,90.178594
587.0000,86.783407
588.0000,99.483939
589.0000,95.328062
590.0000,119.519690
591.0000,116.080471
592.0000,143.056857
593.0000,159.580952
594.0000,169.939054
595.0000,193.778211
596.0000,211.645152
597.0000,239.642365
598.0000,276.808426
599.0000,305.264957
600.0000,335.509726
601.0000,335.416163
602.0000,338.366599
603.0000,322.016254
604.0000,285.210178
605.0000,261.606938
606.0000,217.587268
607.0000,188.492448
608.0000,164.656466
609.0000,155.615080
610.0000,144.485783
611.0000,110.676719
612.0000,106.291544
613.0000,103.572594
614.0000,94.950026
615.0000,88.126318
616.0000,83.277966
617.0000,80.590795
618.0000,84.268814
619.0000,69.246364
620.0000,81.981061
621.0000,69.433817
622.0000,55.175639
623.0000,63.316714
624.0000,71.741578
625.0000,53.824869
626.0000,56.131515
627.0000,42.027021
628.0000,62.040528
629.0000,58.079820
630.0000,51.657392
631.0000,50.668140
632.0000,37.139980
633.0000,49.433422
634.0000,46.136056
635.0000,56.751643
636.0000,52.259663
637.0000,47.567366
638.0000,54.494984
639.0000,47.725372
640.0000,50.198557
641.0000,55.792337
642.0000,34.133224
643.0000,57.235832
644.0000,43.439063
645.0000,51.776394
646.0000,36.558801
647.0000,53.264317
648.0000,42.175092
649.0000,21.161455
650.0000,47.530138
651.0000,31.944560
652.0000,34.583202
653.0000,46.754375
654.0000,36.195982
655.0000,62.613566
656.0000,38.351097
657.0000,56.972526
658.0000,34.801500
659.0000,42.339419
660.0000,29.187655
661.0000,51.653384
662.0000,55.792210
663.0000,47.987268
664.0000,34.725282
665.0000,46.040534
666.0000,46.412455
667.0000,44.734255
668.0000,46.600405
669.0000,40.241150
670.0000,50.890119
671.0000,50.650729
672.0000,31.906675
673.0000,30.169581
674.0000,45.132000
675.0000,60.985495
676.0000,42.242416
677.0000,33.740262
678.0000,45.675732
679.0000,48.637148
680.0000,30.687487
681.0000,36.056674
682.0000,46.351890
683.0000,39.638163
684.0000,43.791660
685.0000,42.610401
686.0000,38.461499
687.0000,36.850232
688.0000,40.865285
689.0000,40.690328
690.0000,28.958774
691.0000,35.247654
692.0000,49.243637
693.0000,48.622876
694.0000,41.772126
695.0000,36.591164
696.0000,45.278504
697.0000,41.576855
698.0000,41.425914
699.0000,36.312478
700.0000,45.158631
701.0000,42.495269
702.0000,40.262017
703.0000,34.345842
704.0000,46.515834
705.0000,43.100178
706.0000,49.917736
707.0000,49.897519
708.0000,50.084160
709.0000,55.177613
710.0000,38.615481
711.0000,46.457655
712.0000,49.545520
713.0000,33.931906
714.0000,42.432846
715.0000,33.147448
716.0000,41.760868
717.0000,41.740411
718.0000,44.924252
719.0000,47.742298
720.0000,54.950584
721.0000,49.173898
722.0000,44.111776
723.0000,29.665258
724.0000,51.746622
725.0000,43.530457
726.0000,34.927609
727.0000,33.814852
728.0000,54.084464
729.0000,40.554861
730.0000,37.604965
731.0000,41.101691
732.0000,38.205106
733.0000,47.868287
734.0000,65.097409
735.0000,44.127890
736.0000,51.240947
737.0000,46.910931
738.0000,47.617526
739.0000,46.545835
740.0000,48.166498
741.0000,39.702473
742.0000,33.649916
743.0000,47.265335
744.0000,43.342999
745.0000,54.276701
746.0000,49.069145
747.0000,53.856303
748.0000,42.539199
749.0000,42.123636
750.0000,54.163109
751.0000,53.782143
752.0000,56.184343
753.0000,52.585702
754.0000,35.624082
755.0000,39.105009
756.0000,54.988477
757.0000,62.695021
758.0000,60.493833
759.0000,37.592699
760.0000,52.041796
761.0000,46.572169
762.0000,47.045326
763.0000,54.914239
764.0000,56.210541
765.0000,45.006320
766.0000,35.667311
767.0000,48.902756
768.0000,50.928086
769.0000,48.392588
770.0000,41.128252
771.0000,54.065885
772.0000,52.077696
773.0000,54.049427
774.0000,46.852758
775.0000,60.787527
776.0000,61.410887
777.0000,59.468015
778.0000,57.604943
779.0000,54.733165
780.0000,62.695015
781.0000,52.136602
782.0000,56.076220
783.0000,60.754726
784.0000,61.251417
785.0000,43.370508
786.0000,66.620425
787.0000,72.418897
788.0000,73.888774
789.0000,57.853512
790.0000,90.177572
791.0000,84.658836
792.0000,99.479757
793.0000,85.325243
794.0000,93.758653
795.0000,107.303946
796.0000,111.337018
797.0000,102.208995
798.0000,105.634152
799.0000,128.314578
800.0000,136.176834
801.0000,151.435230
802.0000,169.094260
803.0000,202.772988
804.0000,228.732930
805.0000,252.840386
806.0000,281.835979
807.0000,334.566029
808.0000,381.451271
809.0000,449.564369
810.0000,497.021831
811.0000,524.475178
812.0000,545.995277
813.0000,525.648543
814.0000,482.197590
815.0000,450.189382
816.0000,399.304707
817.0000,343.995736
818.0000,291.614519
819.0000,253.040170
820.0000,215.549679
821.0000,200.469228
822.0000,170.939266
823.0000,166.074184
824.0000,129.423150
825.0000,134.198009
826.0000,140.070421
827.0000,102.676652
828.0000,102.391054
829.0000,82.327185
830.0000,96.700322
831.0000,81.751337
832.0000,84.567214
833.0000,83.232445
834.0000,70.752770
835.0000,70.762028
836.0000,66.627539
837.0000,60.994412
838.0000,65.133812
839.0000,72.953398
840.0000,71.710025
841.0000,56.605382
842.0000,64.654749
843.0000,61.275789
844.0000,68.265203
845.0000,58.898888
846.0000,67.620930
847.0000,49.500588
848.0000,45.635669
849.0000,62.109819
850.0000,64.024989
851.0000,47.858915
852.0000,41.655866
853.0000,53.377124
854.0000,59.713720
855.0000,48.887002
856.0000,46.710070
857.0000,55.400042
858.0000,45.303412
859.0000,38.632517
860.0000,53.385385
861.0000,36.851576
862.0000,54.175571
863.0000,38.941550
864.0000,34.272541
865.0000,48.540287
866.0000,49.745990
867.0000,47.281951
868.0000,46.225585
869.0000,44.136884
870.0000,43.200082
871.0000,45.404372
872.0000,36.135920
873.0000,46.397268
874.0000,42.802906
875.0000,40.301744
876.0000,52.856202
877.0000,58.637340
878.0000,39.721841
879.0000,35.567440
880.0000,29.561418
881.0000,41.184525
882.0000,38.837546
883.0000,51.235462
884.0000,51.554139
885.0000,54.067349
886.0000,50.257925
887.0000,44.828859
888.0000,44.881574
889.0000,52.430060
890.0000,35.563476
891.0000,43.978857
892.0000,35.261311
893.0000,51.422015
894.0000,62.582117
895.0000,46.803079
896.0000,42.188343
897.0000,43.370122
898.0000,33.772987
899.0000,44.453130
900.0000,62.239835
901.0000,45.068882
902.0000,45.875969
903.0000,45.650171
904.0000,38.119598
905.0000,46.946187
906.0000,40.057523
907.0000,37.338212
908.0000,48.355125
909.0000,48.007910
910.0000,33.876036
911.0000,45.415891
912.0000,53.304281
913.0000,58.244754
914.0000,44.439115
915.0000,47.270979
916.0000,64.459593
917.0000,39.747444
918.0000,40.170546
919.0000,48.676496
920.0000,39.948893
921.0000,64.866772
922.0000,50.238532
923.0000,57.226279
924.0000,37.080296
925.0000,39.784167
926.0000,36.860317
927.0000,41.275181
928.0000,57.669803
929.0000,41.849736
930.0000,47.621540
931.0000,45.386704
932.0000,43.356980
933.0000,52.128678
934.0000,53.801315
935.0000,50.237650
936.0000,50.958719
937.0000,59.171891
938.0000,54.004571
939.0000,59.627258
940.0000,64.393785
941.0000,56.479398
942.0000,76.647765
943.0000,63.337045
944.0000,58.233944
945.0000,64.131779
946.0000,73.368995
947.0000,59.979462
948.0000,75.263042
949.0000,67.285460
950.0000,94.130970
951.0000,80.792283
952.0000,88.817989
953.0000,82.065012
954.0000,100.528571
955.0000,91.840621
956.0000,115.661743
957.0000,133.280803
958.0000,133.181413
959.0000,152.629616
960.0000,179.984763
961.0000,201.748125
962.0000,225.742832
963.0000,253.302819
964.0000,291.819449
965.0000,326.007848
966.0000,318.236404
967.0000,322.664409
968.0000,294.911504
969.0000,272.148744
970.0000,229.954930
971.0000,206.441475
972.0000,179.936934
973.0000,155.146215
974.0000,143.206640
975.0000,122.455379
976.0000,127.426535
977.0000,96.144664
978.0000,95.838876
979.0000,88.200897
980.0000,91.119593
981.0000,76.651674
982.0000,61.679675
983.0000,66.888068
984.0000,72.708887
985.0000,73.243331
986.0000,64.155138
987.0000,57.478330
988.0000,62.954691
989.0000,51.168895
990.0000,39.465602
991.0000,70.448050
992.0000,46.487238
993.0000,59.424155
994.0000,50.007228
995.0000,46.593268
996.0000,51.618598
997.0000,44.938649
998.0000,60.125286
999.0000,49.988806
1000.0000,57.497025
1001.0000,40.060848
1002.0000,38.925665
1003.0000,45.444865
1004.0000,52.942001
1005.0000,47.935947
1006.0000,45.663244
1007.0000,56.831329
1008.0000,55.291089
1009.0000,43.708220
1010.0000,54.700303
1011.0000,48.067076
1012.0000,43.671401
1013.0000,43.820251
1014.0000,51.292979
1015.0000,51.250103
1016.0000,42.352641
1017.0000,38.767169
1018.0000,30.998971
1019.0000,62.167254
1020.0000,47.094818
1021.0000,49.442967
1022.0000,53.606544
1023.0000,55.224894
1024.0000,47.440440
1025.0000,40.405121
1026.0000,47.490490
1027.0000,50.636660
1028.0000,47.524383
1029.0000,35.204344
1030.0000,46.373988
1031.0000,37.056471
1032.0000,52.834087
1033.0000,37.176965
1034.0000,32.885541
1035.0000,53.471915
1036.0000,42.272003
1037.0000,50.072086
1038.0000,43.961685
1039.0000,35.815579
1040.0000,27.247074
1041.0000,47.987848
1042.0000,34.804371
1043.0000,45.149892
1044.0000,47.937496
1045.0000,40.246759
1046.0000,29.939219
1047.0000,51.623064
1048.0000,41.997774
1049.0000,48.225615
1050.0000,44.988488
1051.0000,43.943868
1052.0000,34.554036
1053.0000,31.728681
1054.0000,31.631267
1055.0000,36.236026
1056.0000,49.716243
1057.0000,53.911730
1058.0000,63.115527
1059.0000,36.460776
1060.0000,34.760495
1061.0000,53.057401
1062.0000,57.521205
1063.0000,46.537069
1064.0000,39.637383
1065.0000,56.401443
1066.0000,53.583693
1067.0000,48.674884
1068.0000,32.197761
1069.0000,48.038669
1070.0000,53.322140
1071.0000,35.372728
1072.0000,39.695418
1073.0000,39.950790
1074.0000,29.267123
1075.0000,51.173081
1076.0000,42.872418
1077.0000,51.720834
1078.0000,46.508438
1079.0000,31.241728
1080.0000,43.790469
1081.0000,50.375747
1082.0000,52.615308
1083.0000,39.848209
1084.0000,50.778795
1085.0000,46.809652
1086.0000,49.124553
1087.0000,47.007625
1088.0000,58.463248
1089.0000,50.508848
1090.0000,55.850058
1091.0000,37.467524
1092.0000,50.279212
1093.0000,57.309824
1094.0000,62.670486
1095.0000,73.189535
1096.0000,71.312826
1097.0000,71.644523
1098.0000,61.669300
1099.0000,57.526915
1100.0000,55.778941
1101.0000,80.891040
1102.0000,61.421231
1103.0000,66.363846
1104.0000,69.163767
1105.0000,84.601178
1106.0000,87.287106
1107.0000,94.592359
1108.0000,91.821615
1109.0000,111.676243
1110.0000,108.070814
1111.0000,136.152852
1112.0000,151.298321
1113.0000,173.043188
1114.0000,191.419164
1115.0000,204.995977
1116.0000,231.701947
1117.0000,282.750721
1118.0000,320.187841
1119.0000,372.452675
1120.0000,395.473139
1121.0000,432.232384
1122.0000,432.739231
1123.0000,432.195257
1124.0000,389.178390
1125.0000,354.369017
1126.0000,311.528556
1127.0000,273.364070
1128.0000,239.163359
1129.0000,211.813472
1130.0000,179.383466
1131.0000,171.385067
1132.0000,150.746519
1133.0000,124.000090
1134.0000,115.510407
1135.0000,118.933799
1136.0000,89.811288
1137.0000,93.262850
1138.0000,82.810337
1139.0000,87.870151
1140.0000,81.248762
1141.0000,86.905789
1142.0000,71.336429
1143.0000,75.969303
1144.0000,65.325358
1145.0000,76.391436
1146.0000,65.411874
1147.0000,73.162575
1148.0000,63.735958
1149.0000,52.807670
1150.0000,49.940054
1151.0000,64.038993
1152.0000,58.022441
1153.0000,51.927356
1154.0000,47.675496
1155.0000,46.337276
1156.0000,60.810800
1157.0000,54.397760
1158.0000,59.767224
1159.0000,63.621683
1160.0000,46.429599
1161.0000,51.891177
1162.0000,49.015325
1163.0000,59.082469
1164.0000,56.208638
1165.0000,66.306025
1166.0000,40.761559
1167.0000,51.260245
1168.0000,36.199358
1169.0000,58.959054
1170.0000,52.617897
1171.0000,36.402316
1172.0000,58.591916
1173.0000,45.050257
1174.0000,49.816612
1175.0000,38.758942
1176.0000,43.789277
1177.0000,25.981450
1178.0000,38.194654
1179.0000,42.277327
1180.0000,36.503099
1181.0000,31.142606
1182.0000,49.460777
1183.0000,39.032264
1184.0000,42.361743
1185.0000,44.761639
1186.0000,45.082553
1187.0000,51.791552
1188.0000,37.153335
1189.0000,52.219557
1190.0000,42.428629
1191.0000,57.668915
1192.0000,40.798282
1193.0000,55.627141
1194.0000,51.803539
1195.0000,36.323025
1196.0000,34.933099
1197.0000,41.525472
1198.0000,53.611575
1199.0000,38.245290
1200.0000,46.758726
1201.0000,43.858385
1202.0000,40.798624
1203.0000,31.699444
1204.0000,50.148736
1205.0000,31.341469
1206.0000,36.493157
1207.0000,44.421072
1208.0000,35.701115
1209.0000,56.992413
1210.0000,37.845250
1211.0000,41.084453
1212.0000,42.252599
1213.0000,38.915750
1214.0000,44.932542
1215.0000,37.669344
1216.0000,43.335710
1217.0000,26.917280
1218.0000,43.353537
1219.0000,35.698721
1220.0000,40.463936
1221.0000,32.952102
1222.0000,37.226332
1223.0000,36.446851
1224.0000,46.092542
1225.0000,33.011854
1226.0000,46.330545
1227.0000,32.692876
1228.0000,27.556867
1229.0000,51.494045
1230.0000,41.971154
1231.0000,45.954249
1232.0000,32.425500
1233.0000,53.104380
1234.0000,15.355608
1235.0000,36.593305
1236.0000,34.678284
1237.0000,24.950064
1238.0000,39.927239
1239.0000,35.686063
1240.0000,36.463000
1241.0000,30.243617
1242.0000,42.908801
1243.0000,50.275819
1244.0000,34.754008
1245.0000,35.576472
1246.0000,48.601828
1247.0000,45.759219
1248.0000,55.921932
1249.0000,15.461726
1250.0000,36.020654
1251.0000,51.938049
1252.0000,39.834089
1253.0000,45.990164
1254.0000,26.000532
1255.0000,47.876246
1256.0000,33.335531
1257.0000,46.788126
1258.0000,44.949293
1259.0000,47.407523
1260.0000,54.896228
1261.0000,49.656560
1262.0000,48.841546
1263.0000,50.749300
1264.0000,46.586160
1265.0000,39.645647
1266.0000,42.418295
1267.0000,34.287050
1268.0000,43.440787
1269.0000,29.244861
1270.0000,35.639521
1271.0000,54.403585
1272.0000,37.313342
1273.0000,26.316792
1274.0000,45.640548
1275.0000,44.464088
1276.0000,47.919316
1277.0000,42.285179
1278.0000,54.238435
1279.0000,43.297639
1280.0000,44.404817
1281.0000,47.443250
1282.0000,45.822380
1283.0000,37.658793
1284.0000,56.228656
1285.0000,44.459238
1286.0000,48.507081
1287.0000,27.161660
1288.0000,55.391903
1289.0000,40.869788
1290.0000,40.248909
1291.0000,42.345713
1292.0000,45.105713
1293.0000,54.013598
1294.0000,46.638493
1295.0000,43.892588
1296.0000,45.070779
1297.0000,40.298535
1298.0000,47.295648
1299.0000,53.639461
1300.0000,43.855164
1301.0000,28.882628
1302.0000,44.743958
1303.0000,27.422693
1304.0000,37.236226
1305.0000,44.644537
1306.0000,56.500287
1307.0000,42.769147
1308.0000,40.266777
1309.0000,43.418193
1310.0000,35.622764
1311.0000,43.339867
1312.0000,51.153024
1313.0000,52.000168
1314.0000,44.741766
1315.0000,22.939385
1316.0000,43.806884
1317.0000,37.549873
1318.0000,54.405321
1319.0000,48.044473
1320.0000,53.757755
1321.0000,28.681249
1322.0000,42.318683
1323.0000,41.615983
1324.0000,28.174829
1325.0000,29.376466
1326.0000,44.062090
1327.0000,45.952940
1328.0000,36.007959
1329.0000,49.892708
1330.0000,40.472411
1331.0000,29.940926
1332.0000,45.517987
1333.0000,23.607727
1334.0000,51.329008
1335.0000,43.100018
1336.0000,45.582478
1337.0000,54.266802
1338.0000,46.071714
1339.0000,29.990644
1340.0000,32.946378
1341.0000,32.327970
1342.0000,55.706789
1343.0000,25.946170
1344.0000,47.337412
1345.0000,43.763439
1346.0000,40.829213
1347.0000,37.154782
1348.0000,50.319005
1349.0000,37.629547
1350.0000,41.359086
1351.0000,59.361881
1352.0000,35.839073
1353.0000,37.424653
1354.0000,33.963535
1355.0000,37.054872
1356.0000,46.931193
1357.0000,46.770062
1358.0000,39.061817
1359.0000,51.393063
1360.0000,32.930264
1361.0000,39.388878
1362.0000,56.094147
1363.0000,43.000550
1364.0000,41.370201
1365.0000,43.712994
1366.0000,31.041885
1367.0000,56.545122
1368.0000,42.750874
1369.0000,42.046016
1370.0000,45.019573
1371.0000,44.949363
1372.0000,32.594505
1373.0000,57.536637
1374.0000,40.439925
1375.0000,40.318525
1376.0000,28.385920
1377.0000,44.384451
1378.0000,57.760517
1379.0000,55.594928
1380.0000,46.188132
1381.0000,42.882532
1382.0000,45.779823
1383.0000,53.443515
1384.0000,43.980473
1385.0000,57.841438
1386.0000,54.438673
1387.0000,43.297247
1388.0000,34.274060
1389.0000,50.486617
1390.0000,40.675543
1391.0000,42.026155
1392.0000,59.607231
1393.0000,49.869208
1394.0000,65.555360
1395.0000,49.314541
1396.0000,49.193391
1397.0000,49.473876
1398.0000,40.618097
1399.0000,54.929987
1400.0000,44.985384
1401.0000,34.407626
1402.0000,45.274402
1403.0000,47.128262
1404.0000,39.939132
1405.0000,45.828969
1406.0000,52.039585
1407.0000,55.114936
1408.0000,49.517733
1409.0000,48.023693
1410.0000,48.742866
1411.0000,45.251007
1412.0000,54.883651
1413.0000,48.520845
1414.0000,59.081936
1415.0000,48.748912
1416.0000,55.311944
1417.0000,62.946093
1418.0000,55.793844
1419.0000,61.091688
1420.0000,69.019685
1421.0000,48.462303
1422.0000,60.631584
1423.0000,60.351260
1424.0000,74.762799
1425.0000,78.091357
1426.0000,65.070850
1427.0000,81.929161
1428.0000,79.399654
1429.0000,78.192913
1430.0000,99.446080
1431.0000,96.830646
1432.0000,84.817486
1433.0000,111.560489
1434.0000,104.597548
1435.0000,123.572257
1436.0000,130.734313
1437.0000,142.266101
1438.0000,166.712213
1439.0000,185.861127
1440.0000,202.202069
1441.0000,234.419673
1442.0000,263.919691
1443.0000,285.350309
1444.0000,347.018617
1445.0000,378.476064
1446.0000,462.429642
1447.0000,522.647028
1448.0000,581.103251
1449.0000,621.812277
1450.0000,641.465124
1451.0000,615.560429
1452.0000,583.265358
1453.0000,527.177840
1454.0000,454.995655
1455.0000,384.947569
1456.0000,354.469390
1457.0000,299.295962
1458.0000,267.129599
1459.0000,224.171129
1460.0000,193.169879
1461.0000,190.152791
1462.0000,152.304027
1463.0000,158.397650
1464.0000,149.935254
1465.0000,119.155822
1466.0000,122.634897
1467.0000,109.617327
1468.0000,119.902852
1469.0000,107.147755
1470.0000,83.806588
1471.0000,82.247394
1472.0000,67.489848
1473.0000,57.615582
1474.0000,71.788540
1475.0000,67.898746
1476.0000,66.725929
1477.0000,66.323117
1478.0000,67.878283
1479.0000,85.835681
1480.0000,79.788380
1481.0000,59.687968
1482.0000,57.434485
1483.0000,79.502862
1484.0000,64.990280
1485.0000,50.486174
1486.0000,60.550123
1487.0000,47.298228
1488.0000,51.964553
1489.0000,54.508857
1490.0000,61.740356
1491.0000,59.399019
1492.0000,56.507920
1493.0000,55.007491
1494.0000,34.326563
1495.0000,53.272031
1496.0000,45.052310
1497.0000,50.449026
1498.0000,63.429478
1499.0000,71.548151
1500.0000,43.139210
1501.0000,43.577530
1502.0000,48.558098
1503.0000,39.250280
1504.0000,45.809210
1505.0000,54.081037
1506.0000,48.705606
1507.0000,48.295343
1508.0000,51.734838
1509.0000,40.442528
1510.0000,50.113149
1511.0000,46.839046
1512.0000,34.337040
1513.0000,57.749027
1514.0000,47.108204
1515.0000,45.290732
1516.0000,55.281043
1517.0000,45.617089
1518.0000,38.597212
1519.0000,42.267520
1520.0000,33.536953
1521.0000,42.825325
1522.0000,58.459891
1523.0000,43.208640
1524.0000,42.300065
1525.0000,48.191139
1526.0000,37.950879
1527.0000,38.633050
1528.0000,44.619611
1529.0000,51.116406
1530.0000,44.757143
1531.0000,44.417257
1532.0000,39.838589
1533.0000,43.964884
1534.0000,37.055971
1535.0000,44.361591
1536.0000,57.990806
1537.0000,37.948973
1538.0000,47.039103
1539.0000,52.986136
1540.0000,54.147518
1541.0000,46.036220
1542.0000,46.937977
1543.0000,30.110712
1544.0000,44.163232
1545.0000,39.309171
1546.0000,37.949095
1547.0000,40.850237
1548.0000,34.483017
1549.0000,36.977507
1550.0000,46.728431
1551.0000,48.415491
1552.0000,44.436660
1553.0000,31.902282
1554.0000,37.830974
1555.0000,57.336278
1556.0000,50.531309
1557.0000,45.618123
1558.0000,42.216078
1559.0000,44.686544
1560.0000,36.966482
1561.0000,40.843920
1562.0000,45.670624
1563.0000,58.632632
1564.0000,50.590913
1565.0000,51.657526
1566.0000,49.656721
1567.0000,37.511596
1568.0000,43.778211
1569.0000,51.359657
1570.0000,35.036562
1571.0000,47.717445
1572.0000,35.529639
1573.0000,36.967026
1574.0000,37.883923
1575.0000,42.221877
1576.0000,59.962425
1577.0000,38.023551
1578.0000,35.329269
1579.0000,39.885105
1580.0000,35.440301
1581.0000,42.662599
1582.0000,58.523969
1583.0000,44.671798
1584.0000,44.445838
1585.0000,39.666270
1586.0000,40.422335
1587.0000,44.323012
1588.0000,37.064469
1589.0000,61.666910
1590.0000,46.558066
1591.0000,52.280379
1592.0000,46.310080
1593.0000,36.972834
1594.0000,45.757561
1595.0000,35.271386
1596.0000,34.195270
1597.0000,33.093578
1598.0000,33.508113
1599.0000,44.131683
1600.0000,45.553181
1601.0000,49.135743
1602.0000,48.397562
1603.0000,25.404444
1604.0000,52.637402
1605.0000,52.723432
1606.0000,44.521572
1607.0000,36.745233
1608.0000,43.219252
1609.0000,26.827276
1610.0000,42.905888
1611.0000,46.504621
1612.0000,37.329272
1613.0000,40.331358
1614.0000,55.016535
1615.0000,45.810723
1616.0000,36.833470
1617.0000,44.685147
1618.0000,54.087590
1619.0000,38.183832
1620.0000,39.778977
1621.0000,43.919111
1622.0000,51.102397
1623.0000,45.917154
1624.0000,40.801231
1625.0000,46.963895
1626.0000,40.943930
1627.0000,41.496399
1628.0000,49.305690
1629.0000,62.032686
1630.0000,51.120568
1631.0000,53.593490
1632.0000,42.367817
1633.0000,35.782573
1634.0000,41.181401
1635.0000,36.858674
1636.0000,55.338326
1637.0000,37.652494
1638.0000,38.266398
1639.0000,44.671148
1640.0000,49.482294
1641.0000,56.585842
1642.0000,48.570601
1643.0000,46.141391
1644.0000,44.393149
1645.0000,27.172717
1646.0000,47.209810
1647.0000,45.800643
1648.0000,42.134915
1649.0000,39.393135
1650.0000,51.254563
1651.0000,34.830905
1652.0000,52.606807
1653.0000,40.226987
1654.0000,32.226547
1655.0000,46.054123
1656.0000,32.302058
1657.0000,64.122802
1658.0000,51.579607
1659.0000,42.628450
1660.0000,52.213538
1661.0000,38.693209
1662.0000,48.969036
1663.0000,47.885643
1664.0000,52.569872
1665.0000,51.081308
1666.0000,35.552271
1667.0000,44.074781
1668.0000,42.542358
1669.0000,42.728001
1670.0000,47.805440
1671.0000,48.709843
1672.0000,42.722866
1673.0000,70.486894
1674.0000,52.888938
1675.0000,54.447454
1676.0000,60.034724
1677.0000,45.135813
1678.0000,44.751273
1679.0000,62.288344
1680.0000,44.465870
1681.0000,47.659803
1682.0000,60.582460
1683.0000,45.540149
1684.0000,63.883049
1685.0000,46.376071
1686.0000,59.787121
1687.0000,64.918716
1688.0000,55.561864
1689.0000,44.037764
1690.0000,53.208591
1691.0000,65.034980
1692.0000,59.794738
1693.0000,66.457693
1694.0000,60.793465
1695.0000,76.221030
1696.0000,64.992926
1697.0000,77.459993
1698.0000,59.805033
1699.0000,82.981220
1700.0000,64.728167
1701.0000,77.955253
1702.0000,78.475470
1703.0000,93.255074
1704.0000,81.490945
1705.0000,78.274813
1706.0000,76.937401
1707.0000,72.845206
1708.0000,80.898691
1709.0000,86.175905
1710.0000,107.884846
1711.0000,100.964884
1712.0000,105.277156
1713.0000,92.960512
1714.0000,121.183654
1715.0000,143.801207
1716.0000,142.656414
1717.0000,160.553827
1718.0000,178.883394
1719.0000,213.237469
1720.0000,227.737367
1721.0000,267.840778
1722.0000,305.120642
1723.0000,352.875628
1724.0000,390.234692
1725.0000,466.967945
1726.0000,530.632664
1727.0000,607.986526
1728.0000,678.747576
1729.0000,746.341161
1730.0000,758.734607
1731.0000,755.695468
1732.0000,675.831846
1733.0000,611.110535
1734.0000,536.732365
1735.0000,458.007477
1736.0000,386.350632
1737.0000,345.539730
1738.0000,306.475871
1739.0000,259.355453
1740.0000,225.998287
1741.0000,206.557276
1742.0000,188.698126
1743.0000,181.257086
1744.0000,155.152925
1745.0000,137.358263
1746.0000,130.120332
1747.0000,125.849186
1748.0000,103.690850
1749.0000,120.846970
1750.0000,107.554337
1751.0000,99.183125
1752.0000,88.598620
1753.0000,75.616514
1754.0000,90.546177
1755.0000,71.444416
1756.0000,85.863595
1757.0000,68.388817
1758.0000,65.736201
1759.0000,76.752591
1760.0000,67.350329
1761.0000,63.636400
1762.0000,60.607158
1763.0000,56.602150
1764.0000,56.997960
1765.0000,53.737503
1766.0000,50.716853
1767.0000,42.760158
1768.0000,60.857617
1769.0000,60.467565
1770.0000,56.834242
1771.0000,53.274796
1772.0000,46.248334
1773.0000,67.981406
1774.0000,29.006509
1775.0000,56.230102
1776.0000,53.680367
1777.0000,58.801568
1778.0000,56.672664
1779.0000,58.341534
1780.0000,54.918105
1781.0000,49.174832
1782.0000,48.641793
1783.0000,34.076291
1784.0000,53.162783
1785.0000,47.246600
1786.0000,47.913117
1787.0000,54.573537
1788.0000,68.909891
1789.0000,44.460655
1790.0000,50.333708
1791.0000,44.651993
1792.0000,52.101107
1793.0000,50.542554
1794.0000,29.974185
1795.0000,35.675540
1796.0000,40.193819
1797.0000,61.036016
1798.0000,43.790907
1799.0000,43.706966
1800.0000,53.300790
1801.0000,45.178565
1802.0000,40.982083
1803.0000,48.590275
1804.0000,49.952667
1805.0000,35.632799
1806.0000,32.052664
1807.0000,54.182780
1808.0000,40.711150
1809.0000,41.502535
1810.0000,39.961748
1811.0000,41.828117
1812.0000,45.184437
1813.0000,31.067628
1814.0000,34.016311
1815.0000,50.981128
1816.0000,50.585671
1817.0000,40.634401
1818.0000,32.601108
1819.0000,48.249547
1820.0000,44.260732
1821.0000,48.092484
1822.0000,50.787975
1823.0000,48.442812
1824.0000,40.876411
1825.0000,36.176225
1826.0000,25.377017
1827.0000,34.379998
1828.0000,41.717117
1829.0000,48.308261
1830.0000,48.997585
1831.0000,50.730562
1832.0000,27.305994
1833.0000,39.731153
1834.0000,28.171439
1835.0000,36.527368
1836.0000,31.772111
1837.0000,46.049550
1838.0000,37.632428
1839.0000,30.492098
1840.0000,45.457600
1841.0000,46.330627
1842.0000,45.454280
1843.0000,32.178769
1844.0000,42.502066
1845.0000,52.062419
1846.0000,49.897344
1847.0000,46.286708
1848.0000,49.057998
1849.0000,36.209494
1850.0000,45.845959
1851.0000,37.301606
1852.0000,54.803763
1853.0000,34.248663
1854.0000,46.951731
1855.0000,40.199562
1856.0000,43.252856
1857.0000,35.030944
1858.0000,44.083907
1859.0000,40.885316
1860.0000,34.183594
1861.0000,46.073140
1862.0000,37.177831
1863.0000,33.697096
1864.0000,46.584396
1865.0000,49.854807
1866.0000,41.260244
1867.0000,36.220331
1868.0000,43.504006
1869.0000,43.230299
1870.0000,37.923499
1871.0000,59.410865
1872.0000,33.418660
1873.0000,49.582517
1874.0000,39.865438
1875.0000,47.787796
1876.0000,40.674756
1877.0000,45.683988
1878.0000,53.731924
1879.0000,46.750952
1880.0000,32.527441
1881.0000,34.908969
1882.0000,37.821085
1883.0000,57.868646
1884.0000,56.110355
1885.0000,46.460293
1886.0000,42.264007
1887.0000,41.269440
1888.0000,35.200974
1889.0000,40.450171
1890.0000,53.335168
1891.0000,32.566112
1892.0000,37.486389
1893.0000,40.602190
1894.0000,40.152374
1895.0000,41.612210
1896.0000,49.934521
1897.0000,50.298145
1898.0000,35.244078
1899.0000,27.136339
1900.0000,34.892372
1901.0000,46.325093
1902.0000,28.922628
1903.0000,38.793397
1904.0000,29.275845
1905.0000,41.802856
1906.0000,48.089181
1907.0000,36.688080
1908.0000,43.810474
1909.0000,43.756431
1910.0000,49.481388
1911.0000,47.394869
1912.0000,44.830961
1913.0000,44.942732
1914.0000,43.273842
1915.0000,44.225880
1916.0000,36.147817
1917.0000,48.116982
1918.0000,51.037389
1919.0000,46.811208
1920.0000,39.843895
1921.0000,43.460732
1922.0000,35.436029
1923.0000,31.064983
1924.0000,34.467412
1925.0000,42.815865
1926.0000,31.718527
1927.0000,49.516654
1928.0000,41.239012
1929.0000,45.157406
1930.0000,30.063075
1931.0000,35.559430
1932.0000,40.906948
1933.0000,46.262255
1934.0000,34.399535
1935.0000,44.886319
1936.0000,46.484483
1937.0000,46.851821
1938.0000,40.891196
1939.0000,33.364033
1940.0000,41.987897
1941.0000,34.718518
1942.0000,27.280877
1943.0000,33.540683
1944.0000,39.978197
1945.0000,38.004382
1946.0000,49.351743
1947.0000,54.622204
1948.0000,43.345520
1949.0000,36.380135
1950.0000,43.953215
1951.0000,43.631944
1952.0000,32.007852
1953.0000,27.822244
1954.0000,53.325990
1955.0000,43.653593
1956.0000,40.541986
1957.0000,42.408725
1958.0000,40.743271
1959.0000,39.827509
1960.0000,47.307836
1961.0000,39.054691
1962.0000,49.727662
1963.0000,35.147596
1964.0000,52.898353
1965.0000,54.857411
1966.0000,47.008455
1967.0000,31.446150
1968.0000,52.523355
1969.0000,39.467974
1970.0000,31.474372
1971.0000,24.327388
1972.0000,43.738798
1973.0000,42.617538
1974.0000,38.422212
1975.0000,39.986574
1976.0000,40.039283
1977.0000,48.930508
1978.0000,27.252085
1979.0000,33.396632
1980.0000,64.570190
1981.0000,37.458456
1982.0000,50.120804
1983.0000,26.691949
1984.0000,57.155437
1985.0000,31.393550
1986.0000,48.495871
1987.0000,34.733874
1988.0000,40.641927
1989.0000,40.949435
1990.0000,39.526201
1991.0000,47.383382
1992.0000,48.742223
1993.0000,39.421586
1994.0000,40.917713
1995.0000,26.550131
1996.0000,35.046818
1997.0000,35.256071
1998.0000,47.344794
1999.0000,35.850167
2000.0000,47.365296
