raman_shift_cm-1,intensity
200.0000,44.446917
201.0000,42.325261
202.0000,43.312452
203.0000,47.802825
204.0000,36.567118
205.0000,40.805708
206.0000,36.443254
207.0000,40.408795
208.0000,27.126876
209.0000,35.050102
210.0000,35.317900
211.0000,38.163119
212.0000,40.426402
213.0000,32.542322
214.0000,40.060005
215.0000,36.094815
216.0000,12.494205
217.0000,40.608845
218.0000,23.697443
219.0000,42.640369
220.0000,42.484067
221.0000,37.534765
222.0000,29.998069
223.0000,11.626619
224.0000,8.266901
225.0000,27.086151
226.0000,45.850565
227.0000,32.960724
228.0000,19.830353
229.0000,32.008193
230.0000,48.829524
231.0000,52.841456
232.0000,49.504393
233.0000,53.559870
234.0000,45.950670
235.0000,37.705069
236.0000,29.088011
237.0000,47.158294
238.0000,44.587246
239.0000,20.183288
240.0000,37.115667
241.0000,52.094305
242.0000,46.982843
243.0000,21.546464
244.0000,39.953880
245.0000,56.857430
246.0000,35.979614
247.0000,32.067599
248.0000,21.957832
249.0000,39.887009
250.0000,48.979673
251.0000,39.139892
252.0000,51.159394
253.0000,18.407062
254.0000,16.976929
255.0000,46.043376
256.0000,54.152168
257.0000,19.027634
258.0000,47.982727
259.0000,59.820216
260.0000,58.462205
261.0000,17.472105
262.0000,24.610073
263.0000,40.003445
264.0000,36.144500
265.0000,55.797831
266.0000,38.237299
267.0000,45.117243
268.0000,63.785236
269.0000,32.741884
270.0000,41.458994
271.0000,41.927897
272.0000,9.269368
273.0000,36.343493
274.0000,56.827530
275.0000,25.102057
276.0000,48.791601
277.0000,34.592077
278.0000,27.985753
279.0000,41.084991
280.0000,59.227456
281.0000,27.832102
282.0000,21.710305
283.0000,51.037437
284.0000,41.795308
285.0000,14.859202
286.0000,48.115859
287.0000,31.263280
288.0000,18.771309
289.0000,30.175845
290.0000,36.606459
291.0000,49.186833
292.0000,31.398514
293.0000,43.216598
294.0000,41.448859
295.0000,26.030828
296.0000,41.843632
297.0000,36.616305
298.0000,41.339619
299.0000,41.700245
300.0000,44.467022
301.0000,35.958502
302.0000,60.103164
303.0000,30.421493
304.0000,28.029599
305.0000,27.811748
306.0000,36.862184
307.0000,44.407811
308.0000,46.765313
309.0000,25.295953
310.0000,30.937233
311.0000,42.665709
312.0000,27.586101
313.0000,34.413423
314.0000,53.152766
315.0000,40.477687
316.0000,5.350408
317.0000,45.209637
318.0000,57.287100
319.0000,52.269541
320.0000,59.167474
321.0000,40.778348
322.0000,35.784347
323.0000,51.263607
324.0000,35.287140
325.0000,30.500166
326.0000,73.147678
327.0000,40.272541
328.0000,42.484488
329.0000,48.788061
330.0000,48.101026
331.0000,25.050055
332.0000,36.972330
333.0000,36.239935
334.0000,43.641305
335.0000,38.345802
336.0000,41.864547
337.0000,44.676443
338.0000,41.338898
339.0000,54.916397
340.0000,52.226709
341.0000,51.950138
342.0000,40.040180
343.0000,25.703833
344.0000,26.288556
345.0000,40.544714
346.0000,51.135679
347.0000,34.644617
348.0000,50.329467
349.0000,48.429322
350.0000,44.635915
351.0000,33.738684
352.0000,40.100403
353.0000,44.714963
354.0000,20.964436
355.0000,27.327529
356.0000,35.903795
357.0000,68.742131
358.0000,64.762963
359.0000,46.540689
360.0000,52.250989
361.0000,55.360527
362.0000,56.169536
363.0000,20.122660
364.0000,20.945717
365.0000,50.689012
366.0000,46.896378
367.0000,29.727235
368.0000,48.723407
369.0000,45.374115
370.0000,38.843163
371.0000,45.532069
372.0000,27.963131
373.0000,51.585147
374.0000,34.294585
375.0000,43.574442
376.0000,32.404107
377.0000,61.153166
378.0000,39.208090
379.0000,49.171191
380.0000,20.818952
381.0000,56.746469
382.0000,45.017820
383.0000,47.511064
384.0000,29.113286
385.0000,31.277435
386.0000,33.658075
387.0000,36.695491
388.0000,27.218615
389.0000,34.965921
390.0000,38.011554
391.0000,39.498706
392.0000,48.423545
393.0000,56.530311
394.0000,26.556238
395.0000,32.291105
396.0000,45.753376
397.0000,57.844551
398.0000,20.499794
399.0000,41.509552
400.0000,47.477752
401.0000,28.252424
402.0000,56.583443
403.0000,38.620854
404.0000,43.417553
405.0000,41.433916
406.0000,41.434510
407.0000,48.548172
408.0000,25.545888
409.0000,27.567812
410.0000,54.002410
411.0000,40.541571
412.0000,46.372324
413.0000,45.057936
414.0000,37.587434
415.0000,37.003343
416.0000,38.907193
417.0000,70.836689
418.0000,46.841659
419.0000,48.911933
420.0000,55.100568
421.0000,30.337098
422.0000,51.293239
423.0000,55.181956
424.0000,47.128646
425.0000,31.209339
426.0000,53.051946
427.0000,58.089820
428.0000,58.143962
429.0000,53.933877
430.0000,28.719446
431.0000,39.763725
432.0000,37.809578
433.0000,46.263413
434.0000,32.820472
435.0000,42.301140
436.0000,37.814707
437.0000,37.588053
438.0000,46.704789
439.0000,39.347742
440.0000,47.480689
441.0000,19.429023
442.0000,45.504999
443.0000,31.895634
444.0000,49.813034
445.0000,37.452353
446.0000,30.001966
447.0000,37.635237
448.0000,68.456292
449.0000,30.819577
450.0000,22.629188
451.0000,20.984791
452.0000,51.913840
453.0000,29.263238
454.0000,34.058206
455.0000,36.206968
456.0000,35.219338
457.0000,51.415823
458.0000,50.133840
459.0000,42.435632
460.0000,41.394827
461.0000,39.656983
462.0000,46.696964
463.0000,41.396084
464.0000,51.399794
465.0000,42.553475
466.0000,55.752245
467.0000,34.229631
468.0000,37.433360
469.0000,52.641600
470.0000,45.494930
471.0000,42.697003
472.0000,31.454265
473.0000,28.742748
474.0000,25.265926
475.0000,57.038237
476.0000,33.652463
477.0000,54.470598
478.0000,45.433991
479.0000,28.896649
480.0000,29.076257
481.0000,40.491017
482.0000,31.490361
483.0000,18.205789
484.0000,41.790159
485.0000,30.049885
486.0000,44.607819
487.0000,24.489616
488.0000,32.797700
489.0000,39.247283
490.0000,32.642768
491.0000,45.978984
492.0000,29.595604
493.0000,17.042263
494.0000,32.672741
495.0000,60.501138
496.0000,33.501438
497.0000,34.297061
498.0000,36.008901
499.0000,51.074622
500.0000,33.671533
501.0000,29.198888
502.0000,31.726818
503.0000,46.596841
504.0000,45.233840
505.0000,42.223227
506.0000,66.554966
507.0000,61.374331
508.0000,39.957751
509.0000,32.386502
510.0000,47.150915
511.0000,70.360316
512.0000,21.384500
513.0000,32.381445
514.0000,44.918110
515.0000,56.835204
516.0000,60.249399
517.0000,47.982367
518.0000,28.768273
519.0000,63.339446
520.0000,33.304972
521.0000,38.910707
522.0000,30.925570
523.0000,38.875563
524.0000,50.293785
525.0000,34.829162
526.0000,45.600508
527.0000,39.228702
528.0000,36.427083
529.0000,22.687744
530.0000,36.107286
531.0000,61.521072
532.0000,45.514439
533.0000,40.831610
534.0000,39.213221
535.0000,31.618789
536.0000,41.696049
537.0000,42.822547
538.0000,48.184946
539.0000,37.879412
540.0000,19.851255
541.0000,44.883788
542.0000,56.302442
543.0000,40.441562
544.0000,31.492395
545.0000,27.008190
546.0000,35.172654
547.0000,37.493364
548.0000,23.246336
549.0000,55.472354
550.0000,52.181430
551.0000,30.452833
552.0000,33.042407
553.0000,49.344431
554.0000,20.797581
555.0000,55.851705
556.0000,39.151041
557.0000,58.468414
558.0000,55.917207
559.0000,38.193394
560.0000,32.564105
561.0000,37.296305
562.0000,60.339058
563.0000,47.289375
564.0000,39.816578
565.0000,56.670241
566.0000,65.839247
567.0000,53.549196
568.0000,50.238757
569.0000,52.254347
570.0000,37.366287
571.0000,53.626519
572.0000,43.085927
573.0000,53.200070
574.0000,31.990844
575.0000,46.274907
576.0000,71.070408
577.0000,45.908125
578.0000,47.829429
579.0000,76.164458
580.0000,42.919953
581.0000,37.904632
582.0000,61.158965
583.0000,57.605353
584.0000,64.433029
585.0000,40.491084
586.0000,54.349519
587.0000,69.672932
588.0000,67.329042
589.0000,57.444774
590.0000,57.442021
591.0000,64.072679
592.0000,67.931217
593.0000,60.298459
594.0000,68.398216
595.0000,64.830072
596.0000,72.950148
597.0000,54.700519
598.0000,74.405834
599.0000,70.072991
600.0000,80.490870
601.0000,79.075131
602.0000,57.767779
603.0000,60.618713
604.0000,74.467973
605.0000,111.322019
606.0000,111.766834
607.0000,89.012315
608.0000,113.462601
609.0000,137.592409
610.0000,155.042438
611.0000,166.984999
612.0000,179.741520
613.0000,216.631197
614.0000,246.585071
615.0000,273.743321
616.0000,337.266837
617.0000,394.617511
618.0000,409.563179
619.0000,467.392744
620.0000,460.368685
621.0000,439.540610
622.0000,402.005151
623.0000,385.671147
624.0000,343.429468
625.0000,273.994595
626.0000,240.979880
627.0000,244.955192
628.0000,202.188488
629.0000,166.222157
630.0000,155.529792
631.0000,115.484998
632.0000,119.988308
633.0000,127.593329
634.0000,116.378209
635.0000,87.194030
636.0000,80.308793
637.0000,84.285118
638.0000,76.329405
639.0000,101.039874
640.0000,93.745407
641.0000,69.022946
642.0000,74.115860
643.0000,77.865395
644.0000,78.628182
645.0000,58.500597
646.0000,75.935184
647.0000,53.822590
648.0000,68.122918
649.0000,55.713269
650.0000,35.522619
651.0000,35.931510
652.0000,84.259688
653.0000,48.825146
654.0000,66.384972
655.0000,47.901840
656.0000,33.016164
657.0000,52.279759
658.0000,54.014214
659.0000,42.589471
660.0000,38.509740
661.0000,46.604557
662.0000,47.126052
663.0000,63.365263
664.0000,41.404625
665.0000,44.539901
666.0000,32.595695
667.0000,36.854422
668.0000,37.684763
669.0000,42.538854
670.0000,52.923787
671.0000,51.436553
672.0000,24.086125
673.0000,51.178393
674.0000,39.247107
675.0000,38.612277
676.0000,42.395943
677.0000,60.937247
678.0000,42.781912
679.0000,39.167010
680.0000,50.730018
681.0000,46.526436
682.0000,42.663660
683.0000,52.549753
684.0000,51.973589
685.0000,43.394670
686.0000,58.718800
687.0000,51.805302
688.0000,41.862635
689.0000,36.780859
690.0000,56.294320
691.0000,30.803000
692.0000,44.603633
693.0000,47.304665
694.0000,42.073867
695.0000,47.611753
696.0000,38.644643
697.0000,56.883656
698.0000,47.617738
699.0000,21.796250
700.0000,23.191112
701.0000,47.369442
702.0000,32.447416
703.0000,53.275452
704.0000,57.023676
705.0000,52.354215
706.0000,37.238975
707.0000,13.124522
708.0000,46.210344
709.0000,40.674796
710.0000,46.262637
711.0000,45.321499
712.0000,36.603680
713.0000,30.308283
714.0000,37.695421
715.0000,39.248879
716.0000,32.987826
717.0000,47.516837
718.0000,39.521260
719.0000,45.039227
720.0000,48.884851
721.0000,40.192184
722.0000,35.878509
723.0000,69.785653
724.0000,66.573057
725.0000,54.936780
726.0000,44.428365
727.0000,54.114567
728.0000,36.482125
729.0000,43.801421
730.0000,51.742151
731.0000,40.202902
732.0000,58.657996
733.0000,39.539108
734.0000,51.458258
735.0000,47.637250
736.0000,41.715108
737.0000,38.678219
738.0000,28.813894
739.0000,46.603735
740.0000,31.290090
741.0000,28.854175
742.0000,52.095146
743.0000,37.515066
744.0000,51.895880
745.0000,32.569792
746.0000,36.968069
747.0000,51.888267
748.0000,50.435165
749.0000,32.103489
750.0000,47.566101
751.0000,51.536405
752.0000,52.567878
753.0000,42.409220
754.0000,48.729992
755.0000,17.182268
756.0000,49.329127
757.0000,18.726628
758.0000,48.793060
759.0000,52.395913
760.0000,48.020899
761.0000,37.464267
762.0000,43.063370
763.0000,61.255368
764.0000,40.036163
765.0000,43.476902
766.0000,44.182304
767.0000,37.971032
768.0000,35.749208
769.0000,45.370634
770.0000,32.999422
771.0000,44.017540
772.0000,33.841262
773.0000,53.051072
774.0000,67.753296
775.0000,41.642289
776.0000,39.907386
777.0000,41.589897
778.0000,57.811230
779.0000,45.341226
780.0000,37.259465
781.0000,27.561945
782.0000,12.325546
783.0000,30.636310
784.0000,20.311838
785.0000,53.667850
786.0000,62.152599
787.0000,53.869391
788.0000,24.702103
789.0000,45.100489
790.0000,60.004584
791.0000,38.013569
792.0000,59.889240
793.0000,61.505808
794.0000,51.456477
795.0000,48.859062
796.0000,44.093015
797.0000,48.466790
798.0000,39.462329
799.0000,50.740746
800.0000,45.195799
801.0000,46.069867
802.0000,28.778323
803.0000,62.291907
804.0000,35.574376
805.0000,56.806494
806.0000,13.316333
807.0000,53.548189
808.0000,43.909166
809.0000,23.798845
810.0000,28.363153
811.0000,28.779978
812.0000,19.169188
813.0000,51.596133
814.0000,12.454258
815.0000,42.357046
816.0000,47.622543
817.0000,24.461047
818.0000,50.847705
819.0000,44.294608
820.0000,38.010260
821.0000,44.747087
822.0000,45.418483
823.0000,47.464128
824.0000,27.096691
825.0000,49.931118
826.0000,65.933269
827.0000,39.030228
828.0000,50.482887
829.0000,48.711191
830.0000,48.349416
831.0000,38.443242
832.0000,45.245643
833.0000,46.254541
834.0000,38.661091
835.0000,49.625544
836.0000,46.326216
837.0000,27.653021
838.0000,33.450052
839.0000,26.308133
840.0000,52.135199
841.0000,66.766331
842.0000,48.935456
843.0000,37.342556
844.0000,44.155383
845.0000,37.352706
846.0000,49.277447
847.0000,46.146591
848.0000,63.929202
849.0000,36.511970
850.0000,58.761528
851.0000,44.093557
852.0000,65.810794
853.0000,42.724345
854.0000,29.985795
855.0000,41.848148
856.0000,44.088416
857.0000,32.124169
858.0000,59.139177
859.0000,41.286664
860.0000,20.521512
861.0000,42.667136
862.0000,27.504901
863.0000,42.984080
864.0000,51.523842
865.0000,58.253208
866.0000,30.981925
867.0000,47.018153
868.0000,41.909497
869.0000,41.475651
870.0000,47.715821
871.0000,56.462209
872.0000,33.571047
873.0000,36.465490
874.0000,60.851664
875.0000,43.209952
876.0000,46.362605
877.0000,39.745180
878.0000,35.435731
879.0000,29.792457
880.0000,48.713840
881.0000,46.950338
882.0000,54.383189
883.0000,26.544958
884.0000,50.641123
885.0000,47.354963
886.0000,44.675854
887.0000,35.063245
888.0000,29.063490
889.0000,46.413175
890.0000,54.220496
891.0000,63.025440
892.0000,64.784772
893.0000,42.381115
894.0000,22.928395
895.0000,32.995694
896.0000,44.720723
897.0000,32.427803
898.0000,60.838812
899.0000,56.377403
900.0000,63.698508
901.0000,54.677772
902.0000,45.207384
903.0000,31.663022
904.0000,37.878217
905.0000,48.973193
906.0000,38.016763
907.0000,40.228074
908.0000,83.971874
909.0000,43.834071
910.0000,51.923510
911.0000,57.439789
912.0000,67.766112
913.0000,36.463412
914.0000,31.098067
915.0000,71.948471
916.0000,47.311329
917.0000,36.627019
918.0000,40.977968
919.0000,71.865634
920.0000,44.405663
921.0000,65.145127
922.0000,64.571415
923.0000,53.852956
924.0000,65.110517
925.0000,38.933894
926.0000,31.827188
927.0000,34.241432
928.0000,43.402664
929.0000,56.353103
930.0000,33.715728
931.0000,57.289515
932.0000,47.199551
933.0000,60.126950
934.0000,60.339631
935.0000,44.060425
936.0000,56.197030
937.0000,68.148192
938.0000,43.776638
939.0000,54.399711
940.0000,44.699195
941.0000,36.622247
942.0000,47.595850
943.0000,41.375208
944.0000,48.550324
945.0000,72.728157
946.0000,52.645913
947.0000,34.691321
948.0000,65.360023
949.0000,65.779376
950.0000,51.910051
951.0000,28.380610
952.0000,76.631284
953.0000,79.791203
954.0000,40.961190
955.0000,55.178738
956.0000,73.150249
957.0000,57.788040
958.0000,71.513030
959.0000,69.318790
960.0000,80.479069
961.0000,81.446795
962.0000,65.855594
963.0000,63.277165
964.0000,58.750025
965.0000,63.910735
966.0000,70.800579
967.0000,77.052498
968.0000,84.020769
969.0000,81.292927
970.0000,102.721352
971.0000,95.331446
972.0000,75.465215
973.0000,105.839428
974.0000,92.453865
975.0000,68.035325
976.0000,104.266265
977.0000,94.861878
978.0000,95.633959
979.0000,88.575191
980.0000,151.560637
981.0000,132.743486
982.0000,153.863181
983.0000,172.127223
984.0000,171.573008
985.0000,149.810605
986.0000,186.831411
987.0000,210.706504
988.0000,235.796734
989.0000,242.089587
990.0000,280.491019
991.0000,309.737965
992.0000,367.516810
993.0000,397.157918
994.0000,462.912021
995.0000,549.070607
996.0000,640.206732
997.0000,748.681054
998.0000,849.462870
999.0000,975.961041
1000.0000,1035.673066
1001.0000,1065.890217
1002.0000,1030.341492
1003.0000,967.710553
1004.0000,865.095022
1005.0000,740.087491
1006.0000,682.042013
1007.0000,564.824394
1008.0000,500.987158
1009.0000,442.970267
1010.0000,371.948268
1011.0000,364.411707
1012.0000,334.145911
1013.0000,294.815815
1014.0000,270.409313
1015.0000,248.004963
1016.0000,283.420832
1017.0000,251.694577
1018.0000,260.145231
1019.0000,247.956624
1020.0000,261.819342
1021.0000,257.027276
1022.0000,265.166494
1023.0000,324.906793
1024.0000,346.703725
1025.0000,381.606381
1026.0000,430.642942
1027.0000,461.340143
1028.0000,525.381498
1029.0000,571.698782
1030.0000,605.536964
1031.0000,623.089999
1032.0000,607.846805
1033.0000,577.771771
1034.0000,520.685648
1035.0000,442.534557
1036.0000,399.855376
1037.0000,335.479776
1038.0000,285.321067
1039.0000,249.605827
1040.0000,235.039211
1041.0000,211.163932
1042.0000,165.870573
1043.0000,171.532644
1044.0000,143.980615
1045.0000,135.128982
1046.0000,114.170097
1047.0000,130.112955
1048.0000,143.387593
1049.0000,121.829453
1050.0000,118.408405
1051.0000,103.470774
1052.0000,85.015912
1053.0000,85.573511
1054.0000,88.029210
1055.0000,85.650345
1056.0000,72.344345
1057.0000,78.170017
1058.0000,86.920006
1059.0000,71.768132
1060.0000,67.898836
1061.0000,73.325786
1062.0000,74.227250
1063.0000,74.607033
1064.0000,65.993871
1065.0000,74.422699
1066.0000,69.078998
1067.0000,79.240388
1068.0000,91.783412
1069.0000,30.216273
1070.0000,55.535698
1071.0000,49.044985
1072.0000,74.533374
1073.0000,51.514029
1074.0000,63.631642
1075.0000,89.362897
1076.0000,53.611855
1077.0000,42.558753
1078.0000,47.336500
1079.0000,64.537337
1080.0000,45.492039
1081.0000,33.264674
1082.0000,32.320352
1083.0000,49.069392
1084.0000,53.669972
1085.0000,62.870530
1086.0000,59.230635
1087.0000,39.545084
1088.0000,33.100623
1089.0000,42.751439
1090.0000,67.268709
1091.0000,54.518442
1092.0000,56.836449
1093.0000,44.002997
1094.0000,69.014126
1095.0000,41.522274
1096.0000,56.539273
1097.0000,63.328687
1098.0000,26.507011
1099.0000,69.132867
1100.0000,61.076676
1101.0000,43.897021
1102.0000,39.279611
1103.0000,30.158768
1104.0000,63.248714
1105.0000,42.519105
1106.0000,51.650241
1107.0000,64.509801
1108.0000,64.709236
1109.0000,55.651461
1110.0000,49.799589
1111.0000,63.610710
1112.0000,52.780207
1113.0000,30.438429
1114.0000,63.074484
1115.0000,34.387257
1116.0000,55.247153
1117.0000,43.337461
1118.0000,59.049283
1119.0000,33.704443
1120.0000,54.250831
1121.0000,63.934613
1122.0000,40.553998
1123.0000,59.883935
1124.0000,25.897261
1125.0000,51.981056
1126.0000,51.788268
1127.0000,35.415422
1128.0000,46.729625
1129.0000,46.295523
1130.0000,75.515927
1131.0000,54.953334
1132.0000,92.615211
1133.0000,60.793693
1134.0000,67.158016
1135.0000,84.246546
1136.0000,52.937398
1137.0000,80.612097
1138.0000,74.341707
1139.0000,74.085649
1140.0000,62.601981
1141.0000,89.819556
1142.0000,62.425528
1143.0000,71.357354
1144.0000,97.586062
1145.0000,81.064812
1146.0000,100.596061
1147.0000,133.524306
1148.0000,141.961599
1149.0000,165.082142
1150.0000,172.937386
1151.0000,195.299944
1152.0000,215.865000
1153.0000,220.433679
1154.0000,274.274584
1155.0000,275.757285
1156.0000,243.305917
1157.0000,241.173817
1158.0000,230.596454
1159.0000,193.976674
1160.0000,185.596564
1161.0000,153.033537
1162.0000,117.020589
1163.0000,105.260459
1164.0000,91.904659
1165.0000,114.168848
1166.0000,80.215914
1167.0000,85.249040
1168.0000,59.010559
1169.0000,81.488523
1170.0000,77.746903
1171.0000,95.702814
1172.0000,77.064535
1173.0000,79.489358
1174.0000,47.896897
1175.0000,50.895542
1176.0000,73.698320
1177.0000,59.818053
1178.0000,45.181639
1179.0000,46.980968
1180.0000,59.651404
1181.0000,72.868780
1182.0000,53.423024
1183.0000,69.051283
1184.0000,32.257588
1185.0000,88.374110
1186.0000,36.591722
1187.0000,61.091177
1188.0000,21.042362
1189.0000,48.959193
1190.0000,47.324470
1191.0000,34.751328
1192.0000,53.359008
1193.0000,40.161839
1194.0000,51.426124
1195.0000,46.870811
1196.0000,44.817175
1197.0000,43.825917
1198.0000,30.220358
1199.0000,46.343481
1200.0000,45.880164
1201.0000,34.535182
1202.0000,31.308203
1203.0000,63.086648
1204.0000,62.835190
1205.0000,36.742264
1206.0000,34.268590
1207.0000,45.468968
1208.0000,69.857294
1209.0000,45.303777
1210.0000,32.424057
1211.0000,40.392061
1212.0000,49.280778
1213.0000,75.601352
1214.0000,48.340640
1215.0000,58.742068
1216.0000,26.383025
1217.0000,44.433030
1218.0000,40.207644
1219.0000,-3.312698
1220.0000,29.215974
1221.0000,50.579872
1222.0000,49.077015
1223.0000,69.030125
1224.0000,35.818011
1225.0000,59.779604
1226.0000,39.785401
1227.0000,41.644368
1228.0000,37.182584
1229.0000,33.595773
1230.0000,33.112054
1231.0000,40.188731
1232.0000,46.301966
1233.0000,31.413919
1234.0000,39.480305
1235.0000,44.999373
1236.0000,41.640240
1237.0000,39.469372
1238.0000,44.155231
1239.0000,26.890065
1240.0000,32.708912
1241.0000,59.550497
1242.0000,53.167287
1243.0000,33.211130
1244.0000,66.214860
1245.0000,52.375309
1246.0000,31.625832
1247.0000,39.342715
1248.0000,56.091478
1249.0000,44.306508
1250.0000,44.314026
1251.0000,56.873986
1252.0000,38.733936
1253.0000,38.344818
1254.0000,36.364459
1255.0000,33.273793
1256.0000,36.941979
1257.0000,37.396381
1258.0000,36.588143
1259.0000,39.003585
1260.0000,43.604735
1261.0000,37.889426
1262.0000,30.068702
1263.0000,43.424562
1264.0000,53.040036
1265.0000,51.567137
1266.0000,35.996427
1267.0000,46.685933
1268.0000,36.276313
1269.0000,38.931783
1270.0000,37.995496
1271.0000,58.394435
1272.0000,45.049359
1273.0000,27.683515
1274.0000,53.240732
1275.0000,30.821137
1276.0000,24.805273
1277.0000,46.808017
1278.0000,34.480510
1279.0000,52.409393
1280.0000,50.421535
1281.0000,25.755486
1282.0000,43.211145
1283.0000,64.277487
1284.0000,36.875427
1285.0000,24.906308
1286.0000,46.930985
1287.0000,60.880135
1288.0000,28.830386
1289.0000,37.100282
1290.0000,39.400130
1291.0000,52.607674
1292.0000,65.795006
1293.0000,59.859362
1294.0000,59.617363
1295.0000,59.955958
1296.0000,45.951044
1297.0000,46.188124
1298.0000,46.400179
1299.0000,38.402484
1300.0000,65.888527
1301.0000,44.555893
1302.0000,15.661516
1303.0000,47.603871
1304.0000,51.477473
1305.0000,60.168892
1306.0000,41.840410
1307.0000,24.734528
1308.0000,40.801915
1309.0000,21.790828
1310.0000,33.621776
1311.0000,59.264072
1312.0000,55.802906
1313.0000,49.572648
1314.0000,32.113508
1315.0000,52.966608
1316.0000,51.522977
1317.0000,58.889052
1318.0000,54.775931
1319.0000,29.996260
1320.0000,35.991406
1321.0000,22.039726
1322.0000,42.799460
1323.0000,45.959242
1324.0000,42.750644
1325.0000,41.072179
1326.0000,34.708615
1327.0000,27.098538
1328.0000,47.369849
1329.0000,18.538482
1330.0000,42.064358
1331.0000,61.773105
1332.0000,29.796522
1333.0000,19.376741
1334.0000,50.735581
1335.0000,26.388269
1336.0000,55.999178
1337.0000,59.961888
1338.0000,29.025808
1339.0000,28.814573
1340.0000,53.289595
1341.0000,35.696848
1342.0000,53.407482
1343.0000,45.263297
1344.0000,12.667756
1345.0000,39.919900
1346.0000,42.473518
1347.0000,45.843907
1348.0000,45.757670
1349.0000,34.685692
1350.0000,43.053400
1351.0000,45.689978
1352.0000,45.389882
1353.0000,51.709822
1354.0000,40.953533
1355.0000,41.921736
1356.0000,35.678387
1357.0000,60.763361
1358.0000,49.219333
1359.0000,44.366226
1360.0000,32.090795
1361.0000,33.788919
1362.0000,32.496350
1363.0000,37.189327
1364.0000,56.321860
1365.0000,60.725692
1366.0000,31.245630
1367.0000,53.105574
1368.0000,53.400468
1369.0000,38.159203
1370.0000,33.036971
1371.0000,24.093484
1372.0000,38.428138
1373.0000,32.854769
1374.0000,59.010926
1375.0000,35.644337
1376.0000,42.752761
1377.0000,47.069414
1378.0000,20.453288
1379.0000,56.802172
1380.0000,57.509747
1381.0000,37.132128
1382.0000,24.236501
1383.0000,17.857307
1384.0000,62.682556
1385.0000,47.345638
1386.0000,33.101070
1387.0000,45.053709
1388.0000,54.902938
1389.0000,66.196518
1390.0000,34.654043
1391.0000,42.425705
1392.0000,49.166827
1393.0000,60.198302
1394.0000,75.060153
1395.0000,47.725399
1396.0000,31.692014
1397.0000,30.746437
1398.0000,62.179607
1399.0000,68.888033
1400.0000,50.404836
1401.0000,46.155889
1402.0000,52.185817
1403.0000,54.986840
1404.0000,49.225482
1405.0000,37.277374
1406.0000,45.448640
1407.0000,58.939062
1408.0000,65.563316
1409.0000,54.499795
1410.0000,20.079529
1411.0000,45.542629
1412.0000,59.367936
1413.0000,68.626226
1414.0000,54.629356
1415.0000,54.450407
1416.0000,65.580792
1417.0000,32.472926
1418.0000,45.434217
1419.0000,53.425860
1420.0000,75.440328
1421.0000,68.236142
1422.0000,68.030009
1423.0000,62.975659
1424.0000,74.792083
1425.0000,41.579851
1426.0000,64.162650
1427.0000,68.970748
1428.0000,90.148331
1429.0000,83.959699
1430.0000,71.800297
1431.0000,48.428311
1432.0000,81.759144
1433.0000,87.201079
1434.0000,106.107602
1435.0000,93.088194
1436.0000,82.264823
1437.0000,115.634920
1438.0000,125.724317
1439.0000,126.920880
1440.0000,151.676515
1441.0000,147.551896
1442.0000,199.618700
1443.0000,213.730218
1444.0000,260.302897
1445.0000,259.946218
1446.0000,321.536531
1447.0000,348.084066
1448.0000,385.913633
1449.0000,434.560452
1450.0000,453.459739
1451.0000,434.010185
1452.0000,399.827342
1453.0000,362.213879
1454.0000,304.737500
1455.0000,275.316802
1456.0000,250.326051
1457.0000,217.512636
1458.0000,188.977677
1459.0000,190.888703
1460.0000,149.724412
1461.0000,141.079416
1462.0000,137.863434
1463.0000,116.877342
1464.0000,93.497602
1465.0000,118.041568
1466.0000,97.979918
1467.0000,94.229132
1468.0000,80.961293
1469.0000,60.197729
1470.0000,63.083302
1471.0000,92.863031
1472.0000,99.411671
1473.0000,68.846910
1474.0000,86.761432
1475.0000,73.123512
1476.0000,76.861813
1477.0000,52.781105
1478.0000,69.413501
1479.0000,59.179426
1480.0000,49.539123
1481.0000,50.924077
1482.0000,66.955739
1483.0000,66.792462
1484.0000,53.567509
1485.0000,64.435732
1486.0000,28.731727
1487.0000,51.821081
1488.0000,66.494138
1489.0000,40.506186
1490.0000,47.496271
1491.0000,49.996093
1492.0000,67.216290
1493.0000,43.231013
1494.0000,39.048751
1495.0000,50.178557
1496.0000,37.458361
1497.0000,38.715922
1498.0000,39.936816
1499.0000,46.970409
1500.0000,41.898351
1501.0000,43.552619
1502.0000,42.012576
1503.0000,42.787818
1504.0000,56.498696
1505.0000,40.672781
1506.0000,55.750321
1507.0000,38.617108
1508.0000,48.657513
1509.0000,57.288898
1510.0000,60.659850
1511.0000,62.780804
1512.0000,41.647716
1513.0000,32.224786
1514.0000,54.554923
1515.0000,50.384514
1516.0000,54.338517
1517.0000,55.494155
1518.0000,61.209203
1519.0000,41.939931
1520.0000,37.708316
1521.0000,44.862788
1522.0000,57.491533
1523.0000,68.110496
1524.0000,36.700284
1525.0000,30.399799
1526.0000,60.519935
1527.0000,39.542025
1528.0000,50.053308
1529.0000,69.892383
1530.0000,44.128410
1531.0000,74.105340
1532.0000,66.086301
1533.0000,42.362428
1534.0000,52.428873
1535.0000,45.809608
1536.0000,44.092060
1537.0000,45.742222
1538.0000,45.287555
1539.0000,57.545321
1540.0000,35.367888
1541.0000,46.986411
1542.0000,61.930944
1543.0000,61.763661
1544.0000,47.051405
1545.0000,61.797159
1546.0000,65.126028
1547.0000,48.303229
1548.0000,55.164057
1549.0000,69.243296
1550.0000,69.657173
1551.0000,59.859011
1552.0000,53.394704
1553.0000,46.908305
1554.0000,96.371044
1555.0000,66.877053
1556.0000,77.894767
1557.0000,66.759961
1558.0000,49.515439
1559.0000,79.426293
1560.0000,54.624254
1561.0000,83.300546
1562.0000,84.344773
1563.0000,82.774726
1564.0000,94.709828
1565.0000,96.230674
1566.0000,85.149232
1567.0000,79.160004
1568.0000,109.905079
1569.0000,112.927906
1570.0000,133.944333
1571.0000,128.686516
1572.0000,146.462560
1573.0000,147.593592
1574.0000,147.661801
1575.0000,178.768068
1576.0000,223.887507
1577.0000,233.136686
1578.0000,260.199709
1579.0000,308.781439
1580.0000,364.391969
1581.0000,364.447168
1582.0000,427.123051
1583.0000,451.990536
1584.0000,423.000536
1585.0000,410.087310
1586.0000,391.745620
1587.0000,347.715230
1588.0000,323.317584
1589.0000,302.406275
1590.0000,291.806667
1591.0000,295.906694
1592.0000,288.608501
1593.0000,319.085223
1594.0000,355.723247
1595.0000,370.018848
1596.0000,392.287132
1597.0000,455.662949
1598.0000,504.325283
1599.0000,579.355773
1600.0000,614.762267
1601.0000,667.555142
1602.0000,711.481909
1603.0000,660.832892
1604.0000,622.739759
1605.0000,571.453225
1606.0000,497.626118
1607.0000,420.425629
1608.0000,360.589404
1609.0000,301.873128
1610.0000,284.518441
1611.0000,265.387085
1612.0000,204.102665
1613.0000,190.142318
1614.0000,196.889276
1615.0000,161.281610
1616.0000,156.661913
1617.0000,141.365520
1618.0000,122.646499
1619.0000,122.441894
1620.0000,114.268128
1621.0000,81.788359
1622.0000,108.087157
1623.0000,111.531979
1624.0000,64.918131
1625.0000,76.248448
1626.0000,95.124898
1627.0000,65.055142
1628.0000,85.370494
1629.0000,70.744751
1630.0000,85.203575
1631.0000,70.978586
1632.0000,61.716943
1633.0000,74.535089
1634.0000,93.913773
1635.0000,57.270377
1636.0000,75.549588
1637.0000,46.465283
1638.0000,55.396686
1639.0000,54.105031
1640.0000,65.896011
1641.0000,55.956779
1642.0000,69.236187
1643.0000,43.879041
1644.0000,73.896119
1645.0000,51.650275
1646.0000,59.345347
1647.0000,66.731813
1648.0000,49.622118
1649.0000,55.073586
1650.0000,89.675817
1651.0000,56.604991
1652.0000,35.561735
1653.0000,66.462911
1654.0000,49.958752
1655.0000,58.410765
1656.0000,47.036594
1657.0000,34.610120
1658.0000,34.199966
1659.0000,31.176070
1660.0000,42.850313
1661.0000,31.164493
1662.0000,35.991392
1663.0000,42.744560
1664.0000,47.321888
1665.0000,59.915198
1666.0000,35.385516
1667.0000,43.166394
1668.0000,65.821635
1669.0000,41.003049
1670.0000,68.732360
1671.0000,33.348598
1672.0000,40.723503
1673.0000,51.791294
1674.0000,37.728109
1675.0000,42.367244
1676.0000,52.131939
1677.0000,31.590858
1678.0000,20.258676
1679.0000,55.501104
1680.0000,37.804479
1681.0000,50.880533
1682.0000,44.035483
1683.0000,30.193700
1684.0000,32.098536
1685.0000,68.621528
1686.0000,57.010370
1687.0000,71.425503
1688.0000,43.300449
1689.0000,61.680710
1690.0000,31.574903
1691.0000,54.444483
1692.0000,56.996091
1693.0000,42.768401
1694.0000,42.943376
1695.0000,42.901890
1696.0000,31.865637
1697.0000,61.507625
1698.0000,48.397499
1699.0000,52.212550
1700.0000,49.001218
1701.0000,59.444586
1702.0000,45.727375
1703.0000,44.728525
1704.0000,48.827077
1705.0000,47.790678
1706.0000,47.380655
1707.0000,48.674878
1708.0000,47.031924
1709.0000,47.437315
1710.0000,49.901816
1711.0000,50.241713
1712.0000,55.487084
1713.0000,58.101111
1714.0000,40.968969
1715.0000,34.680142
1716.0000,31.030364
1717.0000,33.138172
1718.0000,30.425152
1719.0000,37.253978
1720.0000,50.614661
1721.0000,18.353910
1722.0000,29.870122
1723.0000,44.580636
1724.0000,43.406987
1725.0000,67.114455
1726.0000,48.951709
1727.0000,57.423861
1728.0000,26.131915
1729.0000,65.938127
1730.0000,36.287354
1731.0000,40.184025
1732.0000,70.141406
1733.0000,32.208826
1734.0000,48.847845
1735.0000,44.936249
1736.0000,50.350898
1737.0000,23.077382
1738.0000,38.460141
1739.0000,17.866017
1740.0000,31.930792
1741.0000,50.978339
1742.0000,47.384920
1743.0000,37.471901
1744.0000,28.335566
1745.0000,36.055372
1746.0000,46.576375
1747.0000,40.673671
1748.0000,28.588529
1749.0000,47.150851
1750.0000,28.485212
1751.0000,31.612529
1752.0000,23.012885
1753.0000,42.797374
1754.0000,62.638615
1755.0000,53.985356
1756.0000,44.693266
1757.0000,32.587257
1758.0000,37.887127
1759.0000,45.712556
1760.0000,38.896433
1761.0000,50.063279
1762.0000,38.489430
1763.0000,51.289289
1764.0000,32.739758
1765.0000,36.079822
1766.0000,55.378239
1767.0000,40.813700
1768.0000,35.150903
1769.0000,46.190970
1770.0000,43.812456
1771.0000,35.048226
1772.0000,57.321221
1773.0000,48.196782
1774.0000,56.940844
1775.0000,45.168517
1776.0000,41.114273
1777.0000,60.502230
1778.0000,53.803930
1779.0000,41.480293
1780.0000,27.985377
1781.0000,29.175148
1782.0000,55.634963
1783.0000,58.443184
1784.0000,52.434355
1785.0000,40.018208
1786.0000,49.001883
1787.0000,10.924486
1788.0000,44.148854
1789.0000,37.494892
1790.0000,34.455714
1791.0000,36.022329
1792.0000,40.923513
1793.0000,44.267439
1794.0000,21.551749
1795.0000,36.289327
1796.0000,57.436298
1797.0000,36.158915
1798.0000,54.971574
1799.0000,48.332956
1800.0000,45.576613
1801.0000,40.832294
1802.0000,46.296008
1803.0000,44.725331
1804.0000,51.816952
1805.0000,55.432736
1806.0000,33.352356
1807.0000,28.635124
1808.0000,70.764324
1809.0000,50.368535
1810.0000,41.749888
1811.0000,46.374066
1812.0000,36.449249
1813.0000,53.971977
1814.0000,35.545158
1815.0000,42.929580
1816.0000,22.426816
1817.0000,28.057081
1818.0000,39.198128
1819.0000,44.342945
1820.0000,21.990844
1821.0000,52.889486
1822.0000,43.677983
1823.0000,20.005326
1824.0000,31.072097
1825.0000,52.523587
1826.0000,35.256156
1827.0000,40.514498
1828.0000,42.868296
1829.0000,35.770553
1830.0000,42.020777
1831.0000,31.806096
1832.0000,40.374240
1833.0000,25.332620
1834.0000,23.506774
1835.0000,51.051380
1836.0000,21.996654
1837.0000,70.769725
1838.0000,58.869446
1839.0000,15.656590
1840.0000,29.575661
1841.0000,67.729149
1842.0000,52.458716
1843.0000,43.116827
1844.0000,68.642607
1845.0000,42.386927
1846.0000,-5.455215
1847.0000,36.414236
1848.0000,35.445972
1849.0000,31.662001
1850.0000,38.178409
1851.0000,31.813216
1852.0000,46.905222
1853.0000,45.365959
1854.0000,51.850541
1855.0000,46.639606
1856.0000,30.949117
1857.0000,59.584721
1858.0000,31.158862
1859.0000,41.992452
1860.0000,45.023457
1861.0000,53.369733
1862.0000,40.687181
1863.0000,39.895080
1864.0000,40.778496
1865.0000,43.358918
1866.0000,23.826836
1867.0000,11.770252
1868.0000,50.790936
1869.0000,59.505941
1870.0000,43.548761
1871.0000,64.740708
1872.0000,13.147791
1873.0000,45.650281
1874.0000,44.168264
1875.0000,61.509944
1876.0000,63.997389
1877.0000,18.803523
1878.0000,35.311059
1879.0000,51.685378
1880.0000,42.401404
1881.0000,36.549590
1882.0000,36.394397
1883.0000,37.107908
1884.0000,28.185546
1885.0000,40.655878
1886.0000,30.283054
1887.0000,52.213037
1888.0000,29.063685
1889.0000,13.230154
1890.0000,36.931347
1891.0000,40.011955
1892.0000,45.397596
1893.0000,32.440833
1894.0000,26.102256
1895.0000,48.093056
1896.0000,33.622954
1897.0000,4.169917
1898.0000,47.920008
1899.0000,43.510078
1900.0000,60.322667
1901.0000,36.950993
1902.0000,33.932103
1903.0000,36.034228
1904.0000,42.836968
1905.0000,64.205281
1906.0000,34.939288
1907.0000,45.900466
1908.0000,36.940243
1909.0000,55.418198
1910.0000,48.563575
1911.0000,55.295313
1912.0000,24.509207
1913.0000,24.154934
1914.0000,38.717679
1915.0000,31.724108
1916.0000,57.995635
1917.0000,20.025801
1918.0000,46.659715
1919.0000,51.383410
1920.0000,23.363808
1921.0000,43.391145
1922.0000,28.466677
1923.0000,26.565842
1924.0000,51.576034
1925.0000,45.715220
1926.0000,32.911628
1927.0000,41.939596
1928.0000,39.843394
1929.0000,60.248248
1930.0000,43.455718
1931.0000,48.437254
1932.0000,30.540837
1933.0000,32.999253
1934.0000,31.040960
1935.0000,24.010654
1936.0000,26.799953
1937.0000,51.017526
1938.0000,41.271233
1939.0000,52.904979
1940.0000,37.332549
1941.0000,40.435976
1942.0000,50.113591
1943.0000,37.728810
1944.0000,31.409723
1945.0000,51.304226
1946.0000,41.426682
1947.0000,13.400507
1948.0000,39.307034
1949.0000,42.741227
1950.0000,51.416871
1951.0000,20.334380
1952.0000,41.696496
1953.0000,27.303840
1954.0000,30.015144
1955.0000,39.299645
1956.0000,39.263339
1957.0000,44.192910
1958.0000,50.466444
1959.0000,40.416835
1960.0000,15.549395
1961.0000,63.689109
1962.0000,53.779331
1963.0000,26.282030
1964.0000,46.040288
1965.0000,11.256656
1966.0000,54.919975
1967.0000,41.165227
1968.0000,26.134694
1969.0000,32.360930
1970.0000,37.917754
1971.0000,25.783136
1972.0000,56.759336
1973.0000,67.745100
1974.0000,54.958108
1975.0000,46.884871
1976.0000,29.780444
1977.0000,55.401162
1978.0000,38.409480
1979.0000,35.388791
1980.0000,16.761711
1981.0000,62.660808
1982.0000,26.633368
1983.0000,29.840710
1984.0000,36.827369
1985.0000,30.899791
1986.0000,50.802464
1987.0000,40.455878
1988.0000,45.691890
1989.0000,43.146583
1990.0000,40.477482
1991.0000,32.109799
1992.0000,37.659682
1993.0000,49.107929
1994.0000,35.078333
1995.0000,57.969909
1996.0000,36.336599
1997.0000,52.898062
1998.0000,17.339368
1999.0000,25.185296
2000.0000,36.716766
