raman_shift_cm-1,intensity
200.0000,52.428280
201.0000,44.457889
202.0000,37.751838
203.0000,32.346171
204.0000,49.737450
205.0000,32.780869
206.0000,38.304898
207.0000,44.852669
208.0000,52.584373
209.0000,42.791789
210.0000,36.302831
211.0000,43.807308
212.0000,44.716400
213.0000,43.376262
214.0000,44.446704
215.0000,35.541847
216.0000,36.491824
217.0000,40.734644
218.0000,40.334025
219.0000,35.414443
220.0000,47.809028
221.0000,45.366200
222.0000,44.045379
223.0000,32.070137
224.0000,45.890164
225.0000,43.702197
226.0000,41.506035
227.0000,40.580235
228.0000,54.240791
229.0000,23.565123
230.0000,49.006919
231.0000,49.996452
232.0000,45.998047
233.0000,21.004905
234.0000,50.125969
235.0000,35.373922
236.0000,47.653820
237.0000,51.686041
238.0000,43.919649
239.0000,46.341119
240.0000,41.297147
241.0000,35.216425
242.0000,36.794256
243.0000,54.964904
244.0000,40.562232
245.0000,39.029796
246.0000,53.651259
247.0000,30.906822
248.0000,27.635946
249.0000,43.045537
250.0000,35.607375
251.0000,32.355897
252.0000,34.143076
253.0000,49.032213
254.0000,46.900025
255.0000,29.874826
256.0000,36.533979
257.0000,23.389032
258.0000,30.216630
259.0000,28.106904
260.0000,45.883759
261.0000,53.129420
262.0000,49.130456
263.0000,26.912297
264.0000,34.811212
265.0000,45.352534
266.0000,48.288885
267.0000,45.590398
268.0000,29.989413
269.0000,45.622702
270.0000,35.648753
271.0000,41.939424
272.0000,41.034088
273.0000,46.778345
274.0000,34.436203
275.0000,38.399378
276.0000,33.869694
277.0000,43.728481
278.0000,56.558160
279.0000,41.372943
280.0000,39.803986
281.0000,27.510814
282.0000,39.039767
283.0000,42.295598
284.0000,44.650984
285.0000,45.014221
286.0000,36.471108
287.0000,42.338779
288.0000,52.962376
289.0000,45.613837
290.0000,39.182680
291.0000,30.314228
292.0000,44.552726
293.0000,35.129545
294.0000,39.557495
295.0000,40.061997
296.0000,51.925736
297.0000,22.080612
298.0000,42.075225
299.0000,19.924596
300.0000,41.618380
301.0000,36.715011
302.0000,34.053842
303.0000,35.786020
304.0000,49.997273
305.0000,29.670607
306.0000,39.062338
307.0000,47.155087
308.0000,32.490529
309.0000,31.648838
310.0000,37.964612
311.0000,45.675372
312.0000,46.542317
313.0000,56.448703
314.0000,41.987316
315.0000,39.511079
316.0000,55.605709
317.0000,33.511802
318.0000,42.168964
319.0000,41.279321
320.0000,36.705529
321.0000,35.434128
322.0000,27.398662
323.0000,42.192567
324.0000,39.095371
325.0000,43.369733
326.0000,50.986679
327.0000,53.883536
328.0000,34.874485
329.0000,47.775345
330.0000,38.984502
331.0000,26.913051
332.0000,44.436079
333.0000,39.277260
334.0000,41.876918
335.0000,29.550235
336.0000,38.306655
337.0000,40.588780
338.0000,38.192352
339.0000,34.260681
340.0000,27.186640
341.0000,39.422471
342.0000,38.978921
343.0000,36.310636
344.0000,35.453452
345.0000,35.336524
346.0000,42.222439
347.0000,41.031145
348.0000,49.947487
349.0000,43.882133
350.0000,45.988588
351.0000,37.834272
352.0000,43.743134
353.0000,52.595022
354.0000,39.918607
355.0000,47.458123
356.0000,36.372377
357.0000,54.087186
358.0000,42.494275
359.0000,36.748357
360.0000,30.393763
361.0000,39.906439
362.0000,26.730545
363.0000,48.287473
364.0000,48.783862
365.0000,38.048088
366.0000,32.022574
367.0000,45.335691
368.0000,44.147827
369.0000,38.328612
370.0000,43.599515
371.0000,37.253479
372.0000,47.232009
373.0000,33.955021
374.0000,46.054689
375.0000,38.884871
376.0000,34.150430
377.0000,23.682351
378.0000,37.455382
379.0000,42.236899
380.0000,60.948078
381.0000,47.675304
382.0000,41.892968
383.0000,41.594638
384.0000,33.526982
385.0000,39.346021
386.0000,40.653961
387.0000,20.093327
388.0000,42.525075
389.0000,44.649354
390.0000,31.304911
391.0000,45.896273
392.0000,35.476091
393.0000,34.113082
394.0000,42.761869
395.0000,35.836425
396.0000,49.311526
397.0000,49.143990
398.0000,59.289920
399.0000,31.033809
400.0000,35.080362
401.0000,49.768413
402.0000,41.721904
403.0000,27.878419
404.0000,39.641737
405.0000,41.860804
406.0000,44.415498
407.0000,33.967269
408.0000,38.414335
409.0000,43.711982
410.0000,49.949595
411.0000,40.895442
412.0000,28.205582
413.0000,34.087316
414.0000,34.962108
415.0000,36.706347
416.0000,39.937966
417.0000,41.628229
418.0000,39.550091
419.0000,35.247119
420.0000,44.059282
421.0000,35.789758
422.0000,44.562537
423.0000,45.009717
424.0000,38.838634
425.0000,42.055265
426.0000,46.097525
427.0000,38.461869
428.0000,41.171784
429.0000,49.754603
430.0000,38.596351
431.0000,32.214025
432.0000,38.183105
433.0000,32.948348
434.0000,31.545985
435.0000,42.620065
436.0000,41.435610
437.0000,46.772497
438.0000,27.936343
439.0000,48.949799
440.0000,55.856276
441.0000,48.014560
442.0000,43.503055
443.0000,47.173953
444.0000,47.910783
445.0000,41.672244
446.0000,49.391243
447.0000,46.828584
448.0000,39.599380
449.0000,27.240430
450.0000,45.287277
451.0000,52.620202
452.0000,42.826636
453.0000,40.226627
454.0000,38.980588
455.0000,20.794738
456.0000,44.712476
457.0000,47.285156
458.0000,31.421737
459.0000,28.711481
460.0000,50.456227
461.0000,42.233137
462.0000,58.494108
463.0000,41.390845
464.0000,64.686162
465.0000,53.815005
466.0000,35.872223
467.0000,42.836561
468.0000,38.448672
469.0000,48.536835
470.0000,38.001610
471.0000,35.796895
472.0000,45.738517
473.0000,44.956525
474.0000,47.911427
475.0000,36.020532
476.0000,32.562684
477.0000,42.558472
478.0000,55.582988
479.0000,47.266776
480.0000,47.420528
481.0000,34.888245
482.0000,35.502548
483.0000,29.846901
484.0000,46.397242
485.0000,46.403815
486.0000,44.980457
487.0000,49.118203
488.0000,35.144881
489.0000,52.537199
490.0000,50.057888
491.0000,31.166602
492.0000,38.872544
493.0000,53.430109
494.0000,39.524130
495.0000,51.542776
496.0000,43.625865
497.0000,43.933748
498.0000,32.909484
499.0000,42.037684
500.0000,36.145577
501.0000,37.949181
502.0000,39.152148
503.0000,54.549526
504.0000,35.392666
505.0000,45.589405
506.0000,42.294497
507.0000,47.154227
508.0000,24.914261
509.0000,37.436594
510.0000,30.487129
511.0000,47.837783
512.0000,40.101416
513.0000,40.537921
514.0000,33.849647
515.0000,50.177834
516.0000,48.446468
517.0000,43.981693
518.0000,28.481011
519.0000,37.950808
520.0000,18.980515
521.0000,54.116125
522.0000,30.799711
523.0000,36.468078
524.0000,31.805538
525.0000,36.253285
526.0000,35.191781
527.0000,33.029103
528.0000,46.087753
529.0000,48.216510
530.0000,48.370889
531.0000,49.114486
532.0000,37.483431
533.0000,40.789252
534.0000,28.850269
535.0000,28.559830
536.0000,30.563249
537.0000,44.295490
538.0000,57.225121
539.0000,40.650634
540.0000,42.107365
541.0000,35.193249
542.0000,45.445965
543.0000,43.816814
544.0000,38.734453
545.0000,41.344671
546.0000,37.095703
547.0000,29.344751
548.0000,43.198887
549.0000,33.775411
550.0000,30.376157
551.0000,36.676377
552.0000,33.587820
553.0000,44.368715
554.0000,57.011030
555.0000,41.303078
556.0000,40.735259
557.0000,25.078054
558.0000,43.562954
559.0000,35.283726
560.0000,41.602854
561.0000,37.552319
562.0000,53.880167
563.0000,48.912802
564.0000,34.494792
565.0000,40.897332
566.0000,50.942580
567.0000,44.405567
568.0000,46.549691
569.0000,54.833172
570.0000,41.682919
571.0000,41.845855
572.0000,30.146146
573.0000,37.609023
574.0000,36.031141
575.0000,29.301083
576.0000,53.323872
577.0000,29.350638
578.0000,34.391438
579.0000,42.390384
580.0000,57.315953
581.0000,41.120775
582.0000,34.584290
583.0000,48.310189
584.0000,55.527231
585.0000,55.720946
586.0000,45.485237
587.0000,38.368761
588.0000,54.064676
589.0000,51.945538
590.0000,39.784070
591.0000,53.481645
592.0000,56.638515
593.0000,52.777027
594.0000,42.366948
595.0000,33.637188
596.0000,46.479733
597.0000,62.345140
598.0000,51.184171
599.0000,50.118432
600.0000,52.678138
601.0000,46.394457
602.0000,59.853318
603.0000,53.822015
604.0000,52.339541
605.0000,50.038661
606.0000,48.707411
607.0000,54.973743
608.0000,56.947540
609.0000,68.674106
610.0000,69.889839
611.0000,67.380058
612.0000,46.861470
613.0000,56.079775
614.0000,64.427519
615.0000,68.790087
616.0000,94.092326
617.0000,92.127190
618.0000,91.382471
619.0000,93.923925
620.0000,95.076119
621.0000,115.254314
622.0000,118.480361
623.0000,138.159853
624.0000,150.343077
625.0000,163.887294
626.0000,198.899538
627.0000,217.874473
628.0000,254.249351
629.0000,279.067132
630.0000,306.373549
631.0000,345.887977
632.0000,332.088567
633.0000,316.235134
634.0000,307.944211
635.0000,276.816071
636.0000,241.201058
637.0000,216.442799
638.0000,193.575289
639.0000,169.096906
640.0000,145.444997
641.0000,132.220548
642.0000,110.760602
643.0000,90.712513
644.0000,118.404315
645.0000,84.440987
646.0000,89.281903
647.0000,84.122261
648.0000,76.617585
649.0000,81.050376
650.0000,75.071357
651.0000,70.855917
652.0000,68.374640
653.0000,65.777945
654.0000,67.167191
655.0000,50.709111
656.0000,59.115941
657.0000,59.734423
658.0000,57.607783
659.0000,60.329969
660.0000,62.370325
661.0000,52.487692
662.0000,57.258573
663.0000,57.560881
664.0000,42.258023
665.0000,52.371986
666.0000,53.602003
667.0000,43.970865
668.0000,44.481697
669.0000,33.899565
670.0000,44.765065
671.0000,51.634367
672.0000,36.207205
673.0000,58.583039
674.0000,51.707496
675.0000,37.480906
676.0000,58.582010
677.0000,46.498670
678.0000,44.895006
679.0000,42.572776
680.0000,43.567706
681.0000,46.927645
682.0000,37.804068
683.0000,42.512754
684.0000,49.478655
685.0000,46.065470
686.0000,45.559387
687.0000,41.144817
688.0000,37.169282
689.0000,49.252750
690.0000,54.211819
691.0000,39.484832
692.0000,49.901132
693.0000,46.496694
694.0000,41.384527
695.0000,34.054799
696.0000,34.244695
697.0000,39.677314
698.0000,39.141854
699.0000,48.989739
700.0000,42.960803
701.0000,35.699019
702.0000,42.876017
703.0000,34.750978
704.0000,41.067829
705.0000,43.484163
706.0000,46.897311
707.0000,39.770314
708.0000,49.958552
709.0000,54.218808
710.0000,24.058395
711.0000,42.201863
712.0000,42.031212
713.0000,40.989362
714.0000,36.492734
715.0000,50.543316
716.0000,42.822270
717.0000,34.564432
718.0000,41.565122
719.0000,51.982305
720.0000,48.010767
721.0000,40.334316
722.0000,57.266359
723.0000,44.745142
724.0000,49.835187
725.0000,34.627868
726.0000,44.426035
727.0000,44.953202
728.0000,33.248980
729.0000,43.329960
730.0000,42.590387
731.0000,36.568599
732.0000,44.492081
733.0000,43.555620
734.0000,43.214486
735.0000,52.150679
736.0000,46.452373
737.0000,53.633327
738.0000,53.107538
739.0000,42.369984
740.0000,57.774932
741.0000,49.756965
742.0000,29.572802
743.0000,43.096567
744.0000,41.790813
745.0000,48.051376
746.0000,42.904218
747.0000,36.620353
748.0000,44.315819
749.0000,37.782155
750.0000,37.981920
751.0000,48.169639
752.0000,47.813802
753.0000,35.698445
754.0000,43.531290
755.0000,57.688546
756.0000,41.117680
757.0000,41.572969
758.0000,60.541927
759.0000,42.144732
760.0000,42.566566
761.0000,49.235368
762.0000,40.185183
763.0000,35.426155
764.0000,37.620222
765.0000,49.895436
766.0000,26.940763
767.0000,44.277610
768.0000,46.160885
769.0000,41.559089
770.0000,50.375122
771.0000,31.788637
772.0000,26.471621
773.0000,56.057939
774.0000,36.431766
775.0000,48.653320
776.0000,54.515104
777.0000,41.077134
778.0000,52.481959
779.0000,41.618215
780.0000,37.120942
781.0000,46.757431
782.0000,35.399471
783.0000,56.147229
784.0000,50.545438
785.0000,43.749703
786.0000,35.176321
787.0000,33.782678
788.0000,30.920205
789.0000,57.596578
790.0000,47.074480
791.0000,54.839428
792.0000,29.980425
793.0000,54.988258
794.0000,53.872839
795.0000,32.351945
796.0000,35.600127
797.0000,45.044939
798.0000,29.919967
799.0000,48.051734
800.0000,52.445624
801.0000,59.323788
802.0000,55.598092
803.0000,39.357702
804.0000,36.553627
805.0000,50.543526
806.0000,42.304925
807.0000,55.638707
808.0000,27.777021
809.0000,40.499718
810.0000,44.166841
811.0000,39.495787
812.0000,46.205142
813.0000,58.153175
814.0000,51.558986
815.0000,65.756831
816.0000,43.971870
817.0000,50.263430
818.0000,59.456010
819.0000,44.183645
820.0000,57.648874
821.0000,47.175396
822.0000,64.453044
823.0000,62.833597
824.0000,52.023899
825.0000,52.684178
826.0000,66.213604
827.0000,64.315426
828.0000,56.440822
829.0000,54.381466
830.0000,60.722962
831.0000,49.613317
832.0000,66.406294
833.0000,58.367795
834.0000,60.756209
835.0000,58.165690
836.0000,69.547332
837.0000,75.291266
838.0000,72.139954
839.0000,77.647861
840.0000,75.933298
841.0000,80.607814
842.0000,78.982006
843.0000,95.555012
844.0000,94.732360
845.0000,102.217906
846.0000,109.877912
847.0000,115.202854
848.0000,132.378462
849.0000,145.490771
850.0000,171.655722
851.0000,196.812904
852.0000,220.196023
853.0000,237.439000
854.0000,275.400403
855.0000,317.581208
856.0000,361.818420
857.0000,384.149963
858.0000,383.070606
859.0000,375.143645
860.0000,347.398245
861.0000,321.036595
862.0000,280.650198
863.0000,249.833287
864.0000,206.614992
865.0000,184.347951
866.0000,182.027699
867.0000,138.263290
868.0000,117.794982
869.0000,112.882276
870.0000,110.065443
871.0000,109.412835
872.0000,106.742155
873.0000,85.577139
874.0000,88.895627
875.0000,88.888749
876.0000,78.770371
877.0000,87.004235
878.0000,73.630772
879.0000,70.695236
880.0000,73.320791
881.0000,49.078811
882.0000,65.731132
883.0000,53.665225
884.0000,60.804504
885.0000,76.717220
886.0000,61.843754
887.0000,42.840955
888.0000,53.411649
889.0000,48.062157
890.0000,60.715008
891.0000,55.009180
892.0000,51.548907
893.0000,48.542728
894.0000,59.638784
895.0000,52.376542
896.0000,38.359975
897.0000,62.229268
898.0000,59.132715
899.0000,55.593435
900.0000,32.799134
901.0000,58.902148
902.0000,61.547248
903.0000,36.251897
904.0000,27.489103
905.0000,44.832490
906.0000,49.968763
907.0000,50.574981
908.0000,53.606820
909.0000,47.179852
910.0000,49.830153
911.0000,56.992731
912.0000,30.230021
913.0000,43.850919
914.0000,42.923186
915.0000,43.365167
916.0000,39.736408
917.0000,51.788441
918.0000,60.518524
919.0000,40.862760
920.0000,56.668135
921.0000,26.517397
922.0000,39.908621
923.0000,38.075185
924.0000,35.270626
925.0000,65.759229
926.0000,42.819373
927.0000,39.668269
928.0000,54.053106
929.0000,36.990376
930.0000,45.045470
931.0000,36.390448
932.0000,29.671438
933.0000,43.086480
934.0000,55.768958
935.0000,38.596144
936.0000,48.516121
937.0000,36.318682
938.0000,44.299651
939.0000,41.598172
940.0000,45.911856
941.0000,34.048514
942.0000,27.889000
943.0000,40.913313
944.0000,48.741814
945.0000,40.174784
946.0000,61.214937
947.0000,47.179869
948.0000,60.168822
949.0000,33.121659
950.0000,40.252995
951.0000,52.727324
952.0000,40.070551
953.0000,24.333064
954.0000,38.581494
955.0000,50.509061
956.0000,59.528069
957.0000,38.663068
958.0000,43.047510
959.0000,45.677419
960.0000,34.698621
961.0000,48.683446
962.0000,42.339566
963.0000,61.568107
964.0000,42.859559
965.0000,37.696268
966.0000,47.783766
967.0000,59.181982
968.0000,47.191796
969.0000,43.196371
970.0000,41.948709
971.0000,54.681939
972.0000,50.665657
973.0000,41.668460
974.0000,41.290000
975.0000,33.787832
976.0000,44.857888
977.0000,46.608438
978.0000,34.778019
979.0000,34.833903
980.0000,46.318098
981.0000,57.897509
982.0000,49.879814
983.0000,42.413483
984.0000,27.192269
985.0000,43.645680
986.0000,42.429260
987.0000,26.381859
988.0000,41.758044
989.0000,47.283004
990.0000,47.659505
991.0000,58.849176
992.0000,28.345135
993.0000,43.269580
994.0000,51.235101
995.0000,36.016988
996.0000,34.327621
997.0000,43.306244
998.0000,25.340346
999.0000,28.232833
1000.0000,48.430404
1001.0000,55.264368
1002.0000,43.013643
1003.0000,41.302354
1004.0000,56.993772
1005.0000,43.161106
1006.0000,48.944199
1007.0000,40.722027
1008.0000,36.815653
1009.0000,47.065564
1010.0000,49.234623
1011.0000,40.208206
1012.0000,58.262934
1013.0000,50.416850
1014.0000,42.967838
1015.0000,44.354444
1016.0000,48.482832
1017.0000,39.584478
1018.0000,33.805075
1019.0000,37.037372
1020.0000,46.268820
1021.0000,46.664950
1022.0000,38.809344
1023.0000,39.946346
1024.0000,32.283734
1025.0000,42.688676
1026.0000,37.714505
1027.0000,34.937922
1028.0000,52.842592
1029.0000,50.526888
1030.0000,50.859317
1031.0000,45.331339
1032.0000,48.073402
1033.0000,47.517800
1034.0000,48.354891
1035.0000,54.021410
1036.0000,39.688083
1037.0000,37.808199
1038.0000,39.674884
1039.0000,46.710619
1040.0000,48.251460
1041.0000,52.679144
1042.0000,47.552449
1043.0000,55.600777
1044.0000,53.815261
1045.0000,28.565509
1046.0000,48.531081
1047.0000,47.732511
1048.0000,39.544602
1049.0000,39.172190
1050.0000,48.686399
1051.0000,41.966634
1052.0000,54.967082
1053.0000,48.950351
1054.0000,45.473279
1055.0000,53.222675
1056.0000,54.098937
1057.0000,55.556556
1058.0000,48.612787
1059.0000,58.659208
1060.0000,64.013670
1061.0000,56.055756
1062.0000,50.012278
1063.0000,54.970223
1064.0000,53.628250
1065.0000,59.861486
1066.0000,55.593085
1067.0000,31.906906
1068.0000,71.822414
1069.0000,67.583961
1070.0000,63.218457
1071.0000,60.293474
1072.0000,56.804536
1073.0000,75.233883
1074.0000,85.526427
1075.0000,81.516169
1076.0000,96.832286
1077.0000,85.968659
1078.0000,96.022850
1079.0000,101.068480
1080.0000,90.170693
1081.0000,119.166449
1082.0000,128.783849
1083.0000,117.444820
1084.0000,124.897740
1085.0000,146.895075
1086.0000,144.051275
1087.0000,176.753443
1088.0000,197.342902
1089.0000,230.910158
1090.0000,267.117050
1091.0000,312.485938
1092.0000,335.372007
1093.0000,376.269020
1094.0000,428.093386
1095.0000,461.700178
1096.0000,482.021982
1097.0000,476.153348
1098.0000,438.925829
1099.0000,400.414689
1100.0000,370.366848
1101.0000,320.573459
1102.0000,299.300661
1103.0000,264.391785
1104.0000,236.776526
1105.0000,222.845992
1106.0000,200.604393
1107.0000,194.582662
1108.0000,189.522212
1109.0000,194.961151
1110.0000,215.439957
1111.0000,212.898023
1112.0000,213.283055
1113.0000,237.657069
1114.0000,272.231038
1115.0000,285.381566
1116.0000,312.255088
1117.0000,354.862458
1118.0000,361.024267
1119.0000,367.255611
1120.0000,353.730017
1121.0000,337.478295
1122.0000,309.742405
1123.0000,265.610837
1124.0000,239.298554
1125.0000,210.654921
1126.0000,192.416911
1127.0000,181.393707
1128.0000,146.973100
1129.0000,129.615530
1130.0000,127.252763
1131.0000,107.352546
1132.0000,109.440547
1133.0000,103.626773
1134.0000,95.581747
1135.0000,85.710667
1136.0000,72.705489
1137.0000,90.701307
1138.0000,81.554573
1139.0000,86.216542
1140.0000,62.757621
1141.0000,72.320612
1142.0000,68.598570
1143.0000,72.443670
1144.0000,62.061127
1145.0000,53.375478
1146.0000,71.233736
1147.0000,68.314765
1148.0000,65.855364
1149.0000,48.742706
1150.0000,64.979462
1151.0000,43.569198
1152.0000,48.812276
1153.0000,48.873706
1154.0000,40.935633
1155.0000,52.007015
1156.0000,57.294794
1157.0000,57.856782
1158.0000,65.189609
1159.0000,46.927631
1160.0000,49.259840
1161.0000,35.351885
1162.0000,56.341905
1163.0000,44.510283
1164.0000,35.593513
1165.0000,57.275097
1166.0000,46.064602
1167.0000,51.312923
1168.0000,36.223395
1169.0000,50.926572
1170.0000,54.913946
1171.0000,47.637783
1172.0000,51.933139
1173.0000,56.633341
1174.0000,48.419004
1175.0000,47.720724
1176.0000,54.908451
1177.0000,51.047151
1178.0000,55.407234
1179.0000,50.067207
1180.0000,50.584826
1181.0000,39.997029
1182.0000,33.044234
1183.0000,34.511177
1184.0000,54.324970
1185.0000,45.439307
1186.0000,46.236268
1187.0000,36.325857
1188.0000,47.846272
1189.0000,51.837152
1190.0000,37.678461
1191.0000,61.668766
1192.0000,43.225793
1193.0000,46.226045
1194.0000,55.972904
1195.0000,50.757966
1196.0000,54.737671
1197.0000,45.103569
1198.0000,26.316179
1199.0000,56.682705
1200.0000,50.890698
1201.0000,46.005719
1202.0000,50.297355
1203.0000,53.851062
1204.0000,46.059578
1205.0000,51.880107
1206.0000,44.511836
1207.0000,33.878278
1208.0000,52.888305
1209.0000,46.595558
1210.0000,46.311950
1211.0000,56.587806
1212.0000,35.012923
1213.0000,46.556074
1214.0000,41.541780
1215.0000,39.512244
1216.0000,46.564605
1217.0000,39.121102
1218.0000,48.072551
1219.0000,38.055349
1220.0000,60.486106
1221.0000,46.662335
1222.0000,41.735907
1223.0000,36.456760
1224.0000,45.812012
1225.0000,33.047093
1226.0000,52.982688
1227.0000,50.547939
1228.0000,55.427895
1229.0000,46.933162
1230.0000,62.368782
1231.0000,47.337493
1232.0000,39.704410
1233.0000,51.209428
1234.0000,45.080367
1235.0000,51.340708
1236.0000,49.799153
1237.0000,49.686633
1238.0000,55.057540
1239.0000,35.815846
1240.0000,59.268966
1241.0000,59.275965
1242.0000,56.323897
1243.0000,43.380201
1244.0000,35.179228
1245.0000,44.871875
1246.0000,59.438661
1247.0000,53.501701
1248.0000,53.832607
1249.0000,43.695414
1250.0000,52.126123
1251.0000,49.021234
1252.0000,50.823311
1253.0000,62.916404
1254.0000,64.865797
1255.0000,43.667146
1256.0000,69.089211
1257.0000,59.028116
1258.0000,64.268008
1259.0000,68.653099
1260.0000,71.497150
1261.0000,58.808035
1262.0000,65.940971
1263.0000,63.315535
1264.0000,73.129010
1265.0000,66.970623
1266.0000,68.546840
1267.0000,76.046543
1268.0000,75.984479
1269.0000,77.556565
1270.0000,79.460522
1271.0000,82.824039
1272.0000,103.032234
1273.0000,99.540280
1274.0000,92.602877
1275.0000,106.324036
1276.0000,119.273007
1277.0000,131.249181
1278.0000,120.956309
1279.0000,165.423408
1280.0000,172.681865
1281.0000,195.598186
1282.0000,228.609179
1283.0000,255.760514
1284.0000,296.548452
1285.0000,336.594938
1286.0000,397.222502
1287.0000,458.720978
1288.0000,501.594609
1289.0000,532.569817
1290.0000,545.535254
1291.0000,531.837674
1292.0000,488.721746
1293.0000,435.305054
1294.0000,387.116854
1295.0000,333.205262
1296.0000,284.570963
1297.0000,255.875633
1298.0000,217.384069
1299.0000,199.524416
1300.0000,171.015193
1301.0000,149.588227
1302.0000,143.902653
1303.0000,137.749296
1304.0000,123.004671
1305.0000,107.979525
1306.0000,104.452237
1307.0000,97.924259
1308.0000,91.999098
1309.0000,94.035696
1310.0000,82.029997
1311.0000,77.644545
1312.0000,89.912657
1313.0000,79.232779
1314.0000,79.005156
1315.0000,74.685791
1316.0000,66.700551
1317.0000,65.579364
1318.0000,69.206674
1319.0000,65.241441
1320.0000,60.731856
1321.0000,63.045773
1322.0000,77.678197
1323.0000,59.737167
1324.0000,55.738293
1325.0000,48.525740
1326.0000,50.888887
1327.0000,35.998075
1328.0000,51.431316
1329.0000,56.139685
1330.0000,63.518960
1331.0000,57.203626
1332.0000,51.696045
1333.0000,64.769226
1334.0000,45.372871
1335.0000,63.410036
1336.0000,50.141571
1337.0000,50.425807
1338.0000,45.121746
1339.0000,58.889230
1340.0000,49.960609
1341.0000,45.073797
1342.0000,50.920594
1343.0000,55.793179
1344.0000,45.930154
1345.0000,41.917090
1346.0000,47.528121
1347.0000,57.453436
1348.0000,35.406729
1349.0000,65.347502
1350.0000,51.520797
1351.0000,35.050235
1352.0000,43.618616
1353.0000,51.513894
1354.0000,44.104678
1355.0000,54.206166
1356.0000,52.114665
1357.0000,50.399500
1358.0000,39.573419
1359.0000,58.752925
1360.0000,48.831105
1361.0000,53.147435
1362.0000,46.231392
1363.0000,64.272125
1364.0000,47.181862
1365.0000,42.074548
1366.0000,27.630279
1367.0000,38.661825
1368.0000,69.612373
1369.0000,48.391173
1370.0000,58.713802
1371.0000,48.007680
1372.0000,39.475553
1373.0000,50.960087
1374.0000,47.985265
1375.0000,57.170312
1376.0000,40.305083
1377.0000,49.986812
1378.0000,70.940325
1379.0000,54.867362
1380.0000,64.005836
1381.0000,64.965517
1382.0000,39.420180
1383.0000,57.203848
1384.0000,58.063432
1385.0000,68.555228
1386.0000,52.061114
1387.0000,56.317014
1388.0000,60.252211
1389.0000,59.083620
1390.0000,55.381741
1391.0000,40.187461
1392.0000,65.351106
1393.0000,46.801781
1394.0000,58.898519
1395.0000,70.281280
1396.0000,65.711757
1397.0000,69.059539
1398.0000,66.511088
1399.0000,83.571290
1400.0000,83.368258
1401.0000,84.893512
1402.0000,98.024660
1403.0000,92.945005
1404.0000,117.622663
1405.0000,136.978990
1406.0000,146.771140
1407.0000,164.230592
1408.0000,181.212114
1409.0000,218.022083
1410.0000,243.437290
1411.0000,253.402864
1412.0000,294.969415
1413.0000,315.658656
1414.0000,319.107337
1415.0000,309.048126
1416.0000,286.945983
1417.0000,269.139583
1418.0000,249.863249
1419.0000,207.031917
1420.0000,190.094328
1421.0000,155.783509
1422.0000,145.547881
1423.0000,141.969646
1424.0000,124.590753
1425.0000,87.105125
1426.0000,106.822980
1427.0000,94.634473
1428.0000,76.540543
1429.0000,85.879249
1430.0000,81.446781
1431.0000,69.389531
1432.0000,82.898920
1433.0000,63.131457
1434.0000,70.371386
1435.0000,52.225739
1436.0000,68.862984
1437.0000,47.940748
1438.0000,59.330100
1439.0000,52.132703
1440.0000,58.024364
1441.0000,41.967503
1442.0000,55.519951
1443.0000,65.347643
1444.0000,48.812137
1445.0000,60.843330
1446.0000,48.192160
1447.0000,52.776400
1448.0000,62.505707
1449.0000,45.179846
1450.0000,55.489460
1451.0000,40.704338
1452.0000,36.254340
1453.0000,44.160875
1454.0000,50.082234
1455.0000,62.980060
1456.0000,37.740231
1457.0000,40.680988
1458.0000,57.526171
1459.0000,45.850074
1460.0000,52.996938
1461.0000,40.671545
1462.0000,58.315124
1463.0000,46.237609
1464.0000,38.944088
1465.0000,32.229586
1466.0000,54.026021
1467.0000,33.697046
1468.0000,49.111081
1469.0000,60.866871
1470.0000,48.159454
1471.0000,46.167967
1472.0000,55.053114
1473.0000,47.217288
1474.0000,27.904560
1475.0000,43.270299
1476.0000,51.164157
1477.0000,42.227080
1478.0000,42.308556
1479.0000,44.860740
1480.0000,57.537296
1481.0000,31.474525
1482.0000,44.309331
1483.0000,39.676333
1484.0000,38.237419
1485.0000,34.341511
1486.0000,58.064444
1487.0000,42.805652
1488.0000,47.452206
1489.0000,46.444294
1490.0000,44.098643
1491.0000,34.457054
1492.0000,65.594744
1493.0000,44.766306
1494.0000,40.596453
1495.0000,50.920596
1496.0000,50.781755
1497.0000,42.205353
1498.0000,45.229489
1499.0000,47.362945
1500.0000,40.724100
1501.0000,47.685257
1502.0000,49.485847
1503.0000,34.590643
1504.0000,49.129692
1505.0000,39.794891
1506.0000,37.693072
1507.0000,35.223430
1508.0000,39.920886
1509.0000,42.803979
1510.0000,46.047782
1511.0000,42.206710
1512.0000,49.709519
1513.0000,53.433760
1514.0000,45.095219
1515.0000,40.493883
1516.0000,37.358162
1517.0000,48.722785
1518.0000,47.275088
1519.0000,47.646657
1520.0000,58.655632
1521.0000,34.515655
1522.0000,40.372627
1523.0000,46.455466
1524.0000,41.389966
1525.0000,55.524232
1526.0000,34.585338
1527.0000,33.826533
1528.0000,32.336819
1529.0000,44.657486
1530.0000,47.211200
1531.0000,47.264271
1532.0000,39.138230
1533.0000,31.525145
1534.0000,56.768944
1535.0000,52.420566
1536.0000,53.185830
1537.0000,55.278447
1538.0000,49.125073
1539.0000,50.780458
1540.0000,51.576962
1541.0000,47.843934
1542.0000,44.107069
1543.0000,37.025642
1544.0000,40.912334
1545.0000,35.422459
1546.0000,29.229163
1547.0000,52.995611
1548.0000,44.989298
1549.0000,40.903074
1550.0000,46.597663
1551.0000,48.840858
1552.0000,41.207547
1553.0000,56.164700
1554.0000,54.489061
1555.0000,49.088841
1556.0000,38.627821
1557.0000,52.639215
1558.0000,52.157608
1559.0000,45.757269
1560.0000,35.887449
1561.0000,47.519177
1562.0000,41.659629
1563.0000,46.100512
1564.0000,39.124414
1565.0000,57.046207
1566.0000,48.124444
1567.0000,55.728184
1568.0000,34.105565
1569.0000,53.817801
1570.0000,59.288850
1571.0000,54.455720
1572.0000,50.999947
1573.0000,59.836500
1574.0000,43.030750
1575.0000,57.242022
1576.0000,53.584522
1577.0000,52.860934
1578.0000,63.060358
1579.0000,55.060765
1580.0000,58.302821
1581.0000,52.758528
1582.0000,53.970319
1583.0000,54.192171
1584.0000,55.801818
1585.0000,77.678768
1586.0000,55.478417
1587.0000,47.705101
1588.0000,62.979246
1589.0000,69.208794
1590.0000,65.266239
1591.0000,74.838390
1592.0000,80.260057
1593.0000,76.743139
1594.0000,68.187817
1595.0000,82.173135
1596.0000,79.695279
1597.0000,87.153245
1598.0000,100.359400
1599.0000,110.162656
1600.0000,105.599248
1601.0000,112.743168
1602.0000,140.431935
1603.0000,145.064551
1604.0000,153.525105
1605.0000,178.776553
1606.0000,201.623065
1607.0000,224.833458
1608.0000,241.097233
1609.0000,296.934615
1610.0000,316.776716
1611.0000,370.995909
1612.0000,404.890050
1613.0000,475.366163
1614.0000,507.794570
1615.0000,526.872804
1616.0000,514.614045
1617.0000,474.288620
1618.0000,421.423582
1619.0000,375.355230
1620.0000,324.446529
1621.0000,284.204954
1622.0000,260.287462
1623.0000,210.406332
1624.0000,183.490081
1625.0000,158.506448
1626.0000,156.556475
1627.0000,135.833528
1628.0000,126.213451
1629.0000,114.374611
1630.0000,94.160089
1631.0000,103.522553
1632.0000,95.657079
1633.0000,94.262372
1634.0000,89.053339
1635.0000,82.871335
1636.0000,65.985998
1637.0000,77.068449
1638.0000,78.774002
1639.0000,64.936904
1640.0000,77.873279
1641.0000,64.295615
1642.0000,67.998966
1643.0000,58.414933
1644.0000,58.523371
1645.0000,72.482121
1646.0000,56.498357
1647.0000,66.227248
1648.0000,54.508377
1649.0000,52.671957
1650.0000,76.989623
1651.0000,47.071426
1652.0000,43.137519
1653.0000,66.412648
1654.0000,68.832091
1655.0000,81.317625
1656.0000,46.142656
1657.0000,52.893524
1658.0000,64.806354
1659.0000,43.932894
1660.0000,52.029416
1661.0000,55.656969
1662.0000,41.744245
1663.0000,56.919193
1664.0000,62.858627
1665.0000,51.445588
1666.0000,67.575891
1667.0000,42.870356
1668.0000,56.987509
1669.0000,63.182649
1670.0000,48.987543
1671.0000,57.106224
1672.0000,56.060246
1673.0000,48.409041
1674.0000,47.536053
1675.0000,53.399456
1676.0000,51.982905
1677.0000,57.463660
1678.0000,64.156839
1679.0000,70.239823
1680.0000,63.721745
1681.0000,55.822126
1682.0000,74.008754
1683.0000,40.181756
1684.0000,47.067031
1685.0000,53.426067
1686.0000,61.897366
1687.0000,59.176707
1688.0000,66.063566
1689.0000,59.523979
1690.0000,49.424434
1691.0000,80.305899
1692.0000,64.138290
1693.0000,59.685111
1694.0000,64.365330
1695.0000,65.058134
1696.0000,68.946443
1697.0000,81.748495
1698.0000,65.729880
1699.0000,77.569703
1700.0000,76.554934
1701.0000,82.535622
1702.0000,82.908574
1703.0000,80.310823
1704.0000,79.525894
1705.0000,92.196598
1706.0000,90.144827
1707.0000,100.687593
1708.0000,109.646084
1709.0000,118.526533
1710.0000,118.418511
1711.0000,125.380516
1712.0000,142.554442
1713.0000,153.537318
1714.0000,159.909335
1715.0000,178.548516
1716.0000,205.329550
1717.0000,222.508425
1718.0000,261.710641
1719.0000,297.810446
1720.0000,328.910423
1721.0000,395.726946
1722.0000,459.977035
1723.0000,522.033298
1724.0000,599.662573
1725.0000,679.778562
1726.0000,724.080559
1727.0000,743.766937
1728.0000,723.110831
1729.0000,682.842059
1730.0000,605.788791
1731.0000,523.248156
1732.0000,452.441672
1733.0000,369.231454
1734.0000,328.214664
1735.0000,290.368681
1736.0000,254.133096
1737.0000,222.890271
1738.0000,187.353131
1739.0000,187.163876
1740.0000,155.041310
1741.0000,149.200773
1742.0000,150.882196
1743.0000,126.470915
1744.0000,111.587114
1745.0000,114.727220
1746.0000,102.728204
1747.0000,102.628055
1748.0000,91.464618
1749.0000,100.340981
1750.0000,82.665375
1751.0000,104.296508
1752.0000,85.698540
1753.0000,79.838362
1754.0000,78.841571
1755.0000,83.193245
1756.0000,73.366569
1757.0000,65.509563
1758.0000,63.770605
1759.0000,68.290721
1760.0000,69.457390
1761.0000,66.981750
1762.0000,56.557940
1763.0000,63.381070
1764.0000,74.937482
1765.0000,51.914287
1766.0000,73.242548
1767.0000,40.701601
1768.0000,58.565163
1769.0000,51.344481
1770.0000,54.981856
1771.0000,56.738695
1772.0000,53.797352
1773.0000,35.262995
1774.0000,46.002723
1775.0000,47.486234
1776.0000,48.755450
1777.0000,46.093319
1778.0000,45.632073
1779.0000,54.334394
1780.0000,47.148964
1781.0000,34.280137
1782.0000,43.635983
1783.0000,72.036794
1784.0000,49.998696
1785.0000,49.485315
1786.0000,45.988892
1787.0000,35.400656
1788.0000,47.326171
1789.0000,46.003367
1790.0000,45.613193
1791.0000,55.202737
1792.0000,52.555742
1793.0000,43.476955
1794.0000,47.182075
1795.0000,46.308745
1796.0000,64.655999
1797.0000,45.939795
1798.0000,42.057651
1799.0000,42.556429
1800.0000,46.772969
1801.0000,55.245455
1802.0000,51.401171
1803.0000,56.408470
1804.0000,58.028694
1805.0000,46.570561
1806.0000,40.216911
1807.0000,48.725936
1808.0000,34.627361
1809.0000,48.728834
1810.0000,55.753144
1811.0000,40.759790
1812.0000,55.763570
1813.0000,38.905902
1814.0000,31.078011
1815.0000,56.725382
1816.0000,41.844666
1817.0000,37.705545
1818.0000,48.428311
1819.0000,56.798454
1820.0000,44.817976
1821.0000,31.280778
1822.0000,35.792457
1823.0000,20.401191
1824.0000,55.124032
1825.0000,36.487525
1826.0000,53.347821
1827.0000,40.080582
1828.0000,54.171716
1829.0000,46.148892
1830.0000,38.742219
1831.0000,60.033598
1832.0000,56.148175
1833.0000,32.747261
1834.0000,40.476636
1835.0000,40.959068
1836.0000,43.543902
1837.0000,47.914448
1838.0000,43.129057
1839.0000,24.043349
1840.0000,41.746926
1841.0000,54.582529
1842.0000,43.449675
1843.0000,48.720288
1844.0000,41.957660
1845.0000,38.352444
1846.0000,38.496067
1847.0000,44.304071
1848.0000,28.134028
1849.0000,49.505312
1850.0000,44.125872
1851.0000,35.174565
1852.0000,32.070876
1853.0000,32.280141
1854.0000,46.774983
1855.0000,40.868242
1856.0000,56.022625
1857.0000,41.968842
1858.0000,35.856033
1859.0000,54.015438
1860.0000,54.642717
1861.0000,58.687321
1862.0000,31.178235
1863.0000,41.264033
1864.0000,39.690180
1865.0000,30.453818
1866.0000,44.211686
1867.0000,49.573381
1868.0000,34.588641
1869.0000,40.101338
1870.0000,38.524632
1871.0000,42.590960
1872.0000,52.776887
1873.0000,48.848672
1874.0000,45.160102
1875.0000,26.452187
1876.0000,38.207317
1877.0000,31.369458
1878.0000,47.644404
1879.0000,39.008632
1880.0000,47.765388
1881.0000,46.567831
1882.0000,31.664214
1883.0000,40.237352
1884.0000,50.285540
1885.0000,34.529952
1886.0000,59.268847
1887.0000,25.775177
1888.0000,33.719811
1889.0000,21.290559
1890.0000,42.519900
1891.0000,45.124022
1892.0000,40.776282
1893.0000,48.506715
1894.0000,35.301400
1895.0000,33.905552
1896.0000,36.867049
1897.0000,23.449969
1898.0000,42.385559
1899.0000,36.787567
1900.0000,42.995761
1901.0000,43.796121
1902.0000,45.518968
1903.0000,37.767592
1904.0000,38.039697
1905.0000,43.680901
1906.0000,38.186654
1907.0000,53.734735
1908.0000,45.594308
1909.0000,25.210585
1910.0000,41.755259
1911.0000,40.480831
1912.0000,33.338978
1913.0000,45.561562
1914.0000,33.928970
1915.0000,34.799525
1916.0000,33.152562
1917.0000,36.807444
1918.0000,46.977312
1919.0000,41.097540
1920.0000,31.538435
1921.0000,51.328973
1922.0000,41.425563
1923.0000,40.405506
1924.0000,40.188636
1925.0000,38.258183
1926.0000,34.367763
1927.0000,39.632750
1928.0000,43.050461
1929.0000,31.126310
1930.0000,32.416916
1931.0000,34.324413
1932.0000,63.162718
1933.0000,45.158263
1934.0000,38.898613
1935.0000,37.995837
1936.0000,37.007932
1937.0000,36.365070
1938.0000,35.468874
1939.0000,56.233723
1940.0000,45.008476
1941.0000,38.553412
1942.0000,38.842758
1943.0000,38.680312
1944.0000,40.032289
1945.0000,32.547292
1946.0000,54.250377
1947.0000,38.836205
1948.0000,48.174320
1949.0000,41.752569
1950.0000,41.298490
1951.0000,45.160917
1952.0000,36.014764
1953.0000,43.482456
1954.0000,48.094117
1955.0000,36.260532
1956.0000,52.781171
1957.0000,30.599007
1958.0000,44.753224
1959.0000,38.271805
1960.0000,34.874973
1961.0000,36.446004
1962.0000,49.132886
1963.0000,49.227604
1964.0000,46.396089
1965.0000,41.774473
1966.0000,41.634449
1967.0000,45.070449
1968.0000,36.816643
1969.0000,36.489741
1970.0000,45.992203
1971.0000,49.377586
1972.0000,38.699914
1973.0000,43.376331
1974.0000,34.874287
1975.0000,41.788471
1976.0000,41.422449
1977.0000,33.190546
1978.0000,35.777240
1979.0000,43.433124
1980.0000,40.007837
1981.0000,24.586720
1982.0000,46.011620
1983.0000,40.184846
1984.0000,46.582727
1985.0000,30.760536
1986.0000,33.345698
1987.0000,33.120257
1988.0000,45.614712
1989.0000,40.505144
1990.0000,46.594178
1991.0000,43.273617
1992.0000,40.791738
1993.0000,36.282994
1994.0000,30.549187
1995.0000,49.749651
1996.0000,35.042062
1997.0000,33.067051
1998.0000,33.641900
1999.0000,43.043454
2000.0000,40.702002
