raman_shift_cm-1,intensity
200.0000,144.246440
201.0000,142.662029
202.0000,-19.786101
203.0000,-42.219914
204.0000,-36.263347
205.0000,-37.284050
206.0000,2.274008
207.0000,173.746986
208.0000,47.786477
209.0000,24.778341
210.0000,15.710919
211.0000,42.879930
212.0000,-16.526724
213.0000,-13.673544
214.0000,90.067171
215.0000,79.151041
216.0000,-37.426509
217.0000,41.196164
218.0000,118.813262
219.0000,118.389676
220.0000,59.012747
221.0000,58.128935
222.0000,50.718050
223.0000,73.051741
224.0000,-61.293431
225.0000,-9.787529
226.0000,152.285477
227.0000,37.457381
228.0000,93.261564
229.0000,44.805464
230.0000,12.843110
231.0000,95.826499
232.0000,84.006237
233.0000,88.237442
234.0000,122.204575
235.0000,123.207822
236.0000,29.344374
237.0000,-17.754939
238.0000,54.502686
239.0000,70.049530
240.0000,72.415665
241.0000,-19.994881
242.0000,71.968117
243.0000,28.286337
244.0000,-43.982655
245.0000,-89.050704
246.0000,11.265183
247.0000,62.765963
248.0000,157.301964
249.0000,134.968953
250.0000,48.072827
251.0000,54.921920
252.0000,84.875587
253.0000,60.308474
254.0000,96.386654
255.0000,58.218516
256.0000,128.333040
257.0000,24.740744
258.0000,-82.855674
259.0000,92.424826
260.0000,-3.086716
261.0000,32.551455
262.0000,-3.363603
263.0000,66.377421
264.0000,-106.754344
265.0000,84.066196
266.0000,68.563181
267.0000,3.352618
268.0000,-22.333569
269.0000,-36.846466
270.0000,135.085045
271.0000,13.976971
272.0000,98.070244
273.0000,11.231429
274.0000,135.322911
275.0000,81.680540
276.0000,0.894516
277.0000,36.715001
278.0000,0.642196
279.0000,132.676582
280.0000,48.830704
281.0000,48.445550
282.0000,-33.434906
283.0000,32.084251
284.0000,36.815938
285.0000,-62.199965
286.0000,66.832904
287.0000,59.043406
288.0000,-59.310056
289.0000,-111.192485
290.0000,63.070233
291.0000,23.431902
292.0000,37.042714
293.0000,179.269870
294.0000,55.302753
295.0000,66.808571
296.0000,-115.474926
297.0000,75.686855
298.0000,-7.612964
299.0000,86.175724
300.0000,21.395901
301.0000,11.311154
302.0000,56.913730
303.0000,28.432389
304.0000,89.949048
305.0000,77.119450
306.0000,147.661240
307.0000,129.072243
308.0000,-80.466864
309.0000,-28.987371
310.0000,135.743825
311.0000,-32.808547
312.0000,44.404558
313.0000,31.645513
314.0000,14.602530
315.0000,53.249504
316.0000,184.490838
317.0000,22.221617
318.0000,-3.686039
319.0000,108.841011
320.0000,68.224089
321.0000,-18.399098
322.0000,27.607216
323.0000,41.480783
324.0000,53.179974
325.0000,70.499066
326.0000,68.799601
327.0000,45.125423
328.0000,61.879293
329.0000,58.987832
330.0000,74.629829
331.0000,149.037013
332.0000,22.087445
333.0000,103.764804
334.0000,75.674496
335.0000,-83.107785
336.0000,38.559687
337.0000,18.855427
338.0000,-19.523362
339.0000,31.029959
340.0000,96.837494
341.0000,100.493891
342.0000,101.962866
343.0000,88.019870
344.0000,22.157324
345.0000,161.144870
346.0000,26.208187
347.0000,-22.203183
348.0000,47.349726
349.0000,51.186356
350.0000,82.081436
351.0000,98.476322
352.0000,-2.059507
353.0000,-6.975133
354.0000,134.340513
355.0000,129.798535
356.0000,-36.650596
357.0000,6.152919
358.0000,-66.437919
359.0000,20.775694
360.0000,13.124502
361.0000,18.932401
362.0000,170.923438
363.0000,57.984936
364.0000,20.100754
365.0000,20.993623
366.0000,-3.273214
367.0000,179.942237
368.0000,76.335172
369.0000,51.715952
370.0000,21.637747
371.0000,38.762425
372.0000,-12.289405
373.0000,172.605859
374.0000,-38.539687
375.0000,192.250729
376.0000,18.061915
377.0000,-18.643195
378.0000,-3.269798
379.0000,59.882431
380.0000,-5.889826
381.0000,16.821665
382.0000,-81.499880
383.0000,24.836812
384.0000,-42.216032
385.0000,119.099505
386.0000,-9.685343
387.0000,-0.535027
388.0000,24.644007
389.0000,116.655238
390.0000,35.323553
391.0000,32.391093
392.0000,50.992849
393.0000,106.967745
394.0000,15.358066
395.0000,2.446413
396.0000,-61.290389
397.0000,-24.023343
398.0000,-27.048331
399.0000,27.761252
400.0000,99.549066
401.0000,-122.113202
402.0000,-10.249370
403.0000,34.096976
404.0000,1.419184
405.0000,64.830722
406.0000,111.232330
407.0000,-10.724056
408.0000,15.438563
409.0000,71.827922
410.0000,75.136229
411.0000,16.882056
412.0000,38.420591
413.0000,26.997568
414.0000,73.628056
415.0000,126.209557
416.0000,91.939071
417.0000,103.301661
418.0000,73.660441
419.0000,34.496276
420.0000,54.718759
421.0000,116.170772
422.0000,34.372183
423.0000,-5.920377
424.0000,94.623378
425.0000,70.809580
426.0000,108.809970
427.0000,93.178651
428.0000,-82.440798
429.0000,120.271413
430.0000,50.630083
431.0000,73.242791
432.0000,75.153341
433.0000,98.946061
434.0000,84.566427
435.0000,20.563462
436.0000,104.241744
437.0000,22.639122
438.0000,69.419130
439.0000,136.703609
440.0000,27.867579
441.0000,8.037045
442.0000,-30.204216
443.0000,-21.196443
444.0000,6.224753
445.0000,-85.379735
446.0000,86.620098
447.0000,37.048342
448.0000,42.564180
449.0000,186.261212
450.0000,34.443380
451.0000,-68.526487
452.0000,41.268664
453.0000,91.298903
454.0000,-47.272969
455.0000,-43.745947
456.0000,81.632999
457.0000,19.327790
458.0000,35.055949
459.0000,-0.023534
460.0000,-13.560210
461.0000,-27.118964
462.0000,90.118722
463.0000,-48.260680
464.0000,91.535755
465.0000,-47.230370
466.0000,83.838911
467.0000,78.136041
468.0000,13.263071
469.0000,74.994097
470.0000,29.180901
471.0000,94.133288
472.0000,46.169565
473.0000,8.453402
474.0000,-84.802015
475.0000,117.821862
476.0000,68.136545
477.0000,17.237118
478.0000,-24.488857
479.0000,48.412842
480.0000,54.355959
481.0000,18.166642
482.0000,16.899560
483.0000,15.460462
484.0000,109.310494
485.0000,56.143090
486.0000,114.181670
487.0000,60.681478
488.0000,7.640420
489.0000,-30.895907
490.0000,-69.973983
491.0000,14.131818
492.0000,24.749606
493.0000,89.902203
494.0000,73.665517
495.0000,126.879457
496.0000,91.522679
497.0000,49.490753
498.0000,5.465224
499.0000,117.909170
500.0000,-24.988769
501.0000,42.152627
502.0000,58.329189
503.0000,-21.641426
504.0000,54.228865
505.0000,80.001342
506.0000,52.236796
507.0000,24.004612
508.0000,97.998388
509.0000,87.459644
510.0000,19.558660
511.0000,99.633241
512.0000,76.956832
513.0000,11.815172
514.0000,105.355236
515.0000,54.578285
516.0000,-36.251670
517.0000,44.165681
518.0000,117.749621
519.0000,67.085516
520.0000,-16.371971
521.0000,101.076557
522.0000,18.093222
523.0000,56.353651
524.0000,27.831933
525.0000,74.930372
526.0000,73.886665
527.0000,58.224656
528.0000,51.916330
529.0000,42.674584
530.0000,22.116105
531.0000,50.917140
532.0000,69.994967
533.0000,4.678947
534.0000,7.854750
535.0000,33.086059
536.0000,-25.252977
537.0000,-86.911487
538.0000,63.824756
539.0000,31.351472
540.0000,98.361947
541.0000,46.020005
542.0000,-31.014749
543.0000,-43.420780
544.0000,98.577567
545.0000,85.230013
546.0000,3.440805
547.0000,53.017254
548.0000,-85.879683
549.0000,157.641089
550.0000,139.367270
551.0000,31.347530
552.0000,128.617324
553.0000,34.300984
554.0000,62.754352
555.0000,215.994202
556.0000,-111.137270
557.0000,4.897135
558.0000,-54.458579
559.0000,77.815226
560.0000,80.981436
561.0000,68.659334
562.0000,76.236291
563.0000,-3.276940
564.0000,-8.304060
565.0000,1.702809
566.0000,29.038464
567.0000,100.961880
568.0000,-5.507838
569.0000,93.341475
570.0000,25.044988
571.0000,61.299037
572.0000,53.748313
573.0000,-29.348517
574.0000,184.861634
575.0000,-18.887172
576.0000,72.933243
577.0000,9.771585
578.0000,-5.374088
579.0000,52.138558
580.0000,116.448242
581.0000,26.154766
582.0000,166.487562
583.0000,-57.389540
584.0000,32.153504
585.0000,5.595011
586.0000,52.087820
587.0000,60.047259
588.0000,0.649349
589.0000,188.228128
590.0000,142.354325
591.0000,-49.124030
592.0000,199.828275
593.0000,38.160882
594.0000,171.289159
595.0000,-23.727605
596.0000,82.838856
597.0000,52.939326
598.0000,-3.805576
599.0000,67.851589
600.0000,83.669546
601.0000,104.792679
602.0000,53.666173
603.0000,149.917460
604.0000,165.563920
605.0000,84.765442
606.0000,99.627187
607.0000,132.491193
608.0000,162.941710
609.0000,89.262780
610.0000,258.778908
611.0000,141.802526
612.0000,165.884706
613.0000,172.686837
614.0000,357.990171
615.0000,244.208533
616.0000,253.578826
617.0000,288.364713
618.0000,404.068266
619.0000,421.462771
620.0000,539.191423
621.0000,531.747744
622.0000,349.465396
623.0000,354.215208
624.0000,402.882344
625.0000,314.625652
626.0000,224.478348
627.0000,348.519886
628.0000,159.397765
629.0000,215.800624
630.0000,61.431615
631.0000,196.014716
632.0000,119.553506
633.0000,83.890394
634.0000,148.880828
635.0000,19.247639
636.0000,29.137333
637.0000,19.668885
638.0000,110.569328
639.0000,75.148823
640.0000,94.614983
641.0000,35.938491
642.0000,89.930524
643.0000,-37.232251
644.0000,120.793739
645.0000,150.067595
646.0000,94.933130
647.0000,90.680425
648.0000,5.244852
649.0000,175.901953
650.0000,12.598668
651.0000,90.015126
652.0000,54.993955
653.0000,-73.188634
654.0000,10.760432
655.0000,97.552314
656.0000,49.500265
657.0000,77.391341
658.0000,52.344116
659.0000,39.829027
660.0000,78.687333
661.0000,-6.433062
662.0000,54.093375
663.0000,84.076029
664.0000,-4.981099
665.0000,27.351488
666.0000,25.173212
667.0000,18.263269
668.0000,10.335311
669.0000,47.810472
670.0000,-51.158647
671.0000,22.356627
672.0000,-15.059992
673.0000,28.596926
674.0000,48.242425
675.0000,24.670774
676.0000,30.941034
677.0000,-22.206509
678.0000,52.300236
679.0000,54.128110
680.0000,45.596282
681.0000,20.051799
682.0000,-32.579476
683.0000,77.478383
684.0000,58.910378
685.0000,22.535141
686.0000,89.451366
687.0000,140.525041
688.0000,89.813791
689.0000,10.313304
690.0000,64.806341
691.0000,157.503059
692.0000,86.249073
693.0000,5.034491
694.0000,156.318054
695.0000,-2.976644
696.0000,32.341783
697.0000,36.421038
698.0000,23.447609
699.0000,51.839757
700.0000,-29.155921
701.0000,-26.667729
702.0000,50.260994
703.0000,108.310081
704.0000,-32.116954
705.0000,41.638697
706.0000,17.643324
707.0000,27.484162
708.0000,67.855235
709.0000,-49.650377
710.0000,79.454686
711.0000,113.634347
712.0000,88.492150
713.0000,49.244404
714.0000,122.016342
715.0000,80.859958
716.0000,77.624320
717.0000,8.297557
718.0000,-81.686799
719.0000,96.841751
720.0000,41.437818
721.0000,7.144644
722.0000,-66.110419
723.0000,28.674425
724.0000,2.382539
725.0000,38.351363
726.0000,-13.453657
727.0000,62.231717
728.0000,109.619086
729.0000,-1.470774
730.0000,43.282188
731.0000,42.351441
732.0000,115.112370
733.0000,78.341584
734.0000,-41.491322
735.0000,11.045404
736.0000,31.590220
737.0000,13.691585
738.0000,20.819536
739.0000,54.963758
740.0000,4.085783
741.0000,14.533120
742.0000,9.401899
743.0000,51.244085
744.0000,57.727863
745.0000,-5.088527
746.0000,36.601991
747.0000,96.421929
748.0000,203.856158
749.0000,-8.927290
750.0000,61.434577
751.0000,-60.026918
752.0000,-14.740005
753.0000,-95.927036
754.0000,54.782379
755.0000,54.262396
756.0000,37.622593
757.0000,-23.320233
758.0000,40.699962
759.0000,101.865469
760.0000,-65.008279
761.0000,69.022609
762.0000,20.934069
763.0000,149.672869
764.0000,73.318343
765.0000,14.457573
766.0000,-50.936858
767.0000,-114.616122
768.0000,2.562536
769.0000,117.279162
770.0000,15.868676
771.0000,75.123474
772.0000,23.525167
773.0000,75.035445
774.0000,84.260030
775.0000,53.635073
776.0000,33.295243
777.0000,59.641227
778.0000,89.807356
779.0000,66.334348
780.0000,-84.835066
781.0000,50.717595
782.0000,28.826163
783.0000,-38.203231
784.0000,78.370795
785.0000,62.033995
786.0000,89.646020
787.0000,93.065909
788.0000,-17.774752
789.0000,35.645581
790.0000,89.685953
791.0000,158.080109
792.0000,103.139490
793.0000,93.538781
794.0000,24.636782
795.0000,34.495769
796.0000,36.728711
797.0000,62.586819
798.0000,25.205840
799.0000,9.081832
800.0000,7.858208
801.0000,104.939243
802.0000,-10.204466
803.0000,49.227606
804.0000,91.588408
805.0000,33.128567
806.0000,60.040450
807.0000,-28.907902
808.0000,-23.871570
809.0000,79.587598
810.0000,-14.968245
811.0000,-22.240837
812.0000,203.426647
813.0000,-30.197257
814.0000,-10.705770
815.0000,120.387558
816.0000,40.463092
817.0000,22.693439
818.0000,86.522731
819.0000,23.313301
820.0000,137.808933
821.0000,159.265911
822.0000,146.145907
823.0000,90.607786
824.0000,108.308274
825.0000,62.970417
826.0000,110.702401
827.0000,-10.022494
828.0000,119.803501
829.0000,2.612733
830.0000,-14.053633
831.0000,78.104714
832.0000,39.631219
833.0000,36.311683
834.0000,-22.815388
835.0000,140.247243
836.0000,136.416535
837.0000,24.934740
838.0000,67.879887
839.0000,178.732578
840.0000,41.311596
841.0000,66.123084
842.0000,44.071274
843.0000,45.218034
844.0000,154.189374
845.0000,2.174257
846.0000,57.181982
847.0000,149.623465
848.0000,13.371876
849.0000,23.725356
850.0000,100.370959
851.0000,-13.974804
852.0000,81.697285
853.0000,0.965932
854.0000,35.411106
855.0000,22.350540
856.0000,-107.288769
857.0000,2.761641
858.0000,44.765713
859.0000,84.031227
860.0000,73.807250
861.0000,89.954341
862.0000,18.744048
863.0000,64.105940
864.0000,37.157317
865.0000,69.704870
866.0000,62.885013
867.0000,-4.932537
868.0000,65.870102
869.0000,100.492894
870.0000,33.864248
871.0000,94.758032
872.0000,116.032290
873.0000,109.700497
874.0000,86.759680
875.0000,-18.993643
876.0000,54.394523
877.0000,115.398387
878.0000,52.959729
879.0000,140.378930
880.0000,151.541731
881.0000,-17.728590
882.0000,-7.872035
883.0000,40.276705
884.0000,68.338218
885.0000,43.525638
886.0000,11.560282
887.0000,5.991570
888.0000,-45.976961
889.0000,39.617022
890.0000,48.367003
891.0000,-50.195485
892.0000,21.672519
893.0000,-46.285035
894.0000,95.851743
895.0000,-92.471143
896.0000,-52.230012
897.0000,-3.230797
898.0000,-58.923522
899.0000,-22.597806
900.0000,-32.483584
901.0000,90.520455
902.0000,-30.411464
903.0000,27.036635
904.0000,65.951642
905.0000,-80.695727
906.0000,66.231024
907.0000,109.027923
908.0000,82.176285
909.0000,48.433220
910.0000,8.481617
911.0000,-0.766971
912.0000,72.966430
913.0000,-0.759813
914.0000,68.651037
915.0000,-31.548369
916.0000,-46.223755
917.0000,107.421477
918.0000,42.492155
919.0000,-2.588537
920.0000,49.330322
921.0000,93.131232
922.0000,41.176447
923.0000,109.344746
924.0000,118.237127
925.0000,-40.012991
926.0000,-36.014087
927.0000,117.972342
928.0000,-59.008134
929.0000,188.023983
930.0000,52.040477
931.0000,31.403846
932.0000,60.294267
933.0000,-1.135211
934.0000,163.051600
935.0000,4.540490
936.0000,67.027777
937.0000,-79.458446
938.0000,9.820832
939.0000,-45.527012
940.0000,113.858989
941.0000,96.730532
942.0000,107.409504
943.0000,-30.027388
944.0000,93.489065
945.0000,-7.157179
946.0000,140.603577
947.0000,64.273933
948.0000,-18.498505
949.0000,48.968022
950.0000,53.731187
951.0000,113.208460
952.0000,74.259603
953.0000,114.412582
954.0000,160.815843
955.0000,-12.619886
956.0000,34.345948
957.0000,-18.471489
958.0000,69.073438
959.0000,31.041837
960.0000,-4.572648
961.0000,37.438996
962.0000,18.887542
963.0000,136.697152
964.0000,-16.173101
965.0000,123.892677
966.0000,30.437346
967.0000,157.001200
968.0000,64.406756
969.0000,117.247271
970.0000,54.262340
971.0000,90.545606
972.0000,18.193303
973.0000,183.756435
974.0000,68.291664
975.0000,0.270110
976.0000,211.537871
977.0000,18.127367
978.0000,49.114302
979.0000,124.745420
980.0000,219.136536
981.0000,133.042317
982.0000,108.268008
983.0000,131.357843
984.0000,181.154804
985.0000,149.720311
986.0000,211.743932
987.0000,131.974608
988.0000,258.034296
989.0000,188.564424
990.0000,259.378139
991.0000,366.880334
992.0000,422.253295
993.0000,498.926194
994.0000,449.329876
995.0000,539.468232
996.0000,578.252116
997.0000,759.233263
998.0000,878.248604
999.0000,919.412659
1000.0000,973.742635
1001.0000,1087.152244
1002.0000,1150.103774
1003.0000,969.089424
1004.0000,828.519489
1005.0000,768.846770
1006.0000,698.240768
1007.0000,571.486121
1008.0000,548.640246
1009.0000,514.658733
1010.0000,369.091884
1011.0000,386.561334
1012.0000,388.532593
1013.0000,181.580731
1014.0000,205.556254
1015.0000,240.536169
1016.0000,204.188501
1017.0000,311.395003
1018.0000,262.725099
1019.0000,320.788266
1020.0000,239.895076
1021.0000,340.807363
1022.0000,309.676456
1023.0000,353.779551
1024.0000,298.485508
1025.0000,422.241308
1026.0000,361.917600
1027.0000,471.750133
1028.0000,544.270363
1029.0000,454.277519
1030.0000,682.726859
1031.0000,749.494439
1032.0000,625.883530
1033.0000,490.625756
1034.0000,544.759903
1035.0000,466.168507
1036.0000,384.698196
1037.0000,304.141824
1038.0000,276.012423
1039.0000,324.407992
1040.0000,194.455251
1041.0000,168.079730
1042.0000,270.749441
1043.0000,89.520474
1044.0000,153.609563
1045.0000,152.180108
1046.0000,205.493185
1047.0000,77.486036
1048.0000,33.530137
1049.0000,187.140180
1050.0000,128.673103
1051.0000,48.126416
1052.0000,52.960793
1053.0000,80.996696
1054.0000,108.105345
1055.0000,137.909788
1056.0000,7.584656
1057.0000,-0.593386
1058.0000,23.246841
1059.0000,123.979599
1060.0000,125.329713
1061.0000,110.201066
1062.0000,89.098477
1063.0000,152.055211
1064.0000,103.029785
1065.0000,127.928147
1066.0000,78.858893
1067.0000,-74.432536
1068.0000,142.393854
1069.0000,108.551889
1070.0000,49.908885
1071.0000,67.765939
1072.0000,-43.295533
1073.0000,73.599750
1074.0000,-21.879878
1075.0000,90.358455
1076.0000,-32.160491
1077.0000,96.766862
1078.0000,76.642923
1079.0000,19.066581
1080.0000,147.026196
1081.0000,49.173218
1082.0000,145.271281
1083.0000,75.550697
1084.0000,146.144792
1085.0000,22.575304
1086.0000,260.825963
1087.0000,46.548937
1088.0000,80.060551
1089.0000,143.060664
1090.0000,87.787925
1091.0000,123.515614
1092.0000,92.301978
1093.0000,45.050926
1094.0000,86.108840
1095.0000,-76.586994
1096.0000,61.333684
1097.0000,73.165257
1098.0000,168.525364
1099.0000,33.580741
1100.0000,57.183389
1101.0000,99.542977
1102.0000,-12.974591
1103.0000,81.297765
1104.0000,68.374376
1105.0000,117.011400
1106.0000,103.540806
1107.0000,107.216710
1108.0000,17.115598
1109.0000,37.828034
1110.0000,8.937664
1111.0000,-66.463775
1112.0000,32.704295
1113.0000,48.481298
1114.0000,76.822857
1115.0000,60.308107
1116.0000,-23.000828
1117.0000,96.488692
1118.0000,40.615610
1119.0000,-14.673151
1120.0000,96.610083
1121.0000,143.075523
1122.0000,26.272932
1123.0000,6.009868
1124.0000,17.744275
1125.0000,79.060827
1126.0000,118.977528
1127.0000,-25.140390
1128.0000,51.667775
1129.0000,90.478085
1130.0000,55.726726
1131.0000,35.777030
1132.0000,118.117147
1133.0000,109.098353
1134.0000,1.895675
1135.0000,29.735452
1136.0000,1.135246
1137.0000,64.429791
1138.0000,30.795085
1139.0000,66.202950
1140.0000,114.145702
1141.0000,122.341421
1142.0000,73.256988
1143.0000,-52.593773
1144.0000,101.413838
1145.0000,2.847910
1146.0000,121.068371
1147.0000,177.593766
1148.0000,104.187526
1149.0000,127.346332
1150.0000,238.459728
1151.0000,305.421970
1152.0000,162.098254
1153.0000,248.439677
1154.0000,152.071977
1155.0000,204.070246
1156.0000,310.307496
1157.0000,262.035447
1158.0000,284.500455
1159.0000,205.936794
1160.0000,152.996764
1161.0000,128.615539
1162.0000,122.875223
1163.0000,185.083551
1164.0000,164.770457
1165.0000,73.066495
1166.0000,54.020231
1167.0000,108.835182
1168.0000,36.071319
1169.0000,127.836756
1170.0000,89.832772
1171.0000,-15.278702
1172.0000,47.132092
1173.0000,61.981642
1174.0000,111.348316
1175.0000,115.599771
1176.0000,124.293331
1177.0000,20.543552
1178.0000,97.547419
1179.0000,19.201302
1180.0000,63.031649
1181.0000,68.187029
1182.0000,99.233567
1183.0000,66.566552
1184.0000,52.747166
1185.0000,57.865030
1186.0000,155.918401
1187.0000,183.079749
1188.0000,-47.002582
1189.0000,-20.925066
1190.0000,15.286480
1191.0000,-60.458446
1192.0000,17.646458
1193.0000,13.776854
1194.0000,-43.853624
1195.0000,8.338727
1196.0000,164.533895
1197.0000,30.711878
1198.0000,31.157144
1199.0000,94.060831
1200.0000,143.798201
1201.0000,-0.670505
1202.0000,40.981850
1203.0000,-38.216953
1204.0000,-18.083074
1205.0000,56.165784
1206.0000,94.832575
1207.0000,111.215005
1208.0000,132.173724
1209.0000,134.699902
1210.0000,-59.377673
1211.0000,68.737917
1212.0000,119.157939
1213.0000,-15.874064
1214.0000,105.038530
1215.0000,8.197447
1216.0000,46.001490
1217.0000,-71.317907
1218.0000,-21.729249
1219.0000,79.706462
1220.0000,12.141394
1221.0000,105.920999
1222.0000,-3.383039
1223.0000,14.609638
1224.0000,-93.487105
1225.0000,103.793071
1226.0000,74.359309
1227.0000,99.803323
1228.0000,51.893197
1229.0000,75.117015
1230.0000,-19.132768
1231.0000,79.159348
1232.0000,72.063077
1233.0000,13.904311
1234.0000,121.142673
1235.0000,-29.318136
1236.0000,32.567686
1237.0000,160.781614
1238.0000,15.987870
1239.0000,-28.082950
1240.0000,70.268858
1241.0000,70.264163
1242.0000,-13.901768
1243.0000,130.392781
1244.0000,31.027733
1245.0000,77.299446
1246.0000,-17.286237
1247.0000,71.856199
1248.0000,-115.197743
1249.0000,69.524669
1250.0000,55.979276
1251.0000,47.232687
1252.0000,54.944843
1253.0000,109.821274
1254.0000,-78.658124
1255.0000,117.973489
1256.0000,-47.219278
1257.0000,-12.669675
1258.0000,45.164615
1259.0000,65.800633
1260.0000,14.872103
1261.0000,114.147005
1262.0000,86.101140
1263.0000,82.132081
1264.0000,3.947125
1265.0000,-3.084270
1266.0000,83.546432
1267.0000,78.417451
1268.0000,-37.861660
1269.0000,36.304703
1270.0000,51.066681
1271.0000,125.118281
1272.0000,40.663714
1273.0000,-39.448785
1274.0000,19.361117
1275.0000,-171.077676
1276.0000,-1.330869
1277.0000,42.232099
1278.0000,69.844609
1279.0000,100.656175
1280.0000,-8.572433
1281.0000,113.833950
1282.0000,115.936022
1283.0000,-17.617911
1284.0000,30.100814
1285.0000,-11.569343
1286.0000,133.513726
1287.0000,44.910211
1288.0000,99.685983
1289.0000,-53.663031
1290.0000,101.983586
1291.0000,48.165980
1292.0000,84.298753
1293.0000,79.736639
1294.0000,-2.367568
1295.0000,-10.752678
1296.0000,71.088995
1297.0000,36.566144
1298.0000,-8.478544
1299.0000,-1.765285
1300.0000,-139.050739
1301.0000,101.590354
1302.0000,15.164849
1303.0000,41.175758
1304.0000,13.943600
1305.0000,49.617168
1306.0000,-51.771347
1307.0000,78.583447
1308.0000,144.220543
1309.0000,-58.939781
1310.0000,64.113171
1311.0000,70.083466
1312.0000,-96.752742
1313.0000,31.518592
1314.0000,62.501149
1315.0000,14.837960
1316.0000,-20.709231
1317.0000,90.009554
1318.0000,95.314759
1319.0000,63.197076
1320.0000,82.074906
1321.0000,68.209856
1322.0000,1.029777
1323.0000,-78.311985
1324.0000,19.212714
1325.0000,-46.441085
1326.0000,67.800296
1327.0000,34.581524
1328.0000,-97.997077
1329.0000,63.280530
1330.0000,100.319708
1331.0000,-28.580883
1332.0000,24.022179
1333.0000,4.220008
1334.0000,-42.429135
1335.0000,80.076471
1336.0000,83.591838
1337.0000,170.959768
1338.0000,84.319893
1339.0000,31.851912
1340.0000,16.026411
1341.0000,22.757659
1342.0000,19.239820
1343.0000,112.333282
1344.0000,118.846543
1345.0000,67.630448
1346.0000,153.440407
1347.0000,150.049210
1348.0000,-90.634207
1349.0000,69.215581
1350.0000,89.043819
1351.0000,52.948240
1352.0000,32.354889
1353.0000,56.651542
1354.0000,128.910269
1355.0000,-9.985122
1356.0000,141.042887
1357.0000,-34.029430
1358.0000,87.197036
1359.0000,92.980023
1360.0000,-7.447776
1361.0000,59.997166
1362.0000,99.543530
1363.0000,75.808892
1364.0000,36.516342
1365.0000,33.919427
1366.0000,67.239413
1367.0000,45.786974
1368.0000,16.571837
1369.0000,87.792613
1370.0000,34.307140
1371.0000,66.550279
1372.0000,-6.460130
1373.0000,-26.828857
1374.0000,89.994379
1375.0000,41.282538
1376.0000,-31.612390
1377.0000,42.446058
1378.0000,82.799563
1379.0000,7.444057
1380.0000,43.153561
1381.0000,-1.997734
1382.0000,160.141559
1383.0000,-50.473345
1384.0000,-42.624174
1385.0000,84.068808
1386.0000,-72.138070
1387.0000,78.812374
1388.0000,48.077522
1389.0000,-114.118343
1390.0000,51.194770
1391.0000,118.363302
1392.0000,174.428287
1393.0000,0.024105
1394.0000,41.623460
1395.0000,51.841161
1396.0000,45.943493
1397.0000,-78.518437
1398.0000,-4.140495
1399.0000,59.181473
1400.0000,37.846432
1401.0000,19.918047
1402.0000,141.360483
1403.0000,21.705999
1404.0000,44.772143
1405.0000,42.962807
1406.0000,-2.726830
1407.0000,-131.222918
1408.0000,-3.103966
1409.0000,-36.123525
1410.0000,75.184899
1411.0000,44.241194
1412.0000,18.238628
1413.0000,88.357260
1414.0000,-4.894367
1415.0000,24.468488
1416.0000,95.930608
1417.0000,5.047956
1418.0000,104.642008
1419.0000,124.720242
1420.0000,-57.959997
1421.0000,157.190461
1422.0000,-15.722251
1423.0000,55.416291
1424.0000,58.907217
1425.0000,141.445027
1426.0000,-24.670320
1427.0000,81.770523
1428.0000,71.284722
1429.0000,150.458217
1430.0000,41.924500
1431.0000,29.704821
1432.0000,123.550839
1433.0000,84.297196
1434.0000,148.151857
1435.0000,42.084886
1436.0000,154.441455
1437.0000,177.783048
1438.0000,137.380865
1439.0000,87.257096
1440.0000,130.022215
1441.0000,196.101679
1442.0000,155.452227
1443.0000,204.859420
1444.0000,117.324591
1445.0000,381.333006
1446.0000,243.726248
1447.0000,280.614831
1448.0000,405.585126
1449.0000,474.996137
1450.0000,253.035783
1451.0000,386.769124
1452.0000,496.144426
1453.0000,463.320138
1454.0000,256.968778
1455.0000,255.885373
1456.0000,187.298207
1457.0000,227.343498
1458.0000,169.877388
1459.0000,254.321508
1460.0000,123.050058
1461.0000,158.280301
1462.0000,146.587319
1463.0000,198.066978
1464.0000,99.189212
1465.0000,42.693271
1466.0000,88.419734
1467.0000,31.272780
1468.0000,141.282869
1469.0000,136.629247
1470.0000,18.142409
1471.0000,165.799562
1472.0000,71.829655
1473.0000,24.101421
1474.0000,32.208207
1475.0000,50.781055
1476.0000,27.229682
1477.0000,-25.103125
1478.0000,48.206573
1479.0000,69.038583
1480.0000,63.866170
1481.0000,35.379225
1482.0000,24.130937
1483.0000,22.735839
1484.0000,60.535255
1485.0000,101.055902
1486.0000,-16.922106
1487.0000,40.939208
1488.0000,72.110518
1489.0000,163.150080
1490.0000,-38.939781
1491.0000,28.844855
1492.0000,88.532970
1493.0000,5.898856
1494.0000,52.530972
1495.0000,-45.151715
1496.0000,11.212537
1497.0000,-26.817612
1498.0000,122.797741
1499.0000,1.010973
1500.0000,86.102446
1501.0000,17.470910
1502.0000,76.846352
1503.0000,165.081459
1504.0000,-55.783475
1505.0000,-39.230755
1506.0000,150.538118
1507.0000,-12.113607
1508.0000,31.372528
1509.0000,40.895603
1510.0000,18.251748
1511.0000,13.853022
1512.0000,32.875910
1513.0000,-19.007644
1514.0000,57.414153
1515.0000,-37.670308
1516.0000,8.827207
1517.0000,-6.553375
1518.0000,39.632072
1519.0000,127.906093
1520.0000,24.173919
1521.0000,-28.619706
1522.0000,44.127679
1523.0000,80.851725
1524.0000,181.706049
1525.0000,111.609384
1526.0000,-95.342960
1527.0000,9.839488
1528.0000,20.213850
1529.0000,37.126521
1530.0000,49.272522
1531.0000,98.329550
1532.0000,179.733120
1533.0000,-41.516087
1534.0000,77.157469
1535.0000,-31.507335
1536.0000,206.390278
1537.0000,84.612202
1538.0000,69.448231
1539.0000,102.210045
1540.0000,-1.320406
1541.0000,-34.572246
1542.0000,99.427114
1543.0000,90.774254
1544.0000,71.884330
1545.0000,124.282905
1546.0000,87.429372
1547.0000,90.814902
1548.0000,-15.464931
1549.0000,76.171878
1550.0000,40.784041
1551.0000,-35.791271
1552.0000,22.803682
1553.0000,117.158533
1554.0000,156.724336
1555.0000,101.208415
1556.0000,-9.850650
1557.0000,70.598206
1558.0000,147.150215
1559.0000,99.033420
1560.0000,-9.910673
1561.0000,169.919305
1562.0000,-5.371467
1563.0000,129.286487
1564.0000,83.916366
1565.0000,99.212017
1566.0000,103.349063
1567.0000,75.774407
1568.0000,122.749589
1569.0000,55.158828
1570.0000,211.658496
1571.0000,119.961982
1572.0000,142.988539
1573.0000,93.694104
1574.0000,133.559863
1575.0000,163.014548
1576.0000,188.674233
1577.0000,298.251688
1578.0000,368.316969
1579.0000,281.611563
1580.0000,337.813840
1581.0000,409.019487
1582.0000,508.640313
1583.0000,520.760008
1584.0000,496.859620
1585.0000,373.046572
1586.0000,298.359949
1587.0000,288.874052
1588.0000,263.826788
1589.0000,338.744582
1590.0000,303.310374
1591.0000,288.202543
1592.0000,231.049629
1593.0000,341.834707
1594.0000,368.589300
1595.0000,453.241205
1596.0000,298.860064
1597.0000,508.700895
1598.0000,639.264444
1599.0000,542.256523
1600.0000,704.203030
1601.0000,680.805608
1602.0000,554.697981
1603.0000,702.875840
1604.0000,650.191570
1605.0000,581.103792
1606.0000,589.183849
1607.0000,437.244167
1608.0000,366.263795
1609.0000,327.470082
1610.0000,241.958010
1611.0000,303.210198
1612.0000,177.351149
1613.0000,198.462226
1614.0000,148.716729
1615.0000,184.384270
1616.0000,130.775389
1617.0000,246.864021
1618.0000,155.258539
1619.0000,2.702733
1620.0000,10.294717
1621.0000,115.233726
1622.0000,136.165452
1623.0000,47.094891
1624.0000,95.451854
1625.0000,85.263798
1626.0000,172.092188
1627.0000,185.370737
1628.0000,68.390356
1629.0000,75.467801
1630.0000,73.425701
1631.0000,71.552668
1632.0000,96.464153
1633.0000,81.635379
1634.0000,178.462135
1635.0000,122.180148
1636.0000,101.002822
1637.0000,41.016591
1638.0000,57.378563
1639.0000,70.930759
1640.0000,65.577518
1641.0000,89.115916
1642.0000,99.860433
1643.0000,159.960134
1644.0000,36.605900
1645.0000,65.987904
1646.0000,57.761977
1647.0000,52.109849
1648.0000,57.448939
1649.0000,45.338858
1650.0000,33.392066
1651.0000,5.500576
1652.0000,69.403552
1653.0000,22.685251
1654.0000,91.277282
1655.0000,118.173373
1656.0000,138.972107
1657.0000,164.451403
1658.0000,41.608662
1659.0000,55.244592
1660.0000,-79.921460
1661.0000,127.988715
1662.0000,50.916131
1663.0000,-45.896168
1664.0000,98.919526
1665.0000,-5.480360
1666.0000,97.322664
1667.0000,46.196353
1668.0000,138.952447
1669.0000,137.151693
1670.0000,13.367473
1671.0000,105.685952
1672.0000,-34.419461
1673.0000,18.861014
1674.0000,122.223373
1675.0000,77.900914
1676.0000,-17.276475
1677.0000,20.131644
1678.0000,141.674778
1679.0000,143.139515
1680.0000,53.033182
1681.0000,86.714491
1682.0000,52.787383
1683.0000,1.802147
1684.0000,112.574643
1685.0000,86.315746
1686.0000,96.356990
1687.0000,96.222584
1688.0000,1.764351
1689.0000,0.359674
1690.0000,47.296793
1691.0000,-4.948530
1692.0000,174.567554
1693.0000,48.308168
1694.0000,33.384547
1695.0000,41.904770
1696.0000,56.551275
1697.0000,136.847327
1698.0000,82.874348
1699.0000,71.902441
1700.0000,138.732897
1701.0000,22.912291
1702.0000,-40.003150
1703.0000,-17.806198
1704.0000,47.416460
1705.0000,118.645751
1706.0000,151.045540
1707.0000,21.537843
1708.0000,-44.326590
1709.0000,123.878029
1710.0000,-43.442874
1711.0000,44.254202
1712.0000,-71.050199
1713.0000,72.309892
1714.0000,4.967563
1715.0000,24.410146
1716.0000,63.208114
1717.0000,29.373963
1718.0000,-83.816158
1719.0000,130.607450
1720.0000,81.406876
1721.0000,123.665205
1722.0000,69.880356
1723.0000,32.068382
1724.0000,-39.386150
1725.0000,20.317983
1726.0000,-0.335963
1727.0000,-62.310218
1728.0000,44.289716
1729.0000,80.652386
1730.0000,-65.276710
1731.0000,28.376461
1732.0000,137.471518
1733.0000,61.130759
1734.0000,108.017297
1735.0000,-28.924073
1736.0000,1.761218
1737.0000,86.781856
1738.0000,88.039775
1739.0000,56.216578
1740.0000,-26.978983
1741.0000,45.813248
1742.0000,-35.731197
1743.0000,65.310157
1744.0000,50.593541
1745.0000,-14.575112
1746.0000,91.676044
1747.0000,48.472103
1748.0000,128.711001
1749.0000,15.930738
1750.0000,-82.299417
1751.0000,118.632046
1752.0000,17.698085
1753.0000,111.666100
1754.0000,112.850682
1755.0000,96.380725
1756.0000,177.803862
1757.0000,22.297019
1758.0000,79.388167
1759.0000,114.855650
1760.0000,147.363137
1761.0000,-40.261952
1762.0000,78.832001
1763.0000,44.900148
1764.0000,-11.089680
1765.0000,-26.669549
1766.0000,136.994684
1767.0000,-19.859347
1768.0000,14.030046
1769.0000,86.596701
1770.0000,44.549132
1771.0000,-29.305269
1772.0000,31.248429
1773.0000,100.625135
1774.0000,-113.361124
1775.0000,30.616187
1776.0000,18.467943
1777.0000,187.957246
1778.0000,114.243876
1779.0000,123.215091
1780.0000,25.487182
1781.0000,37.356841
1782.0000,30.017186
1783.0000,60.371870
1784.0000,65.798163
1785.0000,16.277614
1786.0000,33.184845
1787.0000,75.497248
1788.0000,-18.068715
1789.0000,16.381619
1790.0000,6.233841
1791.0000,63.081557
1792.0000,105.343347
1793.0000,55.513400
1794.0000,50.196909
1795.0000,-57.217809
1796.0000,-7.305658
1797.0000,14.585527
1798.0000,49.282036
1799.0000,-6.047143
1800.0000,-114.468926
1801.0000,28.335880
1802.0000,0.130567
1803.0000,120.775468
1804.0000,49.930177
1805.0000,-10.002499
1806.0000,-104.904987
1807.0000,99.070538
1808.0000,23.566325
1809.0000,-20.809787
1810.0000,22.725949
1811.0000,47.350014
1812.0000,-37.925839
1813.0000,140.788088
1814.0000,115.313715
1815.0000,100.291585
1816.0000,61.835755
1817.0000,2.009788
1818.0000,0.973432
1819.0000,63.368638
1820.0000,119.933596
1821.0000,26.711637
1822.0000,134.079718
1823.0000,7.460142
1824.0000,49.895636
1825.0000,49.664975
1826.0000,-25.126579
1827.0000,73.642781
1828.0000,-19.184683
1829.0000,20.800857
1830.0000,54.209375
1831.0000,-91.596059
1832.0000,81.427936
1833.0000,18.662314
1834.0000,98.895873
1835.0000,5.395045
1836.0000,-36.445951
1837.0000,-10.401016
1838.0000,-59.357254
1839.0000,78.399834
1840.0000,-19.364287
1841.0000,101.904772
1842.0000,18.454988
1843.0000,186.783718
1844.0000,38.377435
1845.0000,81.774845
1846.0000,99.548366
1847.0000,69.378955
1848.0000,146.097569
1849.0000,-40.782616
1850.0000,53.006790
1851.0000,138.770325
1852.0000,17.844690
1853.0000,-32.317677
1854.0000,95.169313
1855.0000,47.076164
1856.0000,125.480807
1857.0000,38.896529
1858.0000,97.889529
1859.0000,140.406626
1860.0000,-0.067276
1861.0000,131.496576
1862.0000,48.126353
1863.0000,59.782947
1864.0000,20.476342
1865.0000,-86.287301
1866.0000,14.793780
1867.0000,14.261018
1868.0000,87.702551
1869.0000,-33.514241
1870.0000,66.756041
1871.0000,7.703350
1872.0000,81.212330
1873.0000,102.901772
1874.0000,48.326915
1875.0000,139.967930
1876.0000,65.379071
1877.0000,92.257157
1878.0000,95.591976
1879.0000,48.610993
1880.0000,-92.985180
1881.0000,94.709120
1882.0000,64.050512
1883.0000,-39.881283
1884.0000,31.142810
1885.0000,-47.152818
1886.0000,57.994006
1887.0000,51.172013
1888.0000,28.028969
1889.0000,20.650030
1890.0000,-106.505232
1891.0000,26.733492
1892.0000,110.212914
1893.0000,-12.138669
1894.0000,-112.159869
1895.0000,142.395312
1896.0000,70.249045
1897.0000,-10.837735
1898.0000,33.465995
1899.0000,3.190301
1900.0000,67.810405
1901.0000,61.398286
1902.0000,-85.948069
1903.0000,104.683321
1904.0000,-41.643837
1905.0000,71.320362
1906.0000,124.994421
1907.0000,42.482878
1908.0000,61.748101
1909.0000,-32.020331
1910.0000,51.896041
1911.0000,-33.934481
1912.0000,8.134993
1913.0000,49.400215
1914.0000,70.960557
1915.0000,1.038731
1916.0000,17.314713
1917.0000,63.657135
1918.0000,18.509161
1919.0000,-85.096628
1920.0000,-33.794241
1921.0000,117.200918
1922.0000,86.515034
1923.0000,-37.149945
1924.0000,-37.452182
1925.0000,65.420037
1926.0000,-63.292779
1927.0000,32.100188
1928.0000,112.260708
1929.0000,157.031662
1930.0000,66.700914
1931.0000,-36.188563
1932.0000,77.999754
1933.0000,-72.244627
1934.0000,40.474509
1935.0000,29.912739
1936.0000,29.277867
1937.0000,-2.083188
1938.0000,38.300240
1939.0000,12.052585
1940.0000,5.100031
1941.0000,33.536255
1942.0000,61.085869
1943.0000,4.598585
1944.0000,4.391423
1945.0000,73.503764
1946.0000,33.733591
1947.0000,134.699056
1948.0000,-5.448060
1949.0000,166.930294
1950.0000,155.603274
1951.0000,191.223458
1952.0000,6.696752
1953.0000,103.516326
1954.0000,0.107612
1955.0000,73.155768
1956.0000,26.009369
1957.0000,71.206398
1958.0000,93.025730
1959.0000,73.160308
1960.0000,14.639997
1961.0000,-40.756068
1962.0000,-5.132970
1963.0000,57.077870
1964.0000,89.720411
1965.0000,109.564487
1966.0000,49.529476
1967.0000,5.255907
1968.0000,37.947490
1969.0000,37.570902
1970.0000,61.576550
1971.0000,18.110549
1972.0000,50.785483
1973.0000,-10.262261
1974.0000,-46.877186
1975.0000,72.557347
1976.0000,31.885607
1977.0000,21.287763
1978.0000,79.730176
1979.0000,73.240832
1980.0000,60.181055
1981.0000,2.051844
1982.0000,136.712054
1983.0000,156.416040
1984.0000,149.293325
1985.0000,23.049760
1986.0000,-7.452670
1987.0000,70.340911
1988.0000,86.107267
1989.0000,-73.103129
1990.0000,-55.472240
1991.0000,58.061340
1992.0000,-33.355060
1993.0000,90.131553
1994.0000,17.064307
1995.0000,56.824463
1996.0000,152.871481
1997.0000,260.509013
1998.0000,62.406438
1999.0000,-40.770992
2000.0000,24.672468
