raman_shift_cm-1,intensity
200.0000,42.469639
201.0000,41.880747
202.0000,42.348129
203.0000,40.372136
204.0000,33.467739
205.0000,34.435204
206.0000,41.552716
207.0000,39.198310
208.0000,47.413873
209.0000,45.413646
210.0000,35.554691
211.0000,42.130003
212.0000,42.362053
213.0000,38.250321
214.0000,38.850558
215.0000,42.556793
216.0000,40.659269
217.0000,45.347847
218.0000,35.744402
219.0000,35.996123
220.0000,37.713482
221.0000,41.604154
222.0000,52.063045
223.0000,41.511145
224.0000,43.125742
225.0000,36.691524
226.0000,41.848930
227.0000,38.746133
228.0000,38.764137
229.0000,44.777132
230.0000,41.676662
231.0000,44.384035
232.0000,40.102375
233.0000,33.018908
234.0000,34.582862
235.0000,35.102153
236.0000,40.480776
237.0000,38.183870
238.0000,44.817637
239.0000,46.392857
240.0000,47.363786
241.0000,35.896884
242.0000,40.591176
243.0000,36.415629
244.0000,39.767492
245.0000,43.614713
246.0000,40.885418
247.0000,46.605924
248.0000,45.765377
249.0000,32.006157
250.0000,42.299703
251.0000,39.052991
252.0000,39.853177
253.0000,43.168754
254.0000,34.029270
255.0000,40.575438
256.0000,44.558440
257.0000,37.031480
258.0000,44.514329
259.0000,39.091294
260.0000,33.721639
261.0000,39.742800
262.0000,40.138880
263.0000,44.616899
264.0000,40.039390
265.0000,36.163596
266.0000,40.864509
267.0000,39.757911
268.0000,35.804720
269.0000,37.094181
270.0000,40.909434
271.0000,39.829455
272.0000,46.603282
273.0000,33.912668
274.0000,45.747936
275.0000,32.595521
276.0000,44.602388
277.0000,42.744126
278.0000,41.860139
279.0000,44.097586
280.0000,40.004334
281.0000,47.484577
282.0000,40.610053
283.0000,47.106447
284.0000,45.412506
285.0000,40.752718
286.0000,41.422057
287.0000,32.473563
288.0000,44.873882
289.0000,45.430966
290.0000,44.502953
291.0000,46.711221
292.0000,38.630406
293.0000,39.324517
294.0000,42.554553
295.0000,30.253520
296.0000,41.969301
297.0000,42.837199
298.0000,42.614505
299.0000,41.262898
300.0000,42.594731
301.0000,31.129015
302.0000,40.109531
303.0000,40.871935
304.0000,43.537771
305.0000,53.052595
306.0000,28.216491
307.0000,40.329087
308.0000,50.187586
309.0000,39.667387
310.0000,39.260642
311.0000,44.638538
312.0000,26.140332
313.0000,37.957542
314.0000,37.180765
315.0000,48.352596
316.0000,42.028133
317.0000,43.657037
318.0000,45.489742
319.0000,32.798686
320.0000,45.075202
321.0000,43.774099
322.0000,33.919763
323.0000,37.177497
324.0000,32.026105
325.0000,44.288150
326.0000,44.501032
327.0000,41.516482
328.0000,43.302725
329.0000,38.125674
330.0000,38.212057
331.0000,43.011281
332.0000,32.883665
333.0000,35.778625
334.0000,44.026188
335.0000,37.106024
336.0000,43.648965
337.0000,38.869245
338.0000,42.386966
339.0000,38.561699
340.0000,40.527900
341.0000,37.989385
342.0000,44.661362
343.0000,49.858290
344.0000,39.990184
345.0000,51.035053
346.0000,47.472704
347.0000,40.734823
348.0000,43.574710
349.0000,40.552395
350.0000,34.680803
351.0000,38.074083
352.0000,49.683633
353.0000,45.860996
354.0000,38.781704
355.0000,45.520079
356.0000,41.053828
357.0000,39.026872
358.0000,34.319143
359.0000,48.052076
360.0000,43.075631
361.0000,45.511628
362.0000,29.244286
363.0000,43.266829
364.0000,30.895114
365.0000,44.238242
366.0000,40.563614
367.0000,37.553911
368.0000,37.510266
369.0000,44.428103
370.0000,46.373228
371.0000,40.853188
372.0000,49.702382
373.0000,44.116683
374.0000,38.140246
375.0000,36.507910
376.0000,37.981333
377.0000,42.622145
378.0000,44.406893
379.0000,44.176584
380.0000,42.640977
381.0000,44.808940
382.0000,49.571723
383.0000,46.972553
384.0000,40.748158
385.0000,47.418640
386.0000,42.410457
387.0000,43.582499
388.0000,49.502474
389.0000,37.946916
390.0000,48.088733
391.0000,42.438493
392.0000,45.473071
393.0000,41.259798
394.0000,38.621361
395.0000,46.710328
396.0000,36.442079
397.0000,45.393252
398.0000,42.295818
399.0000,44.986097
400.0000,42.919524
401.0000,47.623427
402.0000,48.506380
403.0000,45.372540
404.0000,47.580288
405.0000,41.102094
406.0000,47.785022
407.0000,35.396597
408.0000,39.802169
409.0000,33.920203
410.0000,48.769585
411.0000,48.858686
412.0000,41.906934
413.0000,46.027730
414.0000,33.292385
415.0000,41.613454
416.0000,43.556465
417.0000,38.401280
418.0000,43.598412
419.0000,42.248829
420.0000,41.363532
421.0000,47.757466
422.0000,42.129502
423.0000,43.166677
424.0000,42.756329
425.0000,49.200670
426.0000,42.596003
427.0000,41.828205
428.0000,53.266165
429.0000,43.748322
430.0000,38.683845
431.0000,49.620342
432.0000,40.305205
433.0000,47.000002
434.0000,42.316270
435.0000,46.705598
436.0000,37.716005
437.0000,46.767567
438.0000,38.507055
439.0000,47.536216
440.0000,38.925638
441.0000,45.466365
442.0000,36.596189
443.0000,36.750811
444.0000,48.240942
445.0000,55.068870
446.0000,46.048269
447.0000,54.236116
448.0000,41.312692
449.0000,34.893712
450.0000,55.471098
451.0000,45.543401
452.0000,37.544219
453.0000,57.073644
454.0000,46.301692
455.0000,37.948632
456.0000,45.936956
457.0000,42.220477
458.0000,57.827620
459.0000,53.219727
460.0000,56.236286
461.0000,54.428119
462.0000,54.740307
463.0000,44.688307
464.0000,50.803407
465.0000,51.437766
466.0000,48.169636
467.0000,48.725275
468.0000,57.092516
469.0000,64.950625
470.0000,51.814650
471.0000,59.738911
472.0000,48.990662
473.0000,59.476437
474.0000,55.778408
475.0000,63.139173
476.0000,56.098804
477.0000,55.950766
478.0000,62.839908
479.0000,63.562207
480.0000,70.815168
481.0000,65.704163
482.0000,61.460468
483.0000,67.522104
484.0000,66.429066
485.0000,69.631781
486.0000,67.741088
487.0000,66.511157
488.0000,81.788145
489.0000,67.730444
490.0000,71.326095
491.0000,74.780125
492.0000,84.145104
493.0000,96.689775
494.0000,94.103156
495.0000,93.691210
496.0000,101.941487
497.0000,110.289662
498.0000,113.039848
499.0000,110.756789
500.0000,117.821217
501.0000,124.913738
502.0000,135.096870
503.0000,146.498185
504.0000,157.652072
505.0000,167.468241
506.0000,194.722619
507.0000,206.351982
508.0000,224.041736
509.0000,258.929394
510.0000,284.603748
511.0000,324.602809
512.0000,373.843256
513.0000,423.385727
514.0000,491.668241
515.0000,591.370010
516.0000,673.080329
517.0000,784.922749
518.0000,904.690228
519.0000,985.355436
520.0000,1030.579502
521.0000,1032.622202
522.0000,980.002943
523.0000,895.005595
524.0000,783.648516
525.0000,671.825841
526.0000,582.843779
527.0000,502.626518
528.0000,429.966867
529.0000,359.804845
530.0000,321.747953
531.0000,286.814744
532.0000,250.211349
533.0000,225.478615
534.0000,203.502248
535.0000,182.271138
536.0000,171.987382
537.0000,157.045871
538.0000,154.214952
539.0000,128.035485
540.0000,127.689643
541.0000,115.453971
542.0000,106.300904
543.0000,106.386922
544.0000,101.137891
545.0000,99.057194
546.0000,91.699836
547.0000,93.844635
548.0000,81.697750
549.0000,83.196334
550.0000,79.662961
551.0000,71.740849
552.0000,70.525447
553.0000,70.959340
554.0000,66.121284
555.0000,65.558882
556.0000,76.463041
557.0000,64.099013
558.0000,68.268730
559.0000,64.769374
560.0000,66.056686
561.0000,59.588806
562.0000,50.188945
563.0000,53.285780
564.0000,60.820918
565.0000,55.247890
566.0000,48.657526
567.0000,62.643062
568.0000,57.831685
569.0000,53.977375
570.0000,51.722078
571.0000,45.465327
572.0000,52.140664
573.0000,61.829229
574.0000,48.524511
575.0000,51.247651
576.0000,55.252441
577.0000,49.195664
578.0000,46.028269
579.0000,58.479032
580.0000,50.648087
581.0000,54.113407
582.0000,50.683486
583.0000,50.512598
584.0000,48.401497
585.0000,46.850384
586.0000,48.074444
587.0000,47.210619
588.0000,44.089815
589.0000,47.399580
590.0000,42.173055
591.0000,41.390902
592.0000,53.029705
593.0000,47.124107
594.0000,50.927407
595.0000,43.549100
596.0000,48.361759
597.0000,47.278396
598.0000,47.982842
599.0000,35.496205
600.0000,42.095128
601.0000,40.017174
602.0000,44.035183
603.0000,36.146826
604.0000,41.143510
605.0000,45.556227
606.0000,50.323143
607.0000,51.396778
608.0000,47.463385
609.0000,40.467423
610.0000,44.151419
611.0000,34.473411
612.0000,46.624423
613.0000,42.188816
614.0000,36.797526
615.0000,38.969077
616.0000,33.601132
617.0000,46.302819
618.0000,40.724753
619.0000,35.996325
620.0000,50.970428
621.0000,37.197039
622.0000,44.720065
623.0000,40.889799
624.0000,32.527648
625.0000,32.122782
626.0000,48.502091
627.0000,48.291565
628.0000,49.563030
629.0000,43.395660
630.0000,38.522823
631.0000,46.192215
632.0000,43.003281
633.0000,47.962534
634.0000,42.304967
635.0000,45.695942
636.0000,44.310068
637.0000,42.349031
638.0000,37.029348
639.0000,38.488164
640.0000,39.385530
641.0000,44.306228
642.0000,51.666938
643.0000,38.341087
644.0000,43.494150
645.0000,35.036822
646.0000,46.930695
647.0000,42.423360
648.0000,41.244994
649.0000,49.408433
650.0000,46.658535
651.0000,38.820595
652.0000,42.805060
653.0000,34.853098
654.0000,42.498464
655.0000,38.748601
656.0000,48.272986
657.0000,46.836884
658.0000,32.912490
659.0000,47.728662
660.0000,38.488088
661.0000,40.313184
662.0000,40.686873
663.0000,28.679356
664.0000,40.407207
665.0000,46.829802
666.0000,38.226779
667.0000,42.371074
668.0000,38.135588
669.0000,44.795902
670.0000,42.046508
671.0000,39.506166
672.0000,32.679684
673.0000,41.861184
674.0000,45.583464
675.0000,49.839110
676.0000,36.389426
677.0000,44.186477
678.0000,45.493583
679.0000,41.448217
680.0000,45.712879
681.0000,33.480434
682.0000,44.763475
683.0000,45.584546
684.0000,39.413485
685.0000,45.050655
686.0000,38.982743
687.0000,41.230299
688.0000,39.404469
689.0000,36.038870
690.0000,37.269671
691.0000,44.631911
692.0000,47.761509
693.0000,38.199131
694.0000,27.228001
695.0000,49.606828
696.0000,41.704874
697.0000,41.602160
698.0000,34.250847
699.0000,37.256892
700.0000,39.825950
701.0000,47.455420
702.0000,44.321798
703.0000,40.866250
704.0000,38.542175
705.0000,46.139108
706.0000,43.847504
707.0000,48.399107
708.0000,39.852245
709.0000,41.848012
710.0000,36.376012
711.0000,46.380059
712.0000,40.755626
713.0000,43.145163
714.0000,45.583147
715.0000,30.667897
716.0000,37.711751
717.0000,42.853746
718.0000,49.031365
719.0000,48.403988
720.0000,49.357310
721.0000,36.079275
722.0000,47.130699
723.0000,33.637765
724.0000,40.369878
725.0000,35.480946
726.0000,34.582634
727.0000,32.604588
728.0000,53.249095
729.0000,46.859181
730.0000,40.535458
731.0000,36.139629
732.0000,40.888033
733.0000,33.512478
734.0000,36.560002
735.0000,43.419264
736.0000,39.017164
737.0000,34.156273
738.0000,36.051021
739.0000,37.562212
740.0000,33.456336
741.0000,45.777683
742.0000,34.916699
743.0000,48.211932
744.0000,36.160947
745.0000,47.061187
746.0000,36.449522
747.0000,42.378917
748.0000,46.649114
749.0000,45.989801
750.0000,45.013316
751.0000,41.059631
752.0000,42.114491
753.0000,44.165335
754.0000,40.810178
755.0000,31.129077
756.0000,39.014871
757.0000,45.111793
758.0000,48.362199
759.0000,37.320215
760.0000,33.440168
761.0000,47.465335
762.0000,42.004595
763.0000,39.333536
764.0000,41.904058
765.0000,37.497288
766.0000,43.861673
767.0000,44.658941
768.0000,39.240863
769.0000,34.556856
770.0000,49.597969
771.0000,42.975124
772.0000,50.671516
773.0000,42.478814
774.0000,36.708148
775.0000,41.060512
776.0000,39.381760
777.0000,35.684321
778.0000,45.797640
779.0000,37.233495
780.0000,36.788935
781.0000,44.445524
782.0000,41.448955
783.0000,46.377412
784.0000,39.479852
785.0000,40.661083
786.0000,40.479598
787.0000,36.321305
788.0000,39.986925
789.0000,45.244398
790.0000,41.133879
791.0000,38.860407
792.0000,43.458138
793.0000,40.802201
794.0000,44.346180
795.0000,43.602421
796.0000,29.795015
797.0000,41.408601
798.0000,42.715091
799.0000,36.973344
800.0000,35.583696
801.0000,40.793896
802.0000,36.365849
803.0000,37.161411
804.0000,37.834235
805.0000,38.307610
806.0000,27.841481
807.0000,37.264023
808.0000,38.149180
809.0000,51.169650
810.0000,40.364724
811.0000,40.753557
812.0000,40.396031
813.0000,45.297642
814.0000,38.392291
815.0000,41.855298
816.0000,36.379688
817.0000,42.406383
818.0000,38.226321
819.0000,33.852118
820.0000,40.299525
821.0000,43.800574
822.0000,44.268747
823.0000,49.782349
824.0000,40.846452
825.0000,36.197761
826.0000,37.969204
827.0000,40.996170
828.0000,40.162779
829.0000,42.573404
830.0000,46.996843
831.0000,41.478266
832.0000,36.887234
833.0000,38.552031
834.0000,39.215331
835.0000,31.120218
836.0000,45.251319
837.0000,39.377467
838.0000,41.856330
839.0000,38.247332
840.0000,41.820885
841.0000,41.476542
842.0000,40.391127
843.0000,47.593136
844.0000,43.880756
845.0000,42.971336
846.0000,39.578496
847.0000,40.777893
848.0000,45.270375
849.0000,37.738428
850.0000,41.162532
851.0000,48.820348
852.0000,34.474849
853.0000,45.824149
854.0000,45.603870
855.0000,43.898360
856.0000,42.580428
857.0000,34.318007
858.0000,33.897693
859.0000,35.911949
860.0000,42.140914
861.0000,45.582534
862.0000,37.987725
863.0000,46.302236
864.0000,41.047423
865.0000,37.164738
866.0000,46.935995
867.0000,44.847885
868.0000,51.800197
869.0000,37.133159
870.0000,31.574998
871.0000,36.689821
872.0000,34.307588
873.0000,36.357868
874.0000,19.061817
875.0000,39.428486
876.0000,41.046198
877.0000,30.864545
878.0000,43.749109
879.0000,30.758497
880.0000,40.642277
881.0000,39.739340
882.0000,37.913209
883.0000,41.690073
884.0000,39.459742
885.0000,27.522656
886.0000,46.005771
887.0000,41.000202
888.0000,27.493437
889.0000,54.915923
890.0000,40.207205
891.0000,30.705322
892.0000,43.306973
893.0000,43.782315
894.0000,48.468223
895.0000,35.426528
896.0000,32.272944
897.0000,34.457246
898.0000,37.827355
899.0000,35.285984
900.0000,43.380748
901.0000,37.292891
902.0000,43.799039
903.0000,29.412910
904.0000,52.543015
905.0000,37.431346
906.0000,44.051290
907.0000,35.279578
908.0000,36.540858
909.0000,38.648102
910.0000,39.793499
911.0000,48.357692
912.0000,46.908004
913.0000,43.906199
914.0000,37.924174
915.0000,36.535289
916.0000,35.600119
917.0000,39.878507
918.0000,36.228615
919.0000,45.055330
920.0000,35.303429
921.0000,42.211434
922.0000,39.261424
923.0000,35.455352
924.0000,46.199519
925.0000,43.374624
926.0000,30.882599
927.0000,40.950354
928.0000,39.142993
929.0000,39.056605
930.0000,37.612440
931.0000,45.642461
932.0000,47.205535
933.0000,37.568887
934.0000,36.715816
935.0000,44.566983
936.0000,36.416203
937.0000,42.788585
938.0000,36.991879
939.0000,40.087461
940.0000,40.478358
941.0000,38.184777
942.0000,44.961514
943.0000,37.556569
944.0000,45.205882
945.0000,47.870017
946.0000,44.870535
947.0000,35.411152
948.0000,48.449011
949.0000,46.037561
950.0000,37.249402
951.0000,34.888546
952.0000,39.619692
953.0000,34.129867
954.0000,39.051612
955.0000,39.015005
956.0000,42.614371
957.0000,37.830914
958.0000,41.897545
959.0000,41.677051
960.0000,35.382450
961.0000,39.369939
962.0000,38.171386
963.0000,41.021904
964.0000,46.836663
965.0000,39.904557
966.0000,36.954962
967.0000,40.908238
968.0000,43.763140
969.0000,30.213829
970.0000,37.333448
971.0000,43.688532
972.0000,40.336264
973.0000,44.746996
974.0000,47.846442
975.0000,48.848187
976.0000,45.837824
977.0000,46.217207
978.0000,37.163617
979.0000,37.596234
980.0000,34.843625
981.0000,46.701335
982.0000,39.928915
983.0000,43.143999
984.0000,45.562533
985.0000,40.733365
986.0000,42.070250
987.0000,42.419128
988.0000,34.323867
989.0000,27.327184
990.0000,38.546463
991.0000,38.346185
992.0000,50.877465
993.0000,40.322927
994.0000,38.090644
995.0000,33.617900
996.0000,35.670013
997.0000,45.800378
998.0000,34.224931
999.0000,41.596642
1000.0000,56.211914
1001.0000,45.598970
1002.0000,36.567950
1003.0000,39.666634
1004.0000,39.488307
1005.0000,46.391425
1006.0000,53.080149
1007.0000,44.946184
1008.0000,40.461430
1009.0000,48.603270
1010.0000,35.723937
1011.0000,38.382870
1012.0000,37.566992
1013.0000,38.055577
1014.0000,48.757022
1015.0000,39.704418
1016.0000,36.755605
1017.0000,45.252622
1018.0000,39.244612
1019.0000,44.214797
1020.0000,44.067612
1021.0000,38.785699
1022.0000,43.104316
1023.0000,37.785646
1024.0000,42.166164
1025.0000,42.142658
1026.0000,43.352702
1027.0000,30.574378
1028.0000,38.521730
1029.0000,37.938901
1030.0000,36.377597
1031.0000,44.799260
1032.0000,34.591815
1033.0000,41.793469
1034.0000,29.394190
1035.0000,42.492856
1036.0000,38.237203
1037.0000,51.459237
1038.0000,36.172253
1039.0000,38.714139
1040.0000,37.914685
1041.0000,38.687976
1042.0000,48.131042
1043.0000,41.154932
1044.0000,46.900657
1045.0000,45.868102
1046.0000,37.619604
1047.0000,44.514381
1048.0000,48.800481
1049.0000,42.201424
1050.0000,36.844023
1051.0000,48.004990
1052.0000,43.139607
1053.0000,46.642168
1054.0000,32.620749
1055.0000,38.881149
1056.0000,34.021140
1057.0000,43.407380
1058.0000,42.328535
1059.0000,33.508878
1060.0000,38.828209
1061.0000,40.912940
1062.0000,40.325227
1063.0000,40.370349
1064.0000,30.625965
1065.0000,43.485566
1066.0000,34.276365
1067.0000,37.931721
1068.0000,43.620976
1069.0000,48.411428
1070.0000,29.596495
1071.0000,32.690292
1072.0000,33.907953
1073.0000,42.384697
1074.0000,34.712314
1075.0000,45.884772
1076.0000,42.994313
1077.0000,46.167314
1078.0000,45.820978
1079.0000,47.815314
1080.0000,43.200408
1081.0000,35.544031
1082.0000,39.507851
1083.0000,43.349850
1084.0000,38.038753
1085.0000,43.219545
1086.0000,39.595047
1087.0000,35.507451
1088.0000,47.193685
1089.0000,55.374160
1090.0000,28.898828
1091.0000,41.568536
1092.0000,40.092858
1093.0000,42.129436
1094.0000,46.326677
1095.0000,39.401817
1096.0000,48.613866
1097.0000,30.782168
1098.0000,42.814891
1099.0000,36.965439
1100.0000,42.738759
1101.0000,36.770457
1102.0000,37.268569
1103.0000,43.951445
1104.0000,41.999619
1105.0000,34.233647
1106.0000,38.527112
1107.0000,40.136419
1108.0000,41.135009
1109.0000,39.731789
1110.0000,35.370013
1111.0000,37.922243
1112.0000,35.090033
1113.0000,38.270260
1114.0000,44.723023
1115.0000,38.310346
1116.0000,30.857667
1117.0000,35.927855
1118.0000,44.072677
1119.0000,37.134342
1120.0000,49.827829
1121.0000,32.023652
1122.0000,33.420483
1123.0000,45.764818
1124.0000,41.485709
1125.0000,41.559360
1126.0000,30.388040
1127.0000,39.108137
1128.0000,43.107701
1129.0000,42.699633
1130.0000,33.935018
1131.0000,38.365444
1132.0000,40.363864
1133.0000,44.641507
1134.0000,38.566860
1135.0000,36.507053
1136.0000,37.243143
1137.0000,41.135646
1138.0000,35.188919
1139.0000,43.432786
1140.0000,37.526166
1141.0000,44.467264
1142.0000,27.246165
1143.0000,38.096621
1144.0000,41.776772
1145.0000,49.868999
1146.0000,41.951142
1147.0000,44.584964
1148.0000,46.080571
1149.0000,36.573090
1150.0000,32.526515
1151.0000,40.191063
1152.0000,40.150565
1153.0000,33.872994
1154.0000,39.310820
1155.0000,39.763718
1156.0000,36.900808
1157.0000,39.525664
1158.0000,41.443206
1159.0000,39.797498
1160.0000,38.743308
1161.0000,39.063948
1162.0000,38.355827
1163.0000,33.711102
1164.0000,38.784320
1165.0000,33.534706
1166.0000,40.073758
1167.0000,42.849677
1168.0000,38.061219
1169.0000,40.453027
1170.0000,44.080213
1171.0000,42.435409
1172.0000,36.818644
1173.0000,44.037574
1174.0000,42.147241
1175.0000,39.901818
1176.0000,30.724135
1177.0000,34.365791
1178.0000,34.033078
1179.0000,38.942791
1180.0000,35.214685
1181.0000,42.122976
1182.0000,38.310522
1183.0000,45.367394
1184.0000,39.597669
1185.0000,41.091758
1186.0000,36.662224
1187.0000,46.803008
1188.0000,34.013608
1189.0000,37.812841
1190.0000,50.745636
1191.0000,43.756189
1192.0000,27.831034
1193.0000,35.396866
1194.0000,43.206925
1195.0000,45.869714
1196.0000,49.887812
1197.0000,38.529510
1198.0000,39.807083
1199.0000,41.026620
1200.0000,43.222001
1201.0000,42.806141
1202.0000,36.618092
1203.0000,41.871950
1204.0000,29.332712
1205.0000,45.170998
1206.0000,39.111283
1207.0000,39.275921
1208.0000,41.046985
1209.0000,33.412854
1210.0000,37.918151
1211.0000,44.788575
1212.0000,43.021619
1213.0000,41.842228
1214.0000,46.211561
1215.0000,38.451688
1216.0000,35.433166
1217.0000,46.394525
1218.0000,35.288916
1219.0000,34.555118
1220.0000,35.956676
1221.0000,32.953287
1222.0000,55.345372
1223.0000,24.803590
1224.0000,43.216858
1225.0000,38.687339
1226.0000,57.130577
1227.0000,41.859765
1228.0000,47.207975
1229.0000,42.835165
1230.0000,43.471236
1231.0000,53.835656
1232.0000,36.828033
1233.0000,36.065602
1234.0000,35.391204
1235.0000,37.144101
1236.0000,42.511244
1237.0000,42.172425
1238.0000,40.219134
1239.0000,37.056374
1240.0000,37.068437
1241.0000,39.760586
1242.0000,40.514646
1243.0000,43.725460
1244.0000,35.539482
1245.0000,42.688355
1246.0000,44.447524
1247.0000,39.776101
1248.0000,39.921555
1249.0000,37.309932
1250.0000,40.128788
1251.0000,46.223735
1252.0000,38.749020
1253.0000,38.080824
1254.0000,42.089630
1255.0000,36.999760
1256.0000,40.987264
1257.0000,46.082268
1258.0000,43.971856
1259.0000,37.213561
1260.0000,36.505699
1261.0000,21.203074
1262.0000,31.850986
1263.0000,49.951152
1264.0000,34.382324
1265.0000,36.471649
1266.0000,39.539184
1267.0000,37.736548
1268.0000,38.463211
1269.0000,35.786291
1270.0000,34.348938
1271.0000,41.550371
1272.0000,33.965818
1273.0000,43.005034
1274.0000,42.086722
1275.0000,42.899545
1276.0000,46.859236
1277.0000,38.554695
1278.0000,38.340587
1279.0000,46.673687
1280.0000,41.495772
1281.0000,38.374394
1282.0000,40.952060
1283.0000,40.757276
1284.0000,40.602437
1285.0000,44.389665
1286.0000,44.900139
1287.0000,40.459195
1288.0000,38.913673
1289.0000,38.507304
1290.0000,43.519159
1291.0000,46.450453
1292.0000,38.717080
1293.0000,39.105572
1294.0000,34.559398
1295.0000,39.846524
1296.0000,41.809683
1297.0000,35.614376
1298.0000,40.898947
1299.0000,34.667272
1300.0000,37.464359
1301.0000,37.840923
1302.0000,48.365163
1303.0000,39.915403
1304.0000,44.848808
1305.0000,38.354162
1306.0000,45.719737
1307.0000,47.464198
1308.0000,42.367818
1309.0000,32.422329
1310.0000,37.311428
1311.0000,36.794970
1312.0000,45.081336
1313.0000,38.360071
1314.0000,40.845148
1315.0000,44.714725
1316.0000,44.625227
1317.0000,29.667730
1318.0000,46.989589
1319.0000,35.358361
1320.0000,43.059857
1321.0000,42.699221
1322.0000,41.784411
1323.0000,42.330501
1324.0000,31.806403
1325.0000,34.761670
1326.0000,37.056549
1327.0000,42.354534
1328.0000,29.916232
1329.0000,38.804747
1330.0000,37.440610
1331.0000,43.719851
1332.0000,44.798572
1333.0000,43.843268
1334.0000,35.826460
1335.0000,41.749072
1336.0000,41.583342
1337.0000,42.388868
1338.0000,39.265558
1339.0000,36.559124
1340.0000,43.404073
1341.0000,41.001899
1342.0000,39.659730
1343.0000,32.620104
1344.0000,31.541851
1345.0000,30.570588
1346.0000,37.110692
1347.0000,35.385425
1348.0000,38.079546
1349.0000,42.133522
1350.0000,46.032670
1351.0000,47.909504
1352.0000,36.213896
1353.0000,47.043643
1354.0000,39.742226
1355.0000,35.235652
1356.0000,43.325414
1357.0000,41.358434
1358.0000,39.068759
1359.0000,36.976842
1360.0000,34.291130
1361.0000,48.489142
1362.0000,42.844713
1363.0000,36.804634
1364.0000,50.994364
1365.0000,35.254241
1366.0000,42.897179
1367.0000,38.497353
1368.0000,40.512142
1369.0000,55.351712
1370.0000,43.481196
1371.0000,42.498744
1372.0000,37.559748
1373.0000,41.918950
1374.0000,43.391738
1375.0000,42.137209
1376.0000,33.390939
1377.0000,35.019074
1378.0000,44.114309
1379.0000,45.345400
1380.0000,40.827239
1381.0000,46.538667
1382.0000,46.058437
1383.0000,34.803450
1384.0000,35.493019
1385.0000,33.145182
1386.0000,36.195470
1387.0000,40.602096
1388.0000,38.141641
1389.0000,34.426130
1390.0000,47.297092
1391.0000,35.723699
1392.0000,46.534138
1393.0000,36.467644
1394.0000,44.679509
1395.0000,36.048941
1396.0000,48.386571
1397.0000,38.403925
1398.0000,49.887494
1399.0000,43.396652
1400.0000,43.795347
1401.0000,40.376470
1402.0000,38.547109
1403.0000,43.996369
1404.0000,36.035442
1405.0000,35.832214
1406.0000,38.443383
1407.0000,34.405713
1408.0000,38.538710
1409.0000,45.912003
1410.0000,43.502690
1411.0000,33.966152
1412.0000,34.608739
1413.0000,42.080678
1414.0000,34.369609
1415.0000,42.449519
1416.0000,35.308412
1417.0000,43.933814
1418.0000,53.040882
1419.0000,43.747065
1420.0000,41.289164
1421.0000,40.511573
1422.0000,36.767689
1423.0000,34.982806
1424.0000,36.755182
1425.0000,41.109671
1426.0000,38.353431
1427.0000,42.814949
1428.0000,48.603205
1429.0000,45.833209
1430.0000,38.494940
1431.0000,34.308525
1432.0000,38.408698
1433.0000,37.224936
1434.0000,41.008472
1435.0000,40.085743
1436.0000,41.981551
1437.0000,41.571418
1438.0000,36.782024
1439.0000,42.035227
1440.0000,47.063548
1441.0000,39.590980
1442.0000,35.046590
1443.0000,34.510509
1444.0000,37.022838
1445.0000,35.277418
1446.0000,43.489725
1447.0000,48.337154
1448.0000,39.827222
1449.0000,36.050246
1450.0000,28.624047
1451.0000,42.667536
1452.0000,40.911864
1453.0000,38.176096
1454.0000,41.984865
1455.0000,38.500878
1456.0000,38.549735
1457.0000,36.934225
1458.0000,42.409144
1459.0000,46.408573
1460.0000,35.397464
1461.0000,40.083900
1462.0000,43.271952
1463.0000,35.338032
1464.0000,33.793304
1465.0000,42.499152
1466.0000,38.171919
1467.0000,40.787349
1468.0000,44.393660
1469.0000,31.461089
1470.0000,41.340988
1471.0000,40.208468
1472.0000,38.432488
1473.0000,36.491227
1474.0000,38.147641
1475.0000,36.472049
1476.0000,46.835083
1477.0000,43.730691
1478.0000,43.767967
1479.0000,43.113826
1480.0000,45.141994
1481.0000,38.099306
1482.0000,35.710358
1483.0000,43.394286
1484.0000,33.636718
1485.0000,33.430530
1486.0000,41.172957
1487.0000,39.285116
1488.0000,34.814595
1489.0000,45.782164
1490.0000,41.088056
1491.0000,40.329820
1492.0000,34.924670
1493.0000,36.396210
1494.0000,43.392577
1495.0000,34.285977
1496.0000,40.074472
1497.0000,36.074522
1498.0000,45.105507
1499.0000,42.063536
1500.0000,42.867956
1501.0000,35.713929
1502.0000,45.163215
1503.0000,42.360385
1504.0000,39.047382
1505.0000,47.391218
1506.0000,37.381094
1507.0000,38.601525
1508.0000,40.569848
1509.0000,41.287410
1510.0000,40.520096
1511.0000,39.073400
1512.0000,38.127684
1513.0000,45.103046
1514.0000,38.412158
1515.0000,39.690791
1516.0000,32.055054
1517.0000,27.340765
1518.0000,33.132645
1519.0000,35.932594
1520.0000,33.261570
1521.0000,51.667338
1522.0000,33.422756
1523.0000,37.853959
1524.0000,37.027685
1525.0000,40.075573
1526.0000,36.200189
1527.0000,50.669486
1528.0000,42.339686
1529.0000,44.732353
1530.0000,39.118394
1531.0000,43.967005
1532.0000,43.584198
1533.0000,47.781839
1534.0000,39.489795
1535.0000,39.865650
1536.0000,40.204032
1537.0000,36.734597
1538.0000,40.775881
1539.0000,31.064090
1540.0000,44.476234
1541.0000,32.892036
1542.0000,37.018743
1543.0000,28.754543
1544.0000,37.906686
1545.0000,42.809672
1546.0000,37.834864
1547.0000,37.943841
1548.0000,47.344757
1549.0000,39.061858
1550.0000,28.326963
1551.0000,35.901965
1552.0000,43.187689
1553.0000,43.885859
1554.0000,25.202928
1555.0000,45.644009
1556.0000,35.047252
1557.0000,38.976927
1558.0000,43.420018
1559.0000,36.068579
1560.0000,36.057674
1561.0000,40.094881
1562.0000,42.554772
1563.0000,45.685260
1564.0000,32.685463
1565.0000,37.435637
1566.0000,31.356804
1567.0000,32.702387
1568.0000,46.673765
1569.0000,37.268212
1570.0000,34.798919
1571.0000,38.361226
1572.0000,36.714311
1573.0000,40.205582
1574.0000,40.921828
1575.0000,31.134335
1576.0000,43.418599
1577.0000,36.854914
1578.0000,38.324250
1579.0000,41.411125
1580.0000,39.316360
1581.0000,45.424309
1582.0000,42.561066
1583.0000,41.514245
1584.0000,47.688856
1585.0000,35.977659
1586.0000,34.828009
1587.0000,42.467389
1588.0000,48.949123
1589.0000,39.526332
1590.0000,43.443822
1591.0000,47.209771
1592.0000,35.128955
1593.0000,48.280438
1594.0000,46.069951
1595.0000,44.073626
1596.0000,32.020937
1597.0000,31.591904
1598.0000,36.051355
1599.0000,38.572751
1600.0000,38.228397
1601.0000,42.832867
1602.0000,43.689236
1603.0000,36.645935
1604.0000,46.666328
1605.0000,33.527456
1606.0000,45.021872
1607.0000,37.249262
1608.0000,44.530646
1609.0000,41.278040
1610.0000,40.361661
1611.0000,31.149868
1612.0000,43.723112
1613.0000,40.339904
1614.0000,37.484104
1615.0000,34.215966
1616.0000,39.488913
1617.0000,30.444848
1618.0000,39.495534
1619.0000,40.152861
1620.0000,47.581584
1621.0000,42.836499
1622.0000,48.146795
1623.0000,36.729196
1624.0000,34.390981
1625.0000,42.389221
1626.0000,42.993899
1627.0000,32.228444
1628.0000,41.529638
1629.0000,34.003909
1630.0000,28.744806
1631.0000,31.784117
1632.0000,38.707629
1633.0000,40.216756
1634.0000,40.532297
1635.0000,35.962589
1636.0000,41.559116
1637.0000,37.123060
1638.0000,48.646843
1639.0000,34.863781
1640.0000,37.423444
1641.0000,38.547360
1642.0000,34.778894
1643.0000,33.935416
1644.0000,43.738347
1645.0000,44.908428
1646.0000,44.415250
1647.0000,41.717432
1648.0000,39.842954
1649.0000,44.510261
1650.0000,35.683291
1651.0000,35.461629
1652.0000,32.829828
1653.0000,41.442505
1654.0000,38.022260
1655.0000,30.582461
1656.0000,37.053999
1657.0000,31.748018
1658.0000,47.895133
1659.0000,48.318071
1660.0000,34.144294
1661.0000,45.364556
1662.0000,37.758963
1663.0000,38.835422
1664.0000,46.463773
1665.0000,48.428396
1666.0000,41.307156
1667.0000,40.568473
1668.0000,39.882606
1669.0000,41.024132
1670.0000,36.061472
1671.0000,33.634364
1672.0000,43.376099
1673.0000,33.510040
1674.0000,31.815913
1675.0000,45.279451
1676.0000,39.979431
1677.0000,42.795737
1678.0000,54.623421
1679.0000,42.202924
1680.0000,36.535846
1681.0000,40.188390
1682.0000,43.113103
1683.0000,38.130767
1684.0000,34.704671
1685.0000,37.870523
1686.0000,39.318899
1687.0000,37.231489
1688.0000,41.747730
1689.0000,37.242564
1690.0000,42.173393
1691.0000,40.772667
1692.0000,35.920070
1693.0000,40.561829
1694.0000,29.301047
1695.0000,36.083314
1696.0000,43.967278
1697.0000,40.274785
1698.0000,34.191972
1699.0000,33.555688
1700.0000,40.011643
1701.0000,41.625017
1702.0000,42.386315
1703.0000,39.016105
1704.0000,36.503221
1705.0000,38.309430
1706.0000,38.498599
1707.0000,32.245381
1708.0000,38.844306
1709.0000,45.094811
1710.0000,47.468573
1711.0000,33.988627
1712.0000,36.958576
1713.0000,49.024516
1714.0000,37.770604
1715.0000,45.291978
1716.0000,33.027422
1717.0000,43.492698
1718.0000,40.509638
1719.0000,31.622327
1720.0000,38.960555
1721.0000,34.745021
1722.0000,37.386033
1723.0000,45.180535
1724.0000,35.709182
1725.0000,42.955107
1726.0000,29.188795
1727.0000,31.719498
1728.0000,38.952936
1729.0000,37.210619
1730.0000,39.484292
1731.0000,36.329516
1732.0000,40.390230
1733.0000,41.071153
1734.0000,40.131451
1735.0000,45.144400
1736.0000,40.060408
1737.0000,42.225233
1738.0000,37.997289
1739.0000,41.254040
1740.0000,46.056497
1741.0000,37.092811
1742.0000,41.872387
1743.0000,46.177842
1744.0000,37.045800
1745.0000,49.319209
1746.0000,40.686821
1747.0000,50.332015
1748.0000,43.611244
1749.0000,47.984867
1750.0000,40.988153
1751.0000,38.107628
1752.0000,31.612885
1753.0000,35.161600
1754.0000,39.222176
1755.0000,37.425500
1756.0000,38.841567
1757.0000,36.022267
1758.0000,35.712663
1759.0000,37.988959
1760.0000,38.761116
1761.0000,28.360609
1762.0000,41.860949
1763.0000,37.236102
1764.0000,47.217374
1765.0000,38.693206
1766.0000,34.694937
1767.0000,34.860987
1768.0000,36.742106
1769.0000,35.114957
1770.0000,39.094357
1771.0000,36.972418
1772.0000,36.437948
1773.0000,35.561291
1774.0000,49.847510
1775.0000,43.031323
1776.0000,47.054808
1777.0000,41.523590
1778.0000,39.174127
1779.0000,45.057194
1780.0000,35.074017
1781.0000,39.862496
1782.0000,43.126037
1783.0000,34.851133
1784.0000,40.065348
1785.0000,39.255653
1786.0000,34.620824
1787.0000,30.873896
1788.0000,40.685417
1789.0000,38.911748
1790.0000,47.445138
1791.0000,50.445640
1792.0000,34.213731
1793.0000,40.917331
1794.0000,37.132278
1795.0000,41.785494
1796.0000,41.854024
1797.0000,41.175517
1798.0000,35.649432
1799.0000,39.481622
1800.0000,37.037786
1801.0000,37.363121
1802.0000,38.743778
1803.0000,48.437883
1804.0000,37.019741
1805.0000,39.337832
1806.0000,38.245526
1807.0000,34.314525
1808.0000,42.079381
1809.0000,36.303336
1810.0000,39.037665
1811.0000,33.844776
1812.0000,33.625842
1813.0000,41.945359
1814.0000,40.384656
1815.0000,36.095497
1816.0000,40.055492
1817.0000,33.544642
1818.0000,44.564310
1819.0000,39.654105
1820.0000,39.279253
1821.0000,34.270785
1822.0000,47.987779
1823.0000,41.911648
1824.0000,35.100700
1825.0000,40.385786
1826.0000,34.170675
1827.0000,29.177370
1828.0000,39.189584
1829.0000,37.496473
1830.0000,36.205370
1831.0000,42.069054
1832.0000,31.758792
1833.0000,42.200409
1834.0000,44.255276
1835.0000,39.522887
1836.0000,42.053471
1837.0000,42.930235
1838.0000,29.811967
1839.0000,45.197677
1840.0000,36.834569
1841.0000,44.800993
1842.0000,39.480897
1843.0000,39.763029
1844.0000,42.257350
1845.0000,35.439914
1846.0000,41.134113
1847.0000,31.870296
1848.0000,35.789584
1849.0000,42.726015
1850.0000,41.557705
1851.0000,40.061736
1852.0000,39.434624
1853.0000,36.343599
1854.0000,40.778934
1855.0000,38.366457
1856.0000,40.832724
1857.0000,33.092310
1858.0000,36.087848
1859.0000,43.573838
1860.0000,29.299473
1861.0000,37.159193
1862.0000,42.620523
1863.0000,44.667385
1864.0000,35.211155
1865.0000,33.122088
1866.0000,44.099930
1867.0000,40.994452
1868.0000,54.065857
1869.0000,42.533879
1870.0000,42.796609
1871.0000,35.146689
1872.0000,27.442568
1873.0000,43.659798
1874.0000,34.269622
1875.0000,32.398365
1876.0000,43.160638
1877.0000,46.583576
1878.0000,44.142364
1879.0000,46.529965
1880.0000,47.201960
1881.0000,37.941278
1882.0000,48.285019
1883.0000,32.880213
1884.0000,38.366476
1885.0000,37.346899
1886.0000,39.176070
1887.0000,38.868314
1888.0000,41.368708
1889.0000,42.917019
1890.0000,39.690128
1891.0000,37.282881
1892.0000,30.993130
1893.0000,38.252768
1894.0000,45.505091
1895.0000,43.027109
1896.0000,46.889295
1897.0000,48.162733
1898.0000,35.786112
1899.0000,34.781059
1900.0000,38.510555
1901.0000,36.226683
1902.0000,44.775881
1903.0000,30.456664
1904.0000,42.323578
1905.0000,48.480694
1906.0000,36.230561
1907.0000,36.247500
1908.0000,38.281152
1909.0000,42.671652
1910.0000,44.673049
1911.0000,40.705198
1912.0000,45.650437
1913.0000,36.540549
1914.0000,41.051399
1915.0000,50.671959
1916.0000,45.260517
1917.0000,41.592233
1918.0000,39.915312
1919.0000,41.797816
1920.0000,43.652612
1921.0000,33.936015
1922.0000,38.970608
1923.0000,37.899779
1924.0000,34.825424
1925.0000,44.252802
1926.0000,37.674503
1927.0000,47.771196
1928.0000,32.448299
1929.0000,37.560705
1930.0000,42.208788
1931.0000,39.512374
1932.0000,40.583300
1933.0000,36.750672
1934.0000,36.648317
1935.0000,40.543785
1936.0000,36.487780
1937.0000,31.259967
1938.0000,41.017696
1939.0000,35.788475
1940.0000,37.633878
1941.0000,42.597519
1942.0000,36.039826
1943.0000,37.603483
1944.0000,46.079086
1945.0000,40.391170
1946.0000,39.805389
1947.0000,34.395827
1948.0000,35.115592
1949.0000,41.214841
1950.0000,49.673918
1951.0000,34.979782
1952.0000,45.701532
1953.0000,44.483665
1954.0000,43.710781
1955.0000,41.094610
1956.0000,44.127193
1957.0000,37.366932
1958.0000,38.456518
1959.0000,35.394732
1960.0000,48.378249
1961.0000,42.465241
1962.0000,38.349333
1963.0000,49.621481
1964.0000,42.236988
1965.0000,32.069748
1966.0000,37.215925
1967.0000,34.331563
1968.0000,34.589843
1969.0000,42.399647
1970.0000,38.387801
1971.0000,42.626257
1972.0000,39.438808
1973.0000,43.356397
1974.0000,51.706585
1975.0000,36.492789
1976.0000,33.230765
1977.0000,35.758519
1978.0000,41.994427
1979.0000,43.271129
1980.0000,30.971562
1981.0000,36.530317
1982.0000,42.760826
1983.0000,41.580466
1984.0000,41.361227
1985.0000,49.604550
1986.0000,32.405784
1987.0000,36.195656
1988.0000,32.647046
1989.0000,38.228176
1990.0000,32.212514
1991.0000,42.323233
1992.0000,42.746045
1993.0000,45.628469
1994.0000,39.017757
1995.0000,43.769105
1996.0000,43.895644
1997.0000,40.302775
1998.0000,39.224774
1999.0000,44.596535
2000.0000,40.157414
