raman_shift_cm-1,intensity
200.0000,45.782468
201.0000,40.838974
202.0000,39.544727
203.0000,51.273071
204.0000,36.880940
205.0000,43.406003
206.0000,49.028932
207.0000,33.897280
208.0000,45.911649
209.0000,38.113299
210.0000,38.924640
211.0000,44.420457
212.0000,27.377215
213.0000,46.005099
214.0000,46.013817
215.0000,37.369749
216.0000,50.194241
217.0000,57.103149
218.0000,51.961330
219.0000,42.079082
220.0000,42.851336
221.0000,24.241663
222.0000,40.039005
223.0000,35.399953
224.0000,47.543292
225.0000,38.864031
226.0000,38.340218
227.0000,32.538777
228.0000,39.949418
229.0000,46.077881
230.0000,48.055313
231.0000,23.008438
232.0000,29.454389
233.0000,41.979246
234.0000,37.217069
235.0000,28.298198
236.0000,30.098336
237.0000,40.014382
238.0000,34.845466
239.0000,36.898858
240.0000,49.273891
241.0000,51.044706
242.0000,32.837993
243.0000,20.149933
244.0000,36.740995
245.0000,33.297786
246.0000,33.358083
247.0000,31.258283
248.0000,52.881801
249.0000,39.717212
250.0000,43.378854
251.0000,42.442076
252.0000,43.496767
253.0000,51.928430
254.0000,54.252333
255.0000,60.127848
256.0000,40.092831
257.0000,36.103634
258.0000,29.828659
259.0000,44.024882
260.0000,45.896638
261.0000,37.203698
262.0000,24.281346
263.0000,34.877780
264.0000,41.010462
265.0000,27.191280
266.0000,40.959933
267.0000,47.899949
268.0000,53.330907
269.0000,24.944557
270.0000,40.777816
271.0000,35.112013
272.0000,27.600228
273.0000,22.798387
274.0000,34.094329
275.0000,33.365608
276.0000,40.342101
277.0000,49.085531
278.0000,52.241506
279.0000,39.387880
280.0000,36.730211
281.0000,53.044702
282.0000,44.872210
283.0000,41.046653
284.0000,58.035175
285.0000,51.861912
286.0000,27.369235
287.0000,43.316934
288.0000,47.579615
289.0000,35.108484
290.0000,36.097777
291.0000,51.635746
292.0000,27.259265
293.0000,29.098712
294.0000,31.056470
295.0000,46.648234
296.0000,40.606377
297.0000,42.041247
298.0000,39.623934
299.0000,35.258388
300.0000,34.941595
301.0000,40.606284
302.0000,36.995938
303.0000,35.575773
304.0000,52.550909
305.0000,52.083740
306.0000,23.688708
307.0000,48.702924
308.0000,48.527348
309.0000,42.501282
310.0000,47.625305
311.0000,31.137438
312.0000,41.726908
313.0000,33.624834
314.0000,38.959723
315.0000,49.462123
316.0000,31.603680
317.0000,33.517554
318.0000,43.255805
319.0000,38.546088
320.0000,31.093378
321.0000,50.716653
322.0000,36.648987
323.0000,42.522088
324.0000,45.477826
325.0000,56.723540
326.0000,47.431036
327.0000,32.225004
328.0000,39.568930
329.0000,44.422587
330.0000,37.284084
331.0000,36.643064
332.0000,37.193645
333.0000,42.096321
334.0000,52.037359
335.0000,45.100340
336.0000,29.093824
337.0000,48.633334
338.0000,43.602361
339.0000,50.770433
340.0000,46.723694
341.0000,28.194519
342.0000,44.053710
343.0000,32.825308
344.0000,49.110294
345.0000,46.056357
346.0000,37.980168
347.0000,21.553074
348.0000,36.684419
349.0000,31.970493
350.0000,35.028582
351.0000,35.319763
352.0000,33.080704
353.0000,40.780965
354.0000,38.666312
355.0000,35.685799
356.0000,38.618519
357.0000,31.414500
358.0000,38.460103
359.0000,43.788352
360.0000,35.295307
361.0000,43.489868
362.0000,49.770708
363.0000,30.441560
364.0000,44.225080
365.0000,39.642889
366.0000,37.235815
367.0000,29.496203
368.0000,37.655355
369.0000,30.932571
370.0000,27.855132
371.0000,43.048364
372.0000,32.648402
373.0000,55.359058
374.0000,44.604378
375.0000,24.715731
376.0000,43.657707
377.0000,40.467181
378.0000,46.790436
379.0000,49.266129
380.0000,27.455418
381.0000,47.745063
382.0000,32.305257
383.0000,55.237540
384.0000,33.649426
385.0000,47.955339
386.0000,46.632817
387.0000,33.608440
388.0000,30.084243
389.0000,30.203901
390.0000,45.541822
391.0000,31.943658
392.0000,37.986720
393.0000,44.359821
394.0000,39.779848
395.0000,39.985947
396.0000,41.601934
397.0000,37.174517
398.0000,34.521408
399.0000,33.876697
400.0000,40.005706
401.0000,40.207585
402.0000,37.954966
403.0000,45.558809
404.0000,33.965534
405.0000,45.006344
406.0000,39.801346
407.0000,41.749847
408.0000,45.746727
409.0000,45.328795
410.0000,45.090323
411.0000,53.020429
412.0000,36.771647
413.0000,24.018340
414.0000,40.211116
415.0000,39.541454
416.0000,34.905782
417.0000,40.593939
418.0000,36.382280
419.0000,46.190340
420.0000,27.165331
421.0000,28.576733
422.0000,34.969815
423.0000,40.254948
424.0000,35.520973
425.0000,32.516037
426.0000,43.792822
427.0000,35.586617
428.0000,32.644578
429.0000,46.215189
430.0000,39.742482
431.0000,37.095205
432.0000,46.990169
433.0000,48.010696
434.0000,33.720567
435.0000,43.709743
436.0000,61.957662
437.0000,45.366297
438.0000,26.809354
439.0000,44.871502
440.0000,44.186068
441.0000,42.811679
442.0000,37.415212
443.0000,32.659619
444.0000,26.895126
445.0000,47.275645
446.0000,37.477226
447.0000,56.717609
448.0000,35.682870
449.0000,35.355680
450.0000,40.897493
451.0000,52.790818
452.0000,32.333753
453.0000,40.053798
454.0000,29.783566
455.0000,40.920110
456.0000,54.809118
457.0000,31.875627
458.0000,50.974807
459.0000,28.415528
460.0000,43.966326
461.0000,38.394997
462.0000,26.798239
463.0000,30.580172
464.0000,44.448587
465.0000,39.340613
466.0000,34.599668
467.0000,26.818291
468.0000,48.376889
469.0000,40.882071
470.0000,35.315376
471.0000,53.833857
472.0000,45.314107
473.0000,28.051857
474.0000,38.130562
475.0000,51.651309
476.0000,36.794460
477.0000,58.194101
478.0000,34.167256
479.0000,28.173174
480.0000,37.497011
481.0000,49.277222
482.0000,44.697573
483.0000,42.963077
484.0000,40.525508
485.0000,36.284790
486.0000,44.786247
487.0000,40.026937
488.0000,48.770238
489.0000,33.189058
490.0000,30.974968
491.0000,44.972298
492.0000,33.417758
493.0000,34.821354
494.0000,52.365372
495.0000,47.519103
496.0000,37.179767
497.0000,46.165772
498.0000,51.689751
499.0000,45.981863
500.0000,37.150347
501.0000,39.638081
502.0000,34.146621
503.0000,42.997218
504.0000,29.802899
505.0000,29.234998
506.0000,37.034240
507.0000,34.583250
508.0000,32.246664
509.0000,52.836802
510.0000,31.238577
511.0000,22.424548
512.0000,38.776040
513.0000,45.537617
514.0000,36.950663
515.0000,47.438615
516.0000,41.779909
517.0000,38.310724
518.0000,45.922730
519.0000,42.137452
520.0000,42.000657
521.0000,45.539124
522.0000,55.911336
523.0000,39.217898
524.0000,35.213356
525.0000,36.150873
526.0000,36.473063
527.0000,45.294287
528.0000,34.338140
529.0000,33.654723
530.0000,29.106947
531.0000,25.392611
532.0000,41.787757
533.0000,35.360581
534.0000,33.075406
535.0000,34.558015
536.0000,40.655982
537.0000,49.947680
538.0000,43.003280
539.0000,38.266099
540.0000,33.440673
541.0000,39.100587
542.0000,39.999298
543.0000,34.194622
544.0000,32.607877
545.0000,33.581535
546.0000,37.585574
547.0000,41.474803
548.0000,28.004909
549.0000,40.676620
550.0000,36.058872
551.0000,45.023540
552.0000,39.540089
553.0000,32.323539
554.0000,63.694439
555.0000,56.304469
556.0000,47.957941
557.0000,40.410838
558.0000,39.628118
559.0000,39.928187
560.0000,53.077585
561.0000,42.834268
562.0000,36.857769
563.0000,29.021095
564.0000,37.369151
565.0000,40.924627
566.0000,44.753902
567.0000,45.339286
568.0000,48.795164
569.0000,38.188861
570.0000,39.065239
571.0000,42.221266
572.0000,44.850857
573.0000,39.648831
574.0000,27.881573
575.0000,38.189739
576.0000,42.851987
577.0000,49.325877
578.0000,35.580331
579.0000,49.864379
580.0000,48.103863
581.0000,43.726373
582.0000,39.015208
583.0000,40.433634
584.0000,23.765943
585.0000,38.476936
586.0000,50.179200
587.0000,44.277543
588.0000,41.180572
589.0000,39.768446
590.0000,47.050556
591.0000,37.392585
592.0000,41.997322
593.0000,36.258792
594.0000,39.838307
595.0000,32.444775
596.0000,53.800607
597.0000,59.091200
598.0000,34.083633
599.0000,36.247178
600.0000,48.056404
601.0000,39.246204
602.0000,46.700871
603.0000,47.406570
604.0000,33.534234
605.0000,47.034148
606.0000,47.691962
607.0000,39.474114
608.0000,40.144778
609.0000,45.312673
610.0000,37.110770
611.0000,38.653107
612.0000,53.408746
613.0000,47.078867
614.0000,50.813232
615.0000,53.099203
616.0000,32.190144
617.0000,25.884332
618.0000,37.528403
619.0000,34.418152
620.0000,38.524591
621.0000,47.680598
622.0000,32.801671
623.0000,44.054588
624.0000,40.774669
625.0000,38.966145
626.0000,58.090190
627.0000,46.564693
628.0000,37.564971
629.0000,34.174845
630.0000,43.552318
631.0000,31.181109
632.0000,32.734830
633.0000,53.869685
634.0000,48.756072
635.0000,43.612730
636.0000,54.690038
637.0000,36.642572
638.0000,48.979671
639.0000,36.386613
640.0000,49.671041
641.0000,39.338127
642.0000,28.306478
643.0000,25.685479
644.0000,53.806548
645.0000,37.457759
646.0000,30.545965
647.0000,57.029549
648.0000,54.412166
649.0000,48.286145
650.0000,39.189730
651.0000,35.743933
652.0000,38.444313
653.0000,43.322274
654.0000,39.962796
655.0000,48.892089
656.0000,35.556867
657.0000,45.786063
658.0000,46.739168
659.0000,38.744391
660.0000,48.013558
661.0000,45.828934
662.0000,33.399653
663.0000,40.546223
664.0000,54.250800
665.0000,50.025581
666.0000,53.523367
667.0000,46.466279
668.0000,48.369110
669.0000,43.342570
670.0000,33.090339
671.0000,62.469433
672.0000,45.144227
673.0000,56.315920
674.0000,49.853126
675.0000,52.043106
676.0000,58.649290
677.0000,50.407036
678.0000,48.669388
679.0000,57.747996
680.0000,48.981928
681.0000,56.124051
682.0000,57.032280
683.0000,59.330201
684.0000,50.905880
685.0000,56.912830
686.0000,50.750889
687.0000,71.665647
688.0000,60.500290
689.0000,63.686558
690.0000,77.918606
691.0000,63.657866
692.0000,59.354112
693.0000,71.962956
694.0000,76.492280
695.0000,83.290890
696.0000,73.894793
697.0000,76.544934
698.0000,76.652546
699.0000,92.728145
700.0000,101.833108
701.0000,120.100924
702.0000,122.152762
703.0000,123.361071
704.0000,145.126685
705.0000,150.034602
706.0000,188.681586
707.0000,218.496695
708.0000,258.501102
709.0000,261.379388
710.0000,313.432046
711.0000,350.767621
712.0000,345.291471
713.0000,344.165382
714.0000,303.753161
715.0000,266.410749
716.0000,235.368882
717.0000,199.358710
718.0000,189.555695
719.0000,173.155705
720.0000,145.115017
721.0000,136.578395
722.0000,120.351023
723.0000,100.730033
724.0000,96.601120
725.0000,89.183239
726.0000,78.941169
727.0000,88.618226
728.0000,71.346800
729.0000,86.195611
730.0000,64.508514
731.0000,84.684962
732.0000,67.574578
733.0000,63.610425
734.0000,49.906202
735.0000,68.152688
736.0000,64.264872
737.0000,62.726376
738.0000,57.406239
739.0000,55.248110
740.0000,38.982948
741.0000,61.003172
742.0000,54.230964
743.0000,47.578258
744.0000,52.849339
745.0000,59.210883
746.0000,60.083019
747.0000,40.742657
748.0000,49.618573
749.0000,42.751217
750.0000,56.148617
751.0000,49.808733
752.0000,40.130041
753.0000,48.638747
754.0000,52.788871
755.0000,42.303677
756.0000,39.929571
757.0000,35.736121
758.0000,48.114858
759.0000,51.130404
760.0000,49.544882
761.0000,44.732020
762.0000,59.388599
763.0000,48.751205
764.0000,48.294553
765.0000,47.525651
766.0000,44.602315
767.0000,52.323991
768.0000,44.900057
769.0000,35.621791
770.0000,43.743810
771.0000,33.841613
772.0000,48.495396
773.0000,51.625882
774.0000,34.177148
775.0000,43.999640
776.0000,40.902533
777.0000,27.871145
778.0000,41.013889
779.0000,33.398330
780.0000,42.671763
781.0000,52.384454
782.0000,46.784649
783.0000,39.675251
784.0000,34.094720
785.0000,29.562960
786.0000,29.134668
787.0000,32.686345
788.0000,37.809849
789.0000,40.766904
790.0000,38.026411
791.0000,46.725865
792.0000,38.897997
793.0000,46.304369
794.0000,42.515550
795.0000,33.504788
796.0000,51.384549
797.0000,46.827046
798.0000,28.280073
799.0000,38.785745
800.0000,45.747284
801.0000,30.251793
802.0000,58.692047
803.0000,53.586752
804.0000,41.907404
805.0000,54.855645
806.0000,30.429585
807.0000,33.689393
808.0000,37.075106
809.0000,50.171915
810.0000,22.868554
811.0000,38.624871
812.0000,48.325362
813.0000,51.556973
814.0000,48.639168
815.0000,30.495938
816.0000,39.591760
817.0000,47.034538
818.0000,32.876383
819.0000,28.365146
820.0000,41.793027
821.0000,50.885992
822.0000,35.840681
823.0000,37.347867
824.0000,53.285292
825.0000,49.368055
826.0000,38.892998
827.0000,42.099029
828.0000,34.094643
829.0000,39.079378
830.0000,41.839138
831.0000,49.945130
832.0000,31.023018
833.0000,20.436048
834.0000,35.324789
835.0000,43.670162
836.0000,51.631259
837.0000,51.077853
838.0000,43.619912
839.0000,26.233984
840.0000,49.447736
841.0000,55.045513
842.0000,43.188926
843.0000,29.595888
844.0000,43.421490
845.0000,54.111078
846.0000,42.108444
847.0000,42.688956
848.0000,33.652429
849.0000,42.494274
850.0000,44.612995
851.0000,40.460756
852.0000,31.334765
853.0000,39.639215
854.0000,52.907609
855.0000,47.858657
856.0000,33.308580
857.0000,38.075194
858.0000,36.790972
859.0000,45.255797
860.0000,35.721188
861.0000,23.146283
862.0000,44.371270
863.0000,28.815218
864.0000,49.019692
865.0000,32.648942
866.0000,34.049921
867.0000,33.777842
868.0000,39.243538
869.0000,25.846211
870.0000,40.456525
871.0000,57.709782
872.0000,30.684926
873.0000,44.717151
874.0000,33.412586
875.0000,50.394711
876.0000,41.470394
877.0000,29.969246
878.0000,26.012306
879.0000,50.086342
880.0000,37.391778
881.0000,47.941141
882.0000,32.054296
883.0000,33.709368
884.0000,40.563916
885.0000,40.939060
886.0000,37.303669
887.0000,54.348706
888.0000,28.202599
889.0000,39.597490
890.0000,30.671217
891.0000,41.177997
892.0000,45.451634
893.0000,40.747394
894.0000,44.510542
895.0000,52.667560
896.0000,59.610512
897.0000,45.165574
898.0000,44.617865
899.0000,43.292586
900.0000,53.445718
901.0000,41.682098
902.0000,35.483097
903.0000,45.804295
904.0000,55.051441
905.0000,49.321561
906.0000,34.662892
907.0000,34.434812
908.0000,54.158248
909.0000,42.173617
910.0000,54.612292
911.0000,31.134995
912.0000,31.268370
913.0000,46.201437
914.0000,32.660923
915.0000,37.109395
916.0000,57.568879
917.0000,38.849843
918.0000,37.383960
919.0000,42.763594
920.0000,39.428000
921.0000,27.909156
922.0000,42.708376
923.0000,45.716646
924.0000,40.790934
925.0000,43.344460
926.0000,35.953590
927.0000,52.005433
928.0000,39.356742
929.0000,36.719358
930.0000,40.189578
931.0000,48.321725
932.0000,46.147778
933.0000,39.122661
934.0000,44.770823
935.0000,43.850318
936.0000,47.018627
937.0000,28.198316
938.0000,33.695055
939.0000,59.258222
940.0000,33.048336
941.0000,34.061535
942.0000,47.179087
943.0000,43.740531
944.0000,57.830071
945.0000,45.334050
946.0000,39.431220
947.0000,38.402717
948.0000,50.015546
949.0000,46.776501
950.0000,51.801919
951.0000,29.711538
952.0000,50.485869
953.0000,35.357785
954.0000,31.933528
955.0000,43.620848
956.0000,48.055398
957.0000,34.425382
958.0000,38.734169
959.0000,51.783268
960.0000,43.767476
961.0000,54.005505
962.0000,38.177355
963.0000,37.353558
964.0000,52.054738
965.0000,39.166054
966.0000,47.573065
967.0000,38.459776
968.0000,46.977798
969.0000,51.235880
970.0000,48.898047
971.0000,43.960553
972.0000,51.981241
973.0000,33.069390
974.0000,29.244762
975.0000,31.947093
976.0000,34.729859
977.0000,48.927236
978.0000,54.265526
979.0000,25.066501
980.0000,38.223755
981.0000,53.533598
982.0000,26.559113
983.0000,24.403370
984.0000,31.742270
985.0000,42.328075
986.0000,48.598247
987.0000,42.091765
988.0000,50.559575
989.0000,37.755885
990.0000,48.544342
991.0000,54.582165
992.0000,50.951548
993.0000,57.833933
994.0000,37.621962
995.0000,43.105647
996.0000,59.263576
997.0000,54.546025
998.0000,31.044305
999.0000,41.089433
1000.0000,50.182811
1001.0000,49.625555
1002.0000,48.530976
1003.0000,54.241670
1004.0000,35.988507
1005.0000,41.211200
1006.0000,34.228404
1007.0000,35.522550
1008.0000,42.057320
1009.0000,54.394356
1010.0000,45.267421
1011.0000,50.425321
1012.0000,47.527363
1013.0000,40.122259
1014.0000,49.899227
1015.0000,53.425974
1016.0000,54.978075
1017.0000,55.801354
1018.0000,35.333580
1019.0000,31.872036
1020.0000,49.305773
1021.0000,58.407478
1022.0000,38.605571
1023.0000,60.547328
1024.0000,49.182135
1025.0000,57.737754
1026.0000,45.770448
1027.0000,50.583973
1028.0000,49.457410
1029.0000,50.365435
1030.0000,55.654143
1031.0000,58.071322
1032.0000,64.758859
1033.0000,52.982151
1034.0000,56.365566
1035.0000,60.867140
1036.0000,57.972470
1037.0000,51.447571
1038.0000,49.208507
1039.0000,55.374303
1040.0000,63.217133
1041.0000,56.325120
1042.0000,50.208611
1043.0000,49.301288
1044.0000,55.235168
1045.0000,78.415221
1046.0000,52.621812
1047.0000,70.343430
1048.0000,40.202750
1049.0000,56.489981
1050.0000,78.941175
1051.0000,66.542386
1052.0000,72.327165
1053.0000,78.030288
1054.0000,77.950452
1055.0000,81.652205
1056.0000,80.457671
1057.0000,90.605111
1058.0000,78.280525
1059.0000,81.335435
1060.0000,97.121794
1061.0000,97.955870
1062.0000,84.769608
1063.0000,107.188714
1064.0000,123.089539
1065.0000,106.069765
1066.0000,127.766465
1067.0000,132.072976
1068.0000,132.746008
1069.0000,141.050187
1070.0000,152.807007
1071.0000,172.781468
1072.0000,202.483778
1073.0000,217.982247
1074.0000,233.666859
1075.0000,268.900194
1076.0000,306.538070
1077.0000,342.245704
1078.0000,394.358658
1079.0000,470.138387
1080.0000,534.158677
1081.0000,620.686120
1082.0000,715.626554
1083.0000,843.487329
1084.0000,942.063455
1085.0000,1009.687630
1086.0000,1045.868625
1087.0000,1027.204915
1088.0000,941.255358
1089.0000,834.307885
1090.0000,734.746472
1091.0000,633.307936
1092.0000,532.334651
1093.0000,462.396704
1094.0000,408.641287
1095.0000,350.204115
1096.0000,314.424872
1097.0000,268.285410
1098.0000,241.249104
1099.0000,220.803971
1100.0000,184.320534
1101.0000,182.806871
1102.0000,158.123757
1103.0000,147.753879
1104.0000,133.872294
1105.0000,132.962642
1106.0000,135.347757
1107.0000,114.027757
1108.0000,104.326479
1109.0000,100.009655
1110.0000,88.682478
1111.0000,93.309521
1112.0000,88.628210
1113.0000,83.225445
1114.0000,76.478370
1115.0000,89.058493
1116.0000,76.377042
1117.0000,62.527737
1118.0000,61.089885
1119.0000,76.112214
1120.0000,76.689818
1121.0000,71.233588
1122.0000,72.523637
1123.0000,73.152658
1124.0000,58.591326
1125.0000,58.357072
1126.0000,56.602722
1127.0000,58.517217
1128.0000,49.524250
1129.0000,64.379476
1130.0000,65.699569
1131.0000,61.373686
1132.0000,59.913045
1133.0000,68.184758
1134.0000,59.811523
1135.0000,53.272552
1136.0000,63.372247
1137.0000,59.873767
1138.0000,54.542485
1139.0000,50.527480
1140.0000,68.316493
1141.0000,60.010366
1142.0000,56.015718
1143.0000,50.505275
1144.0000,54.963613
1145.0000,38.742342
1146.0000,44.772381
1147.0000,48.188641
1148.0000,75.413245
1149.0000,57.523792
1150.0000,55.091615
1151.0000,53.156158
1152.0000,42.511667
1153.0000,42.854847
1154.0000,32.258406
1155.0000,40.462146
1156.0000,43.079729
1157.0000,48.944141
1158.0000,48.581668
1159.0000,35.460778
1160.0000,46.152770
1161.0000,53.363268
1162.0000,40.965801
1163.0000,36.975250
1164.0000,36.218180
1165.0000,62.868445
1166.0000,25.229084
1167.0000,47.784508
1168.0000,57.906492
1169.0000,47.949363
1170.0000,28.265450
1171.0000,40.005892
1172.0000,47.673276
1173.0000,51.848984
1174.0000,33.522358
1175.0000,47.380927
1176.0000,51.416558
1177.0000,56.006385
1178.0000,40.230627
1179.0000,40.857637
1180.0000,43.760928
1181.0000,41.700417
1182.0000,45.275486
1183.0000,34.805648
1184.0000,44.360475
1185.0000,45.715173
1186.0000,31.121479
1187.0000,48.865701
1188.0000,48.122527
1189.0000,53.718878
1190.0000,51.388885
1191.0000,41.072315
1192.0000,37.136574
1193.0000,47.932620
1194.0000,49.253206
1195.0000,36.962050
1196.0000,49.226216
1197.0000,50.369893
1198.0000,34.261338
1199.0000,51.857147
1200.0000,55.247509
1201.0000,69.803973
1202.0000,36.638825
1203.0000,41.557188
1204.0000,43.368759
1205.0000,47.997940
1206.0000,34.659461
1207.0000,48.886182
1208.0000,40.793478
1209.0000,32.611692
1210.0000,58.099487
1211.0000,38.946930
1212.0000,40.828512
1213.0000,38.533112
1214.0000,40.796559
1215.0000,25.896626
1216.0000,44.743432
1217.0000,40.832559
1218.0000,40.083796
1219.0000,45.197185
1220.0000,34.439148
1221.0000,25.934587
1222.0000,64.839640
1223.0000,40.272353
1224.0000,34.039366
1225.0000,39.170397
1226.0000,43.413403
1227.0000,40.255285
1228.0000,45.055017
1229.0000,38.160274
1230.0000,30.632485
1231.0000,32.952892
1232.0000,32.689227
1233.0000,44.914474
1234.0000,43.491938
1235.0000,37.809058
1236.0000,48.103902
1237.0000,49.117552
1238.0000,38.291918
1239.0000,31.592390
1240.0000,45.427105
1241.0000,40.132223
1242.0000,46.343692
1243.0000,46.319052
1244.0000,47.444382
1245.0000,45.621052
1246.0000,33.983263
1247.0000,47.545138
1248.0000,40.412525
1249.0000,47.140454
1250.0000,31.689745
1251.0000,45.370286
1252.0000,42.454969
1253.0000,32.176460
1254.0000,51.802975
1255.0000,20.296394
1256.0000,33.282501
1257.0000,31.849846
1258.0000,42.574139
1259.0000,37.945288
1260.0000,49.452929
1261.0000,39.475732
1262.0000,43.133993
1263.0000,53.121588
1264.0000,40.292438
1265.0000,57.538669
1266.0000,34.121688
1267.0000,47.452342
1268.0000,50.540952
1269.0000,33.312235
1270.0000,50.347135
1271.0000,42.930468
1272.0000,33.188679
1273.0000,45.908435
1274.0000,43.574584
1275.0000,33.070856
1276.0000,41.222515
1277.0000,48.379110
1278.0000,39.226572
1279.0000,36.522573
1280.0000,39.500305
1281.0000,42.518474
1282.0000,46.760029
1283.0000,35.921572
1284.0000,37.907165
1285.0000,38.621498
1286.0000,45.419301
1287.0000,39.733761
1288.0000,62.372725
1289.0000,49.117824
1290.0000,28.694144
1291.0000,42.675239
1292.0000,34.584071
1293.0000,53.754818
1294.0000,36.615322
1295.0000,34.314874
1296.0000,40.330253
1297.0000,35.668178
1298.0000,40.529832
1299.0000,40.192798
1300.0000,42.452423
1301.0000,41.029238
1302.0000,41.184256
1303.0000,48.711791
1304.0000,48.300961
1305.0000,44.412797
1306.0000,46.574415
1307.0000,39.113977
1308.0000,43.437616
1309.0000,42.681494
1310.0000,39.967945
1311.0000,30.454751
1312.0000,37.103680
1313.0000,23.462664
1314.0000,37.748589
1315.0000,31.698317
1316.0000,44.237549
1317.0000,47.807482
1318.0000,43.497400
1319.0000,38.597484
1320.0000,57.338701
1321.0000,42.876154
1322.0000,26.214557
1323.0000,51.325777
1324.0000,38.314368
1325.0000,41.979050
1326.0000,38.810928
1327.0000,38.495810
1328.0000,50.735598
1329.0000,46.690433
1330.0000,46.858027
1331.0000,34.516684
1332.0000,47.135372
1333.0000,31.718494
1334.0000,38.127693
1335.0000,32.011691
1336.0000,43.217123
1337.0000,46.879919
1338.0000,50.428056
1339.0000,47.490999
1340.0000,51.109899
1341.0000,44.088642
1342.0000,60.504624
1343.0000,40.888988
1344.0000,34.886750
1345.0000,59.184716
1346.0000,36.591938
1347.0000,44.524194
1348.0000,36.610943
1349.0000,38.583099
1350.0000,38.537152
1351.0000,41.415994
1352.0000,38.034128
1353.0000,43.563205
1354.0000,41.624586
1355.0000,40.946895
1356.0000,49.301828
1357.0000,52.670480
1358.0000,41.644344
1359.0000,22.526744
1360.0000,33.736605
1361.0000,38.427033
1362.0000,41.195080
1363.0000,33.568847
1364.0000,45.959049
1365.0000,40.545634
1366.0000,40.990077
1367.0000,35.186132
1368.0000,21.484143
1369.0000,34.523723
1370.0000,54.068839
1371.0000,18.951834
1372.0000,24.076313
1373.0000,39.863323
1374.0000,57.502249
1375.0000,38.661730
1376.0000,34.946533
1377.0000,44.459568
1378.0000,36.766759
1379.0000,35.135045
1380.0000,47.420688
1381.0000,25.860933
1382.0000,40.446726
1383.0000,51.506087
1384.0000,42.484073
1385.0000,58.882748
1386.0000,42.457352
1387.0000,33.679815
1388.0000,31.788189
1389.0000,45.105290
1390.0000,35.177958
1391.0000,30.033429
1392.0000,48.368702
1393.0000,22.273776
1394.0000,48.208849
1395.0000,51.503094
1396.0000,62.419585
1397.0000,35.839034
1398.0000,44.111723
1399.0000,44.246398
1400.0000,57.507199
1401.0000,40.030790
1402.0000,47.586434
1403.0000,47.205453
1404.0000,54.963983
1405.0000,44.244896
1406.0000,43.526568
1407.0000,57.419675
1408.0000,51.997041
1409.0000,53.464402
1410.0000,55.656478
1411.0000,44.921896
1412.0000,49.991760
1413.0000,57.493259
1414.0000,56.996657
1415.0000,67.269980
1416.0000,62.404539
1417.0000,67.605753
1418.0000,70.137639
1419.0000,83.275809
1420.0000,68.388334
1421.0000,77.151432
1422.0000,77.142260
1423.0000,70.700603
1424.0000,85.123404
1425.0000,86.579216
1426.0000,102.515391
1427.0000,121.750291
1428.0000,137.741145
1429.0000,155.757108
1430.0000,157.486557
1431.0000,193.426911
1432.0000,215.892412
1433.0000,233.761096
1434.0000,232.099878
1435.0000,243.297643
1436.0000,256.950667
1437.0000,236.114298
1438.0000,222.159755
1439.0000,188.870189
1440.0000,168.684512
1441.0000,149.181725
1442.0000,145.304024
1443.0000,114.600801
1444.0000,101.486075
1445.0000,96.676693
1446.0000,80.565996
1447.0000,81.994977
1448.0000,87.663480
1449.0000,72.727113
1450.0000,80.667925
1451.0000,63.675311
1452.0000,71.776910
1453.0000,42.671132
1454.0000,63.401839
1455.0000,60.997934
1456.0000,61.503632
1457.0000,42.491312
1458.0000,64.958132
1459.0000,56.112520
1460.0000,60.554790
1461.0000,58.135986
1462.0000,49.074529
1463.0000,46.928936
1464.0000,64.949346
1465.0000,57.667715
1466.0000,41.430629
1467.0000,58.478208
1468.0000,57.169832
1469.0000,34.195528
1470.0000,46.474096
1471.0000,35.652220
1472.0000,43.948892
1473.0000,52.939279
1474.0000,36.888273
1475.0000,47.987751
1476.0000,35.923662
1477.0000,47.335114
1478.0000,31.053110
1479.0000,51.781974
1480.0000,40.059229
1481.0000,37.926735
1482.0000,38.863562
1483.0000,49.288844
1484.0000,50.536910
1485.0000,52.398390
1486.0000,44.262695
1487.0000,45.434102
1488.0000,48.097566
1489.0000,44.870167
1490.0000,37.176708
1491.0000,41.061855
1492.0000,54.622804
1493.0000,46.253816
1494.0000,29.753552
1495.0000,29.960285
1496.0000,36.180180
1497.0000,40.706350
1498.0000,43.328909
1499.0000,41.370022
1500.0000,44.157705
1501.0000,48.436040
1502.0000,37.612443
1503.0000,47.355931
1504.0000,60.528089
1505.0000,35.913878
1506.0000,37.200697
1507.0000,42.864307
1508.0000,43.992099
1509.0000,32.240950
1510.0000,56.753810
1511.0000,43.189696
1512.0000,35.338210
1513.0000,45.085076
1514.0000,54.328242
1515.0000,33.123841
1516.0000,48.947083
1517.0000,60.208239
1518.0000,41.260269
1519.0000,38.723025
1520.0000,55.524552
1521.0000,47.829812
1522.0000,54.493414
1523.0000,46.837491
1524.0000,41.548377
1525.0000,33.630827
1526.0000,50.158685
1527.0000,54.264776
1528.0000,47.052613
1529.0000,52.744667
1530.0000,41.677484
1531.0000,40.731371
1532.0000,35.076548
1533.0000,29.964975
1534.0000,33.365036
1535.0000,45.371222
1536.0000,58.271285
1537.0000,44.556899
1538.0000,44.538434
1539.0000,43.539263
1540.0000,47.486002
1541.0000,17.122711
1542.0000,31.101837
1543.0000,28.964572
1544.0000,42.710792
1545.0000,35.280367
1546.0000,47.530995
1547.0000,49.185387
1548.0000,38.618710
1549.0000,38.428055
1550.0000,50.516626
1551.0000,45.797912
1552.0000,28.379430
1553.0000,34.916577
1554.0000,50.094599
1555.0000,32.920702
1556.0000,35.319202
1557.0000,35.678088
1558.0000,24.889129
1559.0000,32.823161
1560.0000,35.006588
1561.0000,55.821957
1562.0000,31.269430
1563.0000,41.854461
1564.0000,43.418806
1565.0000,32.017652
1566.0000,53.241445
1567.0000,37.537537
1568.0000,48.355195
1569.0000,43.560273
1570.0000,41.490138
1571.0000,47.140313
1572.0000,42.737432
1573.0000,42.833267
1574.0000,35.176674
1575.0000,39.992341
1576.0000,42.699743
1577.0000,36.428008
1578.0000,46.095976
1579.0000,43.077574
1580.0000,30.383476
1581.0000,46.208975
1582.0000,36.881411
1583.0000,40.965168
1584.0000,54.952762
1585.0000,50.197350
1586.0000,53.076833
1587.0000,45.284022
1588.0000,47.619077
1589.0000,37.795534
1590.0000,37.911305
1591.0000,46.275752
1592.0000,22.722170
1593.0000,46.340350
1594.0000,38.687257
1595.0000,37.081544
1596.0000,46.930998
1597.0000,26.187613
1598.0000,33.040137
1599.0000,29.945937
1600.0000,32.959946
1601.0000,53.018200
1602.0000,45.702705
1603.0000,48.137336
1604.0000,44.714912
1605.0000,25.819548
1606.0000,28.227990
1607.0000,43.319877
1608.0000,54.453438
1609.0000,34.540376
1610.0000,49.887180
1611.0000,39.280111
1612.0000,43.543760
1613.0000,38.152490
1614.0000,29.467437
1615.0000,54.822951
1616.0000,36.420215
1617.0000,31.327751
1618.0000,40.980977
1619.0000,42.206084
1620.0000,54.538033
1621.0000,38.553876
1622.0000,27.282335
1623.0000,47.244598
1624.0000,32.744477
1625.0000,43.581100
1626.0000,31.383944
1627.0000,48.185131
1628.0000,39.400907
1629.0000,32.642909
1630.0000,40.564794
1631.0000,42.635904
1632.0000,43.659152
1633.0000,36.800229
1634.0000,48.957522
1635.0000,39.524564
1636.0000,45.943046
1637.0000,29.476922
1638.0000,38.280606
1639.0000,41.134472
1640.0000,29.028043
1641.0000,31.127988
1642.0000,51.105945
1643.0000,33.378931
1644.0000,43.197654
1645.0000,41.225727
1646.0000,47.431892
1647.0000,49.625913
1648.0000,42.408249
1649.0000,39.017324
1650.0000,31.850134
1651.0000,34.124370
1652.0000,45.736985
1653.0000,49.303190
1654.0000,31.666638
1655.0000,55.121455
1656.0000,34.792257
1657.0000,52.949453
1658.0000,24.327884
1659.0000,36.057442
1660.0000,47.707792
1661.0000,42.993103
1662.0000,28.563689
1663.0000,40.656703
1664.0000,38.265424
1665.0000,33.850762
1666.0000,52.559114
1667.0000,42.390906
1668.0000,41.474823
1669.0000,46.031858
1670.0000,29.801566
1671.0000,33.509864
1672.0000,44.518771
1673.0000,56.205187
1674.0000,48.861001
1675.0000,34.476266
1676.0000,27.074599
1677.0000,46.630437
1678.0000,50.410667
1679.0000,39.988704
1680.0000,48.305217
1681.0000,30.744886
1682.0000,59.706038
1683.0000,32.827131
1684.0000,33.976540
1685.0000,47.932207
1686.0000,37.460502
1687.0000,36.199438
1688.0000,38.179125
1689.0000,35.756000
1690.0000,45.370854
1691.0000,19.793279
1692.0000,36.145892
1693.0000,44.076208
1694.0000,43.691714
1695.0000,38.735674
1696.0000,43.589149
1697.0000,38.346351
1698.0000,40.060119
1699.0000,40.328529
1700.0000,11.943345
1701.0000,36.857574
1702.0000,47.541097
1703.0000,35.710807
1704.0000,43.333862
1705.0000,35.237709
1706.0000,48.617733
1707.0000,53.579370
1708.0000,43.600657
1709.0000,34.537935
1710.0000,48.626924
1711.0000,39.272452
1712.0000,24.074854
1713.0000,37.123145
1714.0000,36.738271
1715.0000,40.445106
1716.0000,51.085825
1717.0000,38.786647
1718.0000,34.783525
1719.0000,46.563130
1720.0000,31.938515
1721.0000,40.718276
1722.0000,33.902608
1723.0000,51.890788
1724.0000,43.791219
1725.0000,46.535225
1726.0000,48.287265
1727.0000,37.437720
1728.0000,52.980390
1729.0000,43.545182
1730.0000,50.512250
1731.0000,25.979976
1732.0000,49.027929
1733.0000,34.669159
1734.0000,33.314498
1735.0000,35.049869
1736.0000,41.745094
1737.0000,42.774155
1738.0000,49.825145
1739.0000,44.602109
1740.0000,44.190403
1741.0000,42.802069
1742.0000,42.150063
1743.0000,38.737110
1744.0000,51.879053
1745.0000,38.238541
1746.0000,23.571849
1747.0000,30.550200
1748.0000,35.294958
1749.0000,31.213873
1750.0000,44.100231
1751.0000,44.479770
1752.0000,32.569912
1753.0000,40.479326
1754.0000,32.660273
1755.0000,43.040130
1756.0000,47.505375
1757.0000,34.229465
1758.0000,42.877729
1759.0000,48.260827
1760.0000,29.176682
1761.0000,43.414540
1762.0000,29.727722
1763.0000,33.838815
1764.0000,23.616024
1765.0000,49.672571
1766.0000,51.340690
1767.0000,37.820417
1768.0000,27.682909
1769.0000,33.651804
1770.0000,47.712346
1771.0000,47.098835
1772.0000,43.049390
1773.0000,39.459022
1774.0000,47.876057
1775.0000,39.362610
1776.0000,37.801648
1777.0000,38.914649
1778.0000,46.413242
1779.0000,46.832682
1780.0000,35.884679
1781.0000,49.545661
1782.0000,43.963097
1783.0000,47.196265
1784.0000,26.550380
1785.0000,45.269276
1786.0000,49.561975
1787.0000,35.827686
1788.0000,34.896436
1789.0000,42.403367
1790.0000,53.742496
1791.0000,40.688685
1792.0000,35.981018
1793.0000,28.165612
1794.0000,42.293238
1795.0000,50.251891
1796.0000,43.801352
1797.0000,35.903559
1798.0000,54.898559
1799.0000,37.898249
1800.0000,49.782641
1801.0000,48.805401
1802.0000,31.235710
1803.0000,38.484341
1804.0000,41.999379
1805.0000,51.802672
1806.0000,38.354580
1807.0000,43.874682
1808.0000,44.531156
1809.0000,36.738369
1810.0000,48.575959
1811.0000,35.795700
1812.0000,44.194354
1813.0000,40.060388
1814.0000,55.504306
1815.0000,41.813172
1816.0000,43.815910
1817.0000,54.778861
1818.0000,36.073688
1819.0000,56.309531
1820.0000,43.154651
1821.0000,42.248170
1822.0000,40.404577
1823.0000,43.489984
1824.0000,38.526609
1825.0000,49.516819
1826.0000,29.160288
1827.0000,53.829774
1828.0000,39.052736
1829.0000,38.644121
1830.0000,43.465155
1831.0000,50.879532
1832.0000,44.523125
1833.0000,36.478708
1834.0000,39.855735
1835.0000,37.429233
1836.0000,31.886133
1837.0000,41.316938
1838.0000,27.963825
1839.0000,40.670454
1840.0000,31.191724
1841.0000,31.708377
1842.0000,30.406139
1843.0000,43.007256
1844.0000,40.269276
1845.0000,38.631207
1846.0000,44.242665
1847.0000,49.215153
1848.0000,24.375790
1849.0000,31.536016
1850.0000,40.053678
1851.0000,52.438732
1852.0000,45.383732
1853.0000,47.046040
1854.0000,49.706498
1855.0000,45.643775
1856.0000,35.869783
1857.0000,44.491513
1858.0000,30.934161
1859.0000,49.109054
1860.0000,36.030031
1861.0000,45.554307
1862.0000,38.377171
1863.0000,42.526099
1864.0000,43.182705
1865.0000,40.922939
1866.0000,27.341488
1867.0000,37.856037
1868.0000,30.141534
1869.0000,49.712232
1870.0000,33.898636
1871.0000,46.818933
1872.0000,29.251960
1873.0000,45.011615
1874.0000,39.498278
1875.0000,30.941407
1876.0000,22.277146
1877.0000,57.207908
1878.0000,48.658095
1879.0000,46.419436
1880.0000,47.758639
1881.0000,56.738483
1882.0000,39.618126
1883.0000,36.681111
1884.0000,35.838409
1885.0000,32.919612
1886.0000,51.068624
1887.0000,40.697390
1888.0000,34.907758
1889.0000,39.207848
1890.0000,44.278777
1891.0000,45.792865
1892.0000,36.834039
1893.0000,41.551308
1894.0000,50.029672
1895.0000,40.810976
1896.0000,32.266938
1897.0000,32.936189
1898.0000,43.279058
1899.0000,45.189253
1900.0000,45.389323
1901.0000,35.935071
1902.0000,48.032665
1903.0000,36.427643
1904.0000,46.030839
1905.0000,40.500050
1906.0000,33.176581
1907.0000,41.160033
1908.0000,44.564976
1909.0000,29.201134
1910.0000,38.595685
1911.0000,38.787283
1912.0000,34.483135
1913.0000,58.871066
1914.0000,32.998707
1915.0000,39.540815
1916.0000,42.417426
1917.0000,30.828775
1918.0000,41.509328
1919.0000,27.704380
1920.0000,36.504055
1921.0000,35.011587
1922.0000,44.309717
1923.0000,32.505103
1924.0000,63.269417
1925.0000,45.769060
1926.0000,46.605032
1927.0000,52.020978
1928.0000,35.989644
1929.0000,37.520737
1930.0000,44.041335
1931.0000,45.114592
1932.0000,38.894154
1933.0000,38.715652
1934.0000,42.360737
1935.0000,42.518762
1936.0000,49.012053
1937.0000,37.651626
1938.0000,44.823870
1939.0000,34.045524
1940.0000,45.868983
1941.0000,47.239749
1942.0000,33.438263
1943.0000,33.596794
1944.0000,40.457488
1945.0000,44.942517
1946.0000,47.670207
1947.0000,36.743109
1948.0000,35.758729
1949.0000,43.445329
1950.0000,49.096404
1951.0000,28.501967
1952.0000,47.135476
1953.0000,50.034793
1954.0000,51.879069
1955.0000,36.969476
1956.0000,53.307829
1957.0000,47.675162
1958.0000,30.611681
1959.0000,36.828862
1960.0000,40.544630
1961.0000,22.861194
1962.0000,45.940886
1963.0000,30.617887
1964.0000,44.477948
1965.0000,36.558045
1966.0000,21.009196
1967.0000,31.627932
1968.0000,27.430588
1969.0000,34.945065
1970.0000,48.776096
1971.0000,33.930331
1972.0000,42.469689
1973.0000,33.637662
1974.0000,29.009481
1975.0000,28.783579
1976.0000,36.771111
1977.0000,36.841726
1978.0000,39.546261
1979.0000,45.840739
1980.0000,55.268268
1981.0000,40.663320
1982.0000,59.748808
1983.0000,43.276725
1984.0000,35.924031
1985.0000,38.545609
1986.0000,53.408227
1987.0000,52.085324
1988.0000,25.296213
1989.0000,50.523327
1990.0000,33.918475
1991.0000,42.423724
1992.0000,34.127050
1993.0000,46.339268
1994.0000,55.987769
1995.0000,28.247111
1996.0000,41.213790
1997.0000,32.009546
1998.0000,32.907955
1999.0000,36.517199
2000.0000,36.114916
