raman_shift_cm-1,intensity
200.0000,48.821482
201.0000,38.584817
202.0000,46.576225
203.0000,51.843909
204.0000,37.552293
205.0000,35.338219
206.0000,47.513502
207.0000,34.506805
208.0000,39.318866
209.0000,45.680392
210.0000,35.127735
211.0000,52.904127
212.0000,38.723972
213.0000,50.726210
214.0000,39.944691
215.0000,44.210102
216.0000,38.156879
217.0000,32.462402
218.0000,14.263163
219.0000,32.261558
220.0000,30.839916
221.0000,42.593287
222.0000,40.100238
223.0000,49.613111
224.0000,48.922970
225.0000,38.952201
226.0000,37.315048
227.0000,31.495482
228.0000,31.932120
229.0000,36.101485
230.0000,40.173051
231.0000,28.716886
232.0000,35.670132
233.0000,44.995234
234.0000,26.398307
235.0000,45.098339
236.0000,31.773688
237.0000,50.484257
238.0000,36.836539
239.0000,26.868638
240.0000,46.390803
241.0000,44.518391
242.0000,47.335651
243.0000,49.455475
244.0000,49.855239
245.0000,46.460496
246.0000,42.496404
247.0000,45.209936
248.0000,38.986573
249.0000,55.789811
250.0000,39.506995
251.0000,46.266728
252.0000,42.008008
253.0000,42.841022
254.0000,40.576044
255.0000,48.467477
256.0000,36.822414
257.0000,37.806506
258.0000,26.711590
259.0000,50.424812
260.0000,35.835141
261.0000,38.005354
262.0000,38.013307
263.0000,39.402740
264.0000,60.636910
265.0000,35.551245
266.0000,41.758892
267.0000,39.947059
268.0000,52.557416
269.0000,35.989539
270.0000,48.150248
271.0000,40.156900
272.0000,43.936575
273.0000,38.055222
274.0000,43.144200
275.0000,30.400246
276.0000,60.850678
277.0000,34.588065
278.0000,42.080155
279.0000,38.398767
280.0000,50.359600
281.0000,43.889717
282.0000,44.828157
283.0000,44.684155
284.0000,43.308213
285.0000,35.820525
286.0000,48.056020
287.0000,38.103674
288.0000,42.366010
289.0000,50.516577
290.0000,32.114579
291.0000,34.198488
292.0000,37.918679
293.0000,29.601103
294.0000,53.819684
295.0000,34.467299
296.0000,38.913985
297.0000,55.525926
298.0000,59.812412
299.0000,32.066107
300.0000,41.990564
301.0000,39.112275
302.0000,42.907899
303.0000,45.327884
304.0000,44.860472
305.0000,40.040308
306.0000,34.340582
307.0000,63.369061
308.0000,45.796075
309.0000,42.463068
310.0000,27.113441
311.0000,40.937051
312.0000,34.218735
313.0000,27.046165
314.0000,40.613871
315.0000,36.688533
316.0000,45.259767
317.0000,50.254141
318.0000,44.344622
319.0000,50.876956
320.0000,30.672362
321.0000,40.226212
322.0000,30.190922
323.0000,42.007287
324.0000,41.457241
325.0000,44.394864
326.0000,40.947961
327.0000,56.994952
328.0000,37.362005
329.0000,54.540800
330.0000,41.124467
331.0000,43.268487
332.0000,33.952163
333.0000,43.008657
334.0000,39.274011
335.0000,41.546356
336.0000,33.654546
337.0000,38.283541
338.0000,40.056557
339.0000,29.727637
340.0000,49.585427
341.0000,32.741130
342.0000,50.494498
343.0000,46.531977
344.0000,44.320245
345.0000,43.126593
346.0000,40.381279
347.0000,35.675294
348.0000,36.554456
349.0000,48.491718
350.0000,40.954865
351.0000,56.613722
352.0000,32.294762
353.0000,38.767511
354.0000,44.238317
355.0000,41.801849
356.0000,51.953400
357.0000,39.645241
358.0000,42.497292
359.0000,43.412805
360.0000,20.713339
361.0000,54.329555
362.0000,40.484048
363.0000,33.554908
364.0000,32.816074
365.0000,33.467410
366.0000,31.857740
367.0000,28.801780
368.0000,39.975664
369.0000,40.639856
370.0000,37.919842
371.0000,34.588561
372.0000,28.958249
373.0000,46.097634
374.0000,50.078231
375.0000,42.723617
376.0000,31.203795
377.0000,30.864000
378.0000,37.731385
379.0000,42.114584
380.0000,35.442360
381.0000,53.097167
382.0000,47.660891
383.0000,44.346004
384.0000,54.000459
385.0000,45.673672
386.0000,46.374158
387.0000,46.341800
388.0000,45.244015
389.0000,49.614200
390.0000,47.761333
391.0000,47.619866
392.0000,43.164102
393.0000,32.634185
394.0000,41.652386
395.0000,38.142928
396.0000,39.767457
397.0000,29.632338
398.0000,41.719155
399.0000,41.296630
400.0000,38.255196
401.0000,35.188604
402.0000,42.357906
403.0000,48.945955
404.0000,36.375963
405.0000,30.776543
406.0000,49.676918
407.0000,37.064734
408.0000,26.841431
409.0000,42.446822
410.0000,41.369600
411.0000,47.297313
412.0000,38.338788
413.0000,40.515289
414.0000,48.228895
415.0000,33.679107
416.0000,43.534395
417.0000,46.084734
418.0000,30.140775
419.0000,29.401598
420.0000,53.941843
421.0000,33.285414
422.0000,44.834490
423.0000,44.451841
424.0000,36.361092
425.0000,45.373748
426.0000,30.685251
427.0000,39.388085
428.0000,48.735657
429.0000,43.243387
430.0000,35.704908
431.0000,23.517838
432.0000,36.445618
433.0000,45.977085
434.0000,48.111791
435.0000,54.927019
436.0000,37.999513
437.0000,37.619425
438.0000,32.546808
439.0000,41.811029
440.0000,40.216754
441.0000,36.742636
442.0000,51.645907
443.0000,55.155791
444.0000,43.063631
445.0000,40.339345
446.0000,41.219430
447.0000,45.924905
448.0000,44.778561
449.0000,38.739813
450.0000,25.179825
451.0000,58.433561
452.0000,40.657807
453.0000,42.646320
454.0000,42.396061
455.0000,45.057754
456.0000,33.389632
457.0000,30.924502
458.0000,48.957754
459.0000,42.057729
460.0000,58.462947
461.0000,38.569130
462.0000,41.396012
463.0000,52.328399
464.0000,32.694853
465.0000,37.029703
466.0000,31.352977
467.0000,38.648276
468.0000,51.500196
469.0000,28.891215
470.0000,51.936487
471.0000,41.252661
472.0000,49.052391
473.0000,35.537578
474.0000,25.316438
475.0000,28.827900
476.0000,55.960907
477.0000,29.992178
478.0000,28.213178
479.0000,50.932140
480.0000,42.405875
481.0000,44.406156
482.0000,38.728497
483.0000,33.958738
484.0000,46.042569
485.0000,39.469944
486.0000,45.106404
487.0000,41.832797
488.0000,25.994239
489.0000,42.120440
490.0000,38.205025
491.0000,46.838536
492.0000,43.471146
493.0000,28.929463
494.0000,33.373626
495.0000,45.963149
496.0000,39.879814
497.0000,34.962697
498.0000,45.326773
499.0000,39.843704
500.0000,35.700578
501.0000,47.331051
502.0000,49.625991
503.0000,33.085275
504.0000,17.387202
505.0000,28.398256
506.0000,45.646242
507.0000,42.624373
508.0000,23.047593
509.0000,38.554202
510.0000,41.921397
511.0000,36.269466
512.0000,35.188456
513.0000,52.726080
514.0000,50.396676
515.0000,52.616380
516.0000,41.449190
517.0000,44.802720
518.0000,36.483116
519.0000,54.086876
520.0000,41.141995
521.0000,49.836880
522.0000,47.797346
523.0000,27.893321
524.0000,40.606956
525.0000,59.178876
526.0000,39.579494
527.0000,44.316191
528.0000,58.237570
529.0000,33.377963
530.0000,40.785131
531.0000,43.730742
532.0000,42.499888
533.0000,44.854467
534.0000,42.502361
535.0000,38.471594
536.0000,42.661244
537.0000,38.805358
538.0000,47.177393
539.0000,56.959484
540.0000,50.290583
541.0000,37.580563
542.0000,34.818074
543.0000,39.361093
544.0000,35.143851
545.0000,41.607446
546.0000,31.016206
547.0000,55.589345
548.0000,41.084500
549.0000,29.154649
550.0000,54.077481
551.0000,42.748415
552.0000,51.268723
553.0000,33.949745
554.0000,47.288694
555.0000,58.063930
556.0000,42.678603
557.0000,46.856184
558.0000,48.815462
559.0000,48.173161
560.0000,62.144891
561.0000,45.145023
562.0000,46.214180
563.0000,34.158664
564.0000,53.304317
565.0000,42.949808
566.0000,57.446837
567.0000,41.665304
568.0000,39.656256
569.0000,42.794292
570.0000,47.129260
571.0000,48.765050
572.0000,50.971497
573.0000,62.798031
574.0000,54.206273
575.0000,57.404333
576.0000,59.235116
577.0000,48.481130
578.0000,44.060385
579.0000,56.824338
580.0000,61.981879
581.0000,62.714451
582.0000,69.021668
583.0000,67.769372
584.0000,76.529600
585.0000,73.865869
586.0000,75.960973
587.0000,85.238668
588.0000,102.809580
589.0000,99.543410
590.0000,114.820635
591.0000,106.865255
592.0000,141.037802
593.0000,135.681187
594.0000,167.934376
595.0000,181.156581
596.0000,227.862871
597.0000,240.115216
598.0000,286.621908
599.0000,313.666567
600.0000,332.531135
601.0000,326.423950
602.0000,346.434900
603.0000,318.151358
604.0000,276.277567
605.0000,248.812606
606.0000,223.652130
607.0000,196.436988
608.0000,163.138587
609.0000,139.244684
610.0000,139.724053
611.0000,109.485777
612.0000,103.304436
613.0000,92.075192
614.0000,97.255998
615.0000,83.578670
616.0000,95.594155
617.0000,78.023070
618.0000,73.661327
619.0000,73.325675
620.0000,72.442448
621.0000,71.524011
622.0000,58.805976
623.0000,64.686653
624.0000,47.797184
625.0000,63.353870
626.0000,60.912107
627.0000,64.386434
628.0000,65.494162
629.0000,52.984461
630.0000,67.073327
631.0000,60.393591
632.0000,54.757852
633.0000,54.754343
634.0000,49.222053
635.0000,46.929150
636.0000,62.094229
637.0000,67.006548
638.0000,32.398059
639.0000,54.968027
640.0000,53.589445
641.0000,32.796489
642.0000,69.625090
643.0000,35.023829
644.0000,61.841121
645.0000,35.174131
646.0000,48.979268
647.0000,57.786419
648.0000,45.515285
649.0000,51.536951
650.0000,49.704825
651.0000,40.828442
652.0000,47.684794
653.0000,39.245691
654.0000,49.998853
655.0000,47.546078
656.0000,39.861451
657.0000,45.091481
658.0000,63.668768
659.0000,35.382682
660.0000,42.864134
661.0000,36.513105
662.0000,48.389850
663.0000,29.136684
664.0000,35.308044
665.0000,35.752136
666.0000,39.607217
667.0000,41.776893
668.0000,52.556691
669.0000,33.568577
670.0000,41.159602
671.0000,47.985868
672.0000,47.098301
673.0000,39.165836
674.0000,51.212926
675.0000,38.077764
676.0000,44.607794
677.0000,39.514856
678.0000,49.104079
679.0000,32.852614
680.0000,31.403809
681.0000,48.709793
682.0000,46.482264
683.0000,50.726118
684.0000,45.275178
685.0000,46.742169
686.0000,32.667569
687.0000,40.347476
688.0000,35.880957
689.0000,25.139540
690.0000,46.346464
691.0000,45.124468
692.0000,40.905822
693.0000,33.073938
694.0000,26.894115
695.0000,49.644630
696.0000,50.833815
697.0000,34.064130
698.0000,36.112701
699.0000,38.591793
700.0000,43.335507
701.0000,35.672594
702.0000,57.771597
703.0000,37.157844
704.0000,50.105917
705.0000,40.293227
706.0000,34.572892
707.0000,38.804383
708.0000,54.379612
709.0000,39.899184
710.0000,51.088818
711.0000,48.124624
712.0000,34.850071
713.0000,36.685323
714.0000,45.191942
715.0000,42.841500
716.0000,26.444119
717.0000,55.569274
718.0000,35.640807
719.0000,49.167661
720.0000,48.218566
721.0000,39.287891
722.0000,45.340764
723.0000,57.437446
724.0000,44.060248
725.0000,48.002369
726.0000,34.945641
727.0000,38.855206
728.0000,32.874786
729.0000,46.691583
730.0000,44.032585
731.0000,45.338740
732.0000,49.973436
733.0000,53.684041
734.0000,43.136378
735.0000,45.782496
736.0000,26.995587
737.0000,42.061885
738.0000,36.725751
739.0000,34.019618
740.0000,35.131653
741.0000,44.035821
742.0000,52.846297
743.0000,56.000008
744.0000,45.338995
745.0000,43.380779
746.0000,38.785112
747.0000,44.819997
748.0000,52.569353
749.0000,35.070993
750.0000,52.263700
751.0000,52.951291
752.0000,39.127825
753.0000,43.576849
754.0000,46.050503
755.0000,54.020175
756.0000,45.041666
757.0000,42.734442
758.0000,60.261867
759.0000,50.784142
760.0000,45.098680
761.0000,53.823307
762.0000,47.070730
763.0000,36.701197
764.0000,41.582869
765.0000,46.754756
766.0000,53.700928
767.0000,39.955988
768.0000,47.395501
769.0000,49.477559
770.0000,50.948300
771.0000,64.559039
772.0000,46.774737
773.0000,54.806432
774.0000,49.594248
775.0000,43.927707
776.0000,56.481118
777.0000,58.617087
778.0000,39.986170
779.0000,45.988365
780.0000,44.537928
781.0000,54.371266
782.0000,61.641337
783.0000,63.717036
784.0000,64.525383
785.0000,70.557086
786.0000,79.151932
787.0000,78.142263
788.0000,75.802864
789.0000,85.979507
790.0000,81.228086
791.0000,71.949971
792.0000,77.551989
793.0000,84.918713
794.0000,78.265350
795.0000,89.867704
796.0000,109.220373
797.0000,107.862422
798.0000,113.499042
799.0000,129.156170
800.0000,129.021835
801.0000,157.137277
802.0000,168.516624
803.0000,195.910918
804.0000,226.945617
805.0000,260.665211
806.0000,298.175725
807.0000,331.024574
808.0000,378.004890
809.0000,442.349071
810.0000,494.798903
811.0000,527.418320
812.0000,539.139603
813.0000,541.959102
814.0000,484.319726
815.0000,444.447815
816.0000,393.657337
817.0000,341.060478
818.0000,304.780140
819.0000,238.729590
820.0000,235.412606
821.0000,201.023182
822.0000,168.338371
823.0000,158.358131
824.0000,144.143937
825.0000,128.692914
826.0000,110.607929
827.0000,113.793677
828.0000,93.010345
829.0000,107.830776
830.0000,94.082753
831.0000,84.772942
832.0000,87.884400
833.0000,71.918826
834.0000,87.138204
835.0000,87.717231
836.0000,72.961474
837.0000,55.518124
838.0000,62.829113
839.0000,69.529805
840.0000,68.390347
841.0000,53.004072
842.0000,57.656122
843.0000,54.793239
844.0000,63.525731
845.0000,44.218867
846.0000,62.404752
847.0000,56.814275
848.0000,57.460215
849.0000,60.203165
850.0000,58.482208
851.0000,59.274077
852.0000,41.092169
853.0000,42.959848
854.0000,59.854237
855.0000,56.170188
856.0000,45.861111
857.0000,46.203706
858.0000,43.866820
859.0000,52.674484
860.0000,53.363380
861.0000,41.188184
862.0000,51.805845
863.0000,44.477509
864.0000,55.241128
865.0000,53.309013
866.0000,46.474963
867.0000,59.513193
868.0000,44.853699
869.0000,50.483590
870.0000,51.492992
871.0000,49.106222
872.0000,36.784194
873.0000,58.994844
874.0000,48.203649
875.0000,51.485563
876.0000,29.820171
877.0000,26.739023
878.0000,56.488508
879.0000,57.397676
880.0000,52.242216
881.0000,41.536803
882.0000,44.608968
883.0000,52.177627
884.0000,41.649372
885.0000,43.345614
886.0000,35.254769
887.0000,37.479490
888.0000,47.754886
889.0000,42.329918
890.0000,38.475075
891.0000,42.874248
892.0000,48.913821
893.0000,59.832344
894.0000,41.177699
895.0000,50.756298
896.0000,50.541427
897.0000,37.474749
898.0000,35.798075
899.0000,45.850364
900.0000,41.580410
901.0000,57.499005
902.0000,46.105727
903.0000,51.230176
904.0000,43.861762
905.0000,35.272364
906.0000,45.599785
907.0000,55.168736
908.0000,53.557531
909.0000,49.637691
910.0000,35.278160
911.0000,40.692348
912.0000,53.791576
913.0000,45.256017
914.0000,52.249693
915.0000,36.143102
916.0000,45.985907
917.0000,51.336373
918.0000,42.955681
919.0000,59.836387
920.0000,50.364019
921.0000,68.288601
922.0000,54.197947
923.0000,40.575910
924.0000,43.908532
925.0000,55.885796
926.0000,50.307129
927.0000,47.088948
928.0000,33.224434
929.0000,28.134468
930.0000,60.501599
931.0000,49.653840
932.0000,61.445760
933.0000,52.409822
934.0000,59.264424
935.0000,49.906996
936.0000,58.080727
937.0000,57.440379
938.0000,44.254049
939.0000,55.088085
940.0000,61.439865
941.0000,56.409578
942.0000,57.898398
943.0000,55.326336
944.0000,51.130769
945.0000,61.271952
946.0000,69.392205
947.0000,68.393319
948.0000,65.557481
949.0000,84.505657
950.0000,69.854152
951.0000,82.165762
952.0000,81.844777
953.0000,89.813341
954.0000,87.771823
955.0000,103.905117
956.0000,104.046519
957.0000,132.985688
958.0000,150.758877
959.0000,152.240121
960.0000,185.481781
961.0000,214.128468
962.0000,221.661860
963.0000,263.660011
964.0000,283.455502
965.0000,324.727690
966.0000,323.310362
967.0000,316.082855
968.0000,294.598312
969.0000,271.826529
970.0000,241.933054
971.0000,199.414657
972.0000,192.826199
973.0000,152.255424
974.0000,148.474223
975.0000,133.566019
976.0000,124.639391
977.0000,108.606031
978.0000,91.426350
979.0000,95.345416
980.0000,72.297460
981.0000,88.913739
982.0000,77.700858
983.0000,67.333699
984.0000,64.313478
985.0000,66.368250
986.0000,66.164884
987.0000,50.139374
988.0000,67.654925
989.0000,70.781897
990.0000,62.045678
991.0000,52.561714
992.0000,67.153782
993.0000,54.614964
994.0000,45.409480
995.0000,44.299260
996.0000,50.246870
997.0000,49.845924
998.0000,48.115559
999.0000,54.133788
1000.0000,34.654671
1001.0000,48.748361
1002.0000,51.058567
1003.0000,49.794860
1004.0000,39.149453
1005.0000,43.298358
1006.0000,31.642665
1007.0000,44.574380
1008.0000,73.029945
1009.0000,39.528457
1010.0000,39.967403
1011.0000,35.313661
1012.0000,50.846496
1013.0000,47.494214
1014.0000,39.127621
1015.0000,44.095500
1016.0000,45.332708
1017.0000,45.366682
1018.0000,43.366271
1019.0000,48.702862
1020.0000,61.047904
1021.0000,44.056021
1022.0000,48.947864
1023.0000,45.566667
1024.0000,44.942738
1025.0000,50.571331
1026.0000,37.634826
1027.0000,41.875670
1028.0000,53.480077
1029.0000,37.238732
1030.0000,50.293981
1031.0000,52.314372
1032.0000,46.823329
1033.0000,55.373228
1034.0000,39.148576
1035.0000,40.294971
1036.0000,33.300240
1037.0000,41.602059
1038.0000,44.183822
1039.0000,37.470178
1040.0000,43.780196
1041.0000,41.802169
1042.0000,41.627600
1043.0000,42.416624
1044.0000,53.595816
1045.0000,37.608862
1046.0000,42.885604
1047.0000,50.684235
1048.0000,59.673344
1049.0000,40.513646
1050.0000,36.793244
1051.0000,39.657787
1052.0000,39.766158
1053.0000,54.069448
1054.0000,33.540852
1055.0000,38.062282
1056.0000,48.965086
1057.0000,38.241180
1058.0000,48.105763
1059.0000,30.779324
1060.0000,40.092656
1061.0000,38.671841
1062.0000,45.041598
1063.0000,37.902190
1064.0000,49.962267
1065.0000,56.024788
1066.0000,53.116307
1067.0000,39.859622
1068.0000,54.156479
1069.0000,54.047825
1070.0000,42.865759
1071.0000,48.782401
1072.0000,42.204060
1073.0000,43.525177
1074.0000,40.020832
1075.0000,63.623334
1076.0000,42.050775
1077.0000,41.944060
1078.0000,54.320891
1079.0000,50.936369
1080.0000,56.619586
1081.0000,37.737992
1082.0000,34.846950
1083.0000,60.185983
1084.0000,50.906787
1085.0000,48.774717
1086.0000,51.573819
1087.0000,61.794372
1088.0000,52.544495
1089.0000,42.296250
1090.0000,48.034766
1091.0000,48.540285
1092.0000,70.251457
1093.0000,45.166748
1094.0000,66.307320
1095.0000,46.378877
1096.0000,66.368252
1097.0000,59.356559
1098.0000,58.154139
1099.0000,72.945753
1100.0000,61.437188
1101.0000,68.848933
1102.0000,76.776840
1103.0000,78.759555
1104.0000,85.328900
1105.0000,82.428617
1106.0000,96.607971
1107.0000,89.658670
1108.0000,103.771582
1109.0000,117.377260
1110.0000,117.624637
1111.0000,134.273671
1112.0000,139.064748
1113.0000,165.230551
1114.0000,195.051430
1115.0000,216.420346
1116.0000,248.255532
1117.0000,281.240213
1118.0000,317.853876
1119.0000,371.013896
1120.0000,389.116306
1121.0000,421.964573
1122.0000,445.505969
1123.0000,443.341834
1124.0000,395.848954
1125.0000,373.023746
1126.0000,324.467407
1127.0000,282.197312
1128.0000,225.306228
1129.0000,203.052300
1130.0000,188.130194
1131.0000,155.187674
1132.0000,149.342873
1133.0000,119.881824
1134.0000,123.882057
1135.0000,115.969972
1136.0000,110.765403
1137.0000,90.716759
1138.0000,83.054223
1139.0000,84.276312
1140.0000,73.293466
1141.0000,81.501214
1142.0000,80.440515
1143.0000,85.120185
1144.0000,66.514954
1145.0000,47.342418
1146.0000,74.183967
1147.0000,78.141084
1148.0000,62.960547
1149.0000,51.773663
1150.0000,50.143545
1151.0000,53.995548
1152.0000,70.333989
1153.0000,57.210384
1154.0000,62.803650
1155.0000,58.408175
1156.0000,51.892926
1157.0000,46.547630
1158.0000,29.173849
1159.0000,56.685256
1160.0000,61.336339
1161.0000,48.124472
1162.0000,45.281971
1163.0000,44.947421
1164.0000,46.451708
1165.0000,34.151909
1166.0000,60.459699
1167.0000,42.034437
1168.0000,41.590552
1169.0000,62.829537
1170.0000,25.869069
1171.0000,42.581030
1172.0000,38.097625
1173.0000,45.879147
1174.0000,50.490536
1175.0000,50.358292
1176.0000,35.059998
1177.0000,55.978555
1178.0000,44.905568
1179.0000,46.151653
1180.0000,48.952363
1181.0000,48.578279
1182.0000,48.842580
1183.0000,37.465508
1184.0000,48.626657
1185.0000,44.383659
1186.0000,35.636345
1187.0000,41.642368
1188.0000,58.547316
1189.0000,36.942216
1190.0000,41.767222
1191.0000,30.457154
1192.0000,36.953733
1193.0000,50.964251
1194.0000,55.268050
1195.0000,50.096340
1196.0000,46.653053
1197.0000,52.205130
1198.0000,55.849251
1199.0000,36.339650
1200.0000,56.840008
1201.0000,45.008844
1202.0000,35.736973
1203.0000,40.924825
1204.0000,29.318251
1205.0000,49.786704
1206.0000,40.027117
1207.0000,56.966402
1208.0000,38.748357
1209.0000,32.497896
1210.0000,39.829849
1211.0000,49.513263
1212.0000,50.490403
1213.0000,39.401039
1214.0000,42.652166
1215.0000,40.281772
1216.0000,40.993707
1217.0000,45.439318
1218.0000,45.262450
1219.0000,32.448107
1220.0000,53.580717
1221.0000,55.602602
1222.0000,33.730764
1223.0000,51.427523
1224.0000,49.488607
1225.0000,37.524694
1226.0000,54.473247
1227.0000,45.206764
1228.0000,16.975422
1229.0000,41.435627
1230.0000,35.670498
1231.0000,47.044265
1232.0000,36.531468
1233.0000,46.715278
1234.0000,55.860794
1235.0000,44.688307
1236.0000,35.239881
1237.0000,48.696165
1238.0000,51.994554
1239.0000,48.157887
1240.0000,40.013078
1241.0000,37.200514
1242.0000,42.045547
1243.0000,36.316968
1244.0000,27.872556
1245.0000,30.258502
1246.0000,34.690857
1247.0000,42.513889
1248.0000,36.311704
1249.0000,17.026585
1250.0000,37.075618
1251.0000,38.563092
1252.0000,52.207577
1253.0000,50.776406
1254.0000,54.751252
1255.0000,47.555944
1256.0000,35.544065
1257.0000,32.171749
1258.0000,47.655699
1259.0000,40.919436
1260.0000,53.358646
1261.0000,51.084650
1262.0000,36.571862
1263.0000,31.121626
1264.0000,50.315760
1265.0000,30.979486
1266.0000,38.946446
1267.0000,45.096182
1268.0000,40.161291
1269.0000,50.407984
1270.0000,37.104000
1271.0000,40.247021
1272.0000,48.327058
1273.0000,41.721118
1274.0000,31.807204
1275.0000,35.839680
1276.0000,37.626502
1277.0000,50.386919
1278.0000,48.142444
1279.0000,36.500935
1280.0000,57.108024
1281.0000,29.111477
1282.0000,38.386135
1283.0000,41.513904
1284.0000,28.361374
1285.0000,42.433004
1286.0000,34.368339
1287.0000,31.529948
1288.0000,53.149607
1289.0000,50.119569
1290.0000,37.504232
1291.0000,39.049361
1292.0000,50.753209
1293.0000,42.317727
1294.0000,53.623538
1295.0000,42.678275
1296.0000,36.048955
1297.0000,42.296204
1298.0000,46.347084
1299.0000,40.138701
1300.0000,38.746273
1301.0000,27.543498
1302.0000,44.316208
1303.0000,35.462707
1304.0000,44.257053
1305.0000,26.376727
1306.0000,43.844764
1307.0000,33.029964
1308.0000,41.715383
1309.0000,36.470979
1310.0000,36.815601
1311.0000,43.764064
1312.0000,43.094993
1313.0000,45.492897
1314.0000,34.316731
1315.0000,36.889109
1316.0000,46.215121
1317.0000,51.209071
1318.0000,31.496079
1319.0000,39.074958
1320.0000,46.759194
1321.0000,45.173846
1322.0000,47.205419
1323.0000,45.500222
1324.0000,45.838527
1325.0000,46.165497
1326.0000,38.599519
1327.0000,45.643550
1328.0000,52.178758
1329.0000,46.055166
1330.0000,58.139122
1331.0000,45.438720
1332.0000,45.647204
1333.0000,43.596915
1334.0000,39.862672
1335.0000,42.380275
1336.0000,51.282631
1337.0000,29.168716
1338.0000,56.238532
1339.0000,38.040216
1340.0000,46.100168
1341.0000,37.533529
1342.0000,28.259769
1343.0000,36.134357
1344.0000,41.237567
1345.0000,50.790561
1346.0000,35.869949
1347.0000,35.017919
1348.0000,51.514788
1349.0000,37.123667
1350.0000,46.329976
1351.0000,33.380150
1352.0000,40.308399
1353.0000,39.715332
1354.0000,36.512022
1355.0000,47.306719
1356.0000,48.859266
1357.0000,39.545204
1358.0000,37.042935
1359.0000,44.743585
1360.0000,45.039431
1361.0000,55.504893
1362.0000,45.229935
1363.0000,40.984002
1364.0000,38.165817
1365.0000,37.509694
1366.0000,33.833273
1367.0000,55.319854
1368.0000,42.590859
1369.0000,40.231660
1370.0000,51.967983
1371.0000,51.429205
1372.0000,49.718884
1373.0000,38.160729
1374.0000,44.648418
1375.0000,46.868416
1376.0000,53.173607
1377.0000,29.301948
1378.0000,52.833247
1379.0000,48.609791
1380.0000,46.036139
1381.0000,36.653350
1382.0000,49.379391
1383.0000,47.074134
1384.0000,52.958336
1385.0000,49.467080
1386.0000,45.449763
1387.0000,41.476691
1388.0000,53.824353
1389.0000,41.258941
1390.0000,38.362752
1391.0000,41.737390
1392.0000,48.586794
1393.0000,53.332943
1394.0000,67.670875
1395.0000,43.091537
1396.0000,37.716117
1397.0000,63.862841
1398.0000,32.671032
1399.0000,55.066697
1400.0000,54.355134
1401.0000,41.414812
1402.0000,48.992107
1403.0000,39.769478
1404.0000,61.044295
1405.0000,47.915168
1406.0000,41.213424
1407.0000,56.625852
1408.0000,49.534986
1409.0000,42.131252
1410.0000,52.718062
1411.0000,43.847685
1412.0000,58.289942
1413.0000,41.250847
1414.0000,71.957396
1415.0000,46.291206
1416.0000,72.158137
1417.0000,52.036811
1418.0000,45.414674
1419.0000,68.912819
1420.0000,69.056536
1421.0000,69.983168
1422.0000,64.269356
1423.0000,69.186826
1424.0000,59.296439
1425.0000,65.383312
1426.0000,68.583184
1427.0000,88.762851
1428.0000,90.104228
1429.0000,92.025691
1430.0000,89.622617
1431.0000,106.779396
1432.0000,99.042597
1433.0000,97.481658
1434.0000,112.011185
1435.0000,106.792499
1436.0000,134.414697
1437.0000,135.676110
1438.0000,158.920565
1439.0000,188.069103
1440.0000,195.896118
1441.0000,226.133200
1442.0000,258.306783
1443.0000,287.414684
1444.0000,342.461095
1445.0000,388.315136
1446.0000,452.909768
1447.0000,523.073888
1448.0000,567.309355
1449.0000,642.206697
1450.0000,650.578698
1451.0000,623.726114
1452.0000,576.583979
1453.0000,535.317851
1454.0000,453.926088
1455.0000,394.169582
1456.0000,339.545842
1457.0000,300.767526
1458.0000,263.258814
1459.0000,226.138667
1460.0000,199.126954
1461.0000,175.398812
1462.0000,154.240684
1463.0000,153.028307
1464.0000,123.069068
1465.0000,128.008493
1466.0000,122.482070
1467.0000,107.000007
1468.0000,101.230300
1469.0000,94.316120
1470.0000,108.534936
1471.0000,82.560035
1472.0000,91.861133
1473.0000,70.050037
1474.0000,79.951672
1475.0000,75.974876
1476.0000,64.377770
1477.0000,67.449026
1478.0000,78.573697
1479.0000,69.270213
1480.0000,46.818452
1481.0000,63.062886
1482.0000,67.287139
1483.0000,49.645652
1484.0000,50.731250
1485.0000,56.606874
1486.0000,52.828051
1487.0000,53.075399
1488.0000,54.940971
1489.0000,45.268358
1490.0000,46.311204
1491.0000,51.653496
1492.0000,58.305076
1493.0000,44.097548
1494.0000,49.579341
1495.0000,51.259551
1496.0000,48.930436
1497.0000,57.982938
1498.0000,52.954339
1499.0000,64.247738
1500.0000,55.605409
1501.0000,47.257227
1502.0000,50.954272
1503.0000,45.369766
1504.0000,61.830233
1505.0000,40.517719
1506.0000,48.330105
1507.0000,35.945892
1508.0000,48.890112
1509.0000,45.637140
1510.0000,44.177494
1511.0000,49.245874
1512.0000,53.823038
1513.0000,59.690606
1514.0000,48.896132
1515.0000,35.776163
1516.0000,41.337485
1517.0000,41.141378
1518.0000,53.939770
1519.0000,44.526086
1520.0000,50.387838
1521.0000,44.239401
1522.0000,44.600277
1523.0000,47.161947
1524.0000,47.390540
1525.0000,53.948711
1526.0000,51.112930
1527.0000,42.881875
1528.0000,56.504098
1529.0000,40.617577
1530.0000,46.088755
1531.0000,36.361357
1532.0000,44.907670
1533.0000,41.365396
1534.0000,40.378405
1535.0000,45.981855
1536.0000,45.047367
1537.0000,46.523390
1538.0000,44.698863
1539.0000,48.946363
1540.0000,38.246791
1541.0000,41.685478
1542.0000,34.551624
1543.0000,50.387139
1544.0000,47.406998
1545.0000,48.815957
1546.0000,38.567657
1547.0000,59.855644
1548.0000,55.704892
1549.0000,42.096879
1550.0000,50.506225
1551.0000,41.766553
1552.0000,34.997606
1553.0000,50.678367
1554.0000,32.448395
1555.0000,30.586017
1556.0000,36.111452
1557.0000,34.644204
1558.0000,55.526059
1559.0000,44.425976
1560.0000,46.843305
1561.0000,38.635185
1562.0000,25.985846
1563.0000,43.603509
1564.0000,38.879269
1565.0000,37.075121
1566.0000,48.353331
1567.0000,41.637366
1568.0000,37.007997
1569.0000,38.057176
1570.0000,44.054103
1571.0000,31.777794
1572.0000,45.448248
1573.0000,44.509185
1574.0000,35.654759
1575.0000,38.849627
1576.0000,57.954644
1577.0000,45.651774
1578.0000,47.107761
1579.0000,47.154983
1580.0000,36.185874
1581.0000,36.297494
1582.0000,42.995354
1583.0000,35.107135
1584.0000,42.765995
1585.0000,38.336017
1586.0000,52.109003
1587.0000,48.488606
1588.0000,46.880587
1589.0000,43.524490
1590.0000,47.269300
1591.0000,56.172795
1592.0000,32.878448
1593.0000,45.335385
1594.0000,46.074485
1595.0000,31.623621
1596.0000,44.556757
1597.0000,47.561640
1598.0000,42.100313
1599.0000,43.569526
1600.0000,41.135849
1601.0000,38.535026
1602.0000,31.550894
1603.0000,57.673038
1604.0000,34.857392
1605.0000,47.439488
1606.0000,54.753280
1607.0000,60.433863
1608.0000,42.985006
1609.0000,33.985711
1610.0000,51.765279
1611.0000,46.100160
1612.0000,48.798873
1613.0000,42.388775
1614.0000,35.354735
1615.0000,56.261834
1616.0000,39.551719
1617.0000,33.297956
1618.0000,31.547881
1619.0000,35.226742
1620.0000,45.331425
1621.0000,32.016363
1622.0000,28.351460
1623.0000,35.052790
1624.0000,43.990664
1625.0000,45.710540
1626.0000,52.206395
1627.0000,30.996484
1628.0000,44.072614
1629.0000,41.558174
1630.0000,36.724839
1631.0000,44.051477
1632.0000,50.715315
1633.0000,46.252484
1634.0000,42.348533
1635.0000,48.273660
1636.0000,46.794170
1637.0000,39.097808
1638.0000,51.583904
1639.0000,51.405918
1640.0000,56.279082
1641.0000,39.456434
1642.0000,33.465971
1643.0000,54.398106
1644.0000,56.085820
1645.0000,46.881920
1646.0000,46.370489
1647.0000,43.297091
1648.0000,56.166822
1649.0000,50.253111
1650.0000,40.926251
1651.0000,43.182753
1652.0000,37.298334
1653.0000,46.767848
1654.0000,55.663504
1655.0000,40.203589
1656.0000,44.845102
1657.0000,43.128364
1658.0000,47.943281
1659.0000,36.869979
1660.0000,48.900383
1661.0000,61.406592
1662.0000,64.291782
1663.0000,45.596245
1664.0000,45.877629
1665.0000,46.870180
1666.0000,51.479524
1667.0000,46.122351
1668.0000,37.063755
1669.0000,43.304488
1670.0000,41.369420
1671.0000,60.626625
1672.0000,40.034888
1673.0000,35.410356
1674.0000,60.671197
1675.0000,49.296515
1676.0000,61.671826
1677.0000,39.152134
1678.0000,37.274706
1679.0000,51.238102
1680.0000,42.747881
1681.0000,46.821299
1682.0000,47.077889
1683.0000,55.108415
1684.0000,54.557380
1685.0000,66.245904
1686.0000,43.816141
1687.0000,64.378491
1688.0000,62.047879
1689.0000,67.775104
1690.0000,59.345950
1691.0000,56.018879
1692.0000,60.738064
1693.0000,56.876249
1694.0000,51.272000
1695.0000,52.065337
1696.0000,65.061452
1697.0000,70.483462
1698.0000,63.790451
1699.0000,61.910138
1700.0000,70.961736
1701.0000,71.395167
1702.0000,70.340245
1703.0000,84.913382
1704.0000,84.822609
1705.0000,85.644039
1706.0000,78.255488
1707.0000,89.389204
1708.0000,73.299474
1709.0000,99.200674
1710.0000,90.880797
1711.0000,107.638467
1712.0000,113.573059
1713.0000,114.879106
1714.0000,129.425208
1715.0000,131.838559
1716.0000,136.079377
1717.0000,173.500170
1718.0000,188.235252
1719.0000,214.864827
1720.0000,223.590506
1721.0000,254.802246
1722.0000,298.688989
1723.0000,340.148696
1724.0000,392.803095
1725.0000,467.933105
1726.0000,535.991636
1727.0000,611.072381
1728.0000,686.670499
1729.0000,756.134676
1730.0000,755.930854
1731.0000,737.948969
1732.0000,690.196569
1733.0000,622.951774
1734.0000,552.452155
1735.0000,454.981350
1736.0000,408.945967
1737.0000,339.982120
1738.0000,294.137979
1739.0000,258.468338
1740.0000,235.610825
1741.0000,195.990207
1742.0000,180.716202
1743.0000,165.672339
1744.0000,149.659503
1745.0000,126.838919
1746.0000,135.157706
1747.0000,110.238812
1748.0000,121.802588
1749.0000,104.521245
1750.0000,107.853346
1751.0000,104.270935
1752.0000,94.332834
1753.0000,94.202997
1754.0000,73.890911
1755.0000,84.851805
1756.0000,86.237525
1757.0000,75.178931
1758.0000,80.680112
1759.0000,69.854082
1760.0000,74.205044
1761.0000,65.484112
1762.0000,63.722357
1763.0000,68.313785
1764.0000,62.099864
1765.0000,56.948301
1766.0000,65.009704
1767.0000,45.439161
1768.0000,47.164726
1769.0000,48.553701
1770.0000,52.278640
1771.0000,56.913122
1772.0000,64.214570
1773.0000,55.563195
1774.0000,58.163944
1775.0000,62.837228
1776.0000,42.598269
1777.0000,60.380693
1778.0000,37.612323
1779.0000,55.399219
1780.0000,38.741316
1781.0000,49.017223
1782.0000,44.245024
1783.0000,44.681734
1784.0000,46.026965
1785.0000,42.515946
1786.0000,50.568104
1787.0000,37.857162
1788.0000,49.207641
1789.0000,53.010700
1790.0000,49.533111
1791.0000,44.481561
1792.0000,41.298083
1793.0000,54.887919
1794.0000,41.783007
1795.0000,41.699182
1796.0000,56.723247
1797.0000,41.030232
1798.0000,53.062557
1799.0000,42.692133
1800.0000,32.609373
1801.0000,51.094986
1802.0000,42.370439
1803.0000,53.998389
1804.0000,55.786795
1805.0000,54.091042
1806.0000,41.286181
1807.0000,45.034042
1808.0000,60.024510
1809.0000,51.556805
1810.0000,50.164702
1811.0000,44.984685
1812.0000,36.648869
1813.0000,35.778345
1814.0000,50.974526
1815.0000,45.171879
1816.0000,34.464594
1817.0000,49.128219
1818.0000,35.810154
1819.0000,41.720079
1820.0000,53.183238
1821.0000,37.567988
1822.0000,34.240762
1823.0000,44.479295
1824.0000,45.396418
1825.0000,42.824431
1826.0000,25.881703
1827.0000,43.933033
1828.0000,47.014446
1829.0000,52.664064
1830.0000,44.916054
1831.0000,44.758431
1832.0000,40.038932
1833.0000,49.694773
1834.0000,32.783977
1835.0000,31.320890
1836.0000,32.612788
1837.0000,32.035592
1838.0000,36.766146
1839.0000,48.584491
1840.0000,40.087843
1841.0000,42.571702
1842.0000,56.042754
1843.0000,53.925409
1844.0000,45.382562
1845.0000,48.788662
1846.0000,39.325996
1847.0000,40.109381
1848.0000,31.818258
1849.0000,49.354963
1850.0000,42.479899
1851.0000,41.173974
1852.0000,34.718339
1853.0000,32.834021
1854.0000,32.522701
1855.0000,34.873922
1856.0000,43.802528
1857.0000,36.529157
1858.0000,34.787671
1859.0000,49.842571
1860.0000,43.436228
1861.0000,42.343339
1862.0000,41.043467
1863.0000,25.759865
1864.0000,49.873587
1865.0000,39.134841
1866.0000,43.923035
1867.0000,28.116514
1868.0000,44.670878
1869.0000,52.738474
1870.0000,45.491825
1871.0000,38.503375
1872.0000,29.334736
1873.0000,49.868049
1874.0000,48.147778
1875.0000,33.070746
1876.0000,38.945337
1877.0000,29.383884
1878.0000,48.097127
1879.0000,34.617482
1880.0000,46.882204
1881.0000,31.423465
1882.0000,39.540351
1883.0000,27.581302
1884.0000,48.419570
1885.0000,35.256349
1886.0000,37.701202
1887.0000,44.435910
1888.0000,37.619453
1889.0000,36.424319
1890.0000,36.387765
1891.0000,42.146415
1892.0000,34.551626
1893.0000,39.993160
1894.0000,43.135349
1895.0000,40.830585
1896.0000,47.818562
1897.0000,43.509593
1898.0000,46.856812
1899.0000,36.238225
1900.0000,39.389860
1901.0000,38.278605
1902.0000,28.529338
1903.0000,43.590322
1904.0000,47.481538
1905.0000,37.557493
1906.0000,21.191297
1907.0000,45.052098
1908.0000,35.868016
1909.0000,35.394710
1910.0000,39.620273
1911.0000,30.304273
1912.0000,40.523680
1913.0000,44.832284
1914.0000,43.856618
1915.0000,35.210244
1916.0000,46.993274
1917.0000,34.830479
1918.0000,47.171532
1919.0000,29.072969
1920.0000,49.016103
1921.0000,47.981650
1922.0000,53.209106
1923.0000,47.693429
1924.0000,39.700410
1925.0000,45.982574
1926.0000,42.951292
1927.0000,32.918453
1928.0000,28.904043
1929.0000,38.595986
1930.0000,40.901285
1931.0000,40.089673
1932.0000,47.002309
1933.0000,54.376134
1934.0000,34.157774
1935.0000,33.335145
1936.0000,49.283642
1937.0000,42.227427
1938.0000,35.691570
1939.0000,42.794739
1940.0000,59.755136
1941.0000,34.013006
1942.0000,47.904339
1943.0000,39.316840
1944.0000,42.006410
1945.0000,30.225591
1946.0000,42.430625
1947.0000,19.357157
1948.0000,44.143325
1949.0000,35.570817
1950.0000,38.363071
1951.0000,33.427971
1952.0000,36.547777
1953.0000,37.652506
1954.0000,40.774164
1955.0000,47.975038
1956.0000,38.039552
1957.0000,47.376599
1958.0000,31.962217
1959.0000,35.076669
1960.0000,31.882560
1961.0000,43.430125
1962.0000,52.787265
1963.0000,36.538013
1964.0000,45.240147
1965.0000,40.081102
1966.0000,56.176393
1967.0000,33.111150
1968.0000,50.923058
1969.0000,48.307500
1970.0000,49.115454
1971.0000,37.022511
1972.0000,44.527245
1973.0000,36.901781
1974.0000,43.194331
1975.0000,38.103874
1976.0000,49.414292
1977.0000,47.124980
1978.0000,45.053761
1979.0000,23.034019
1980.0000,45.493160
1981.0000,37.328828
1982.0000,29.445075
1983.0000,44.322719
1984.0000,41.046321
1985.0000,42.020638
1986.0000,31.032485
1987.0000,40.733494
1988.0000,32.430090
1989.0000,34.810813
1990.0000,40.615448
1991.0000,24.484057
1992.0000,48.463369
1993.0000,34.201660
1994.0000,26.775374
1995.0000,39.193246
1996.0000,42.034732
1997.0000,39.985545
1998.0000,39.309522
1999.0000,36.209573
2000.0000,49.370686
