raman_shift_cm-1,intensity
200.0000,45.416122
201.0000,44.955003
202.0000,39.723274
203.0000,36.545507
204.0000,43.424851
205.0000,54.619377
206.0000,30.094414
207.0000,43.087705
208.0000,44.577480
209.0000,43.439812
210.0000,45.082060
211.0000,48.522597
212.0000,52.746737
213.0000,32.602653
214.0000,19.420373
215.0000,43.478661
216.0000,42.115861
217.0000,42.022678
218.0000,46.516564
219.0000,27.734110
220.0000,35.776292
221.0000,37.761365
222.0000,41.712216
223.0000,55.962864
224.0000,42.881345
225.0000,37.193317
226.0000,27.360185
227.0000,41.681144
228.0000,38.946582
229.0000,41.033771
230.0000,20.720989
231.0000,40.000269
232.0000,23.499060
233.0000,36.692716
234.0000,48.618795
235.0000,28.311241
236.0000,47.131078
237.0000,40.227398
238.0000,41.902118
239.0000,40.503822
240.0000,49.864850
241.0000,50.575346
242.0000,48.812439
243.0000,51.011914
244.0000,49.286518
245.0000,47.440859
246.0000,47.455214
247.0000,49.517196
248.0000,50.940098
249.0000,44.439387
250.0000,51.111332
251.0000,34.389320
252.0000,39.880065
253.0000,47.457454
254.0000,50.694480
255.0000,52.307453
256.0000,49.099460
257.0000,36.156732
258.0000,26.432086
259.0000,49.867085
260.0000,39.187088
261.0000,44.264230
262.0000,38.885621
263.0000,50.321256
264.0000,47.345481
265.0000,26.892736
266.0000,36.785376
267.0000,36.682530
268.0000,28.997543
269.0000,39.699430
270.0000,46.520765
271.0000,34.164537
272.0000,52.902988
273.0000,44.867164
274.0000,42.034790
275.0000,45.422874
276.0000,38.583288
277.0000,34.864457
278.0000,51.584885
279.0000,34.889836
280.0000,33.644133
281.0000,52.215161
282.0000,34.246068
283.0000,37.359067
284.0000,47.652600
285.0000,52.294495
286.0000,26.684921
287.0000,44.870665
288.0000,28.425814
289.0000,52.748923
290.0000,37.769517
291.0000,55.024547
292.0000,27.932284
293.0000,34.425963
294.0000,34.900345
295.0000,46.796665
296.0000,38.956311
297.0000,41.623615
298.0000,55.249372
299.0000,32.978627
300.0000,40.281911
301.0000,46.659076
302.0000,35.761844
303.0000,38.660736
304.0000,38.569593
305.0000,46.242797
306.0000,40.947480
307.0000,40.902218
308.0000,26.576236
309.0000,29.990354
310.0000,33.771583
311.0000,44.280583
312.0000,40.338264
313.0000,44.627608
314.0000,47.534271
315.0000,47.702297
316.0000,27.284644
317.0000,28.222731
318.0000,44.089846
319.0000,51.017535
320.0000,34.215499
321.0000,37.620718
322.0000,44.184535
323.0000,32.628812
324.0000,46.150747
325.0000,50.237023
326.0000,29.713012
327.0000,43.335595
328.0000,47.224303
329.0000,37.466200
330.0000,45.996115
331.0000,40.636149
332.0000,34.945902
333.0000,39.200674
334.0000,40.466449
335.0000,37.761355
336.0000,37.845271
337.0000,40.173643
338.0000,36.058512
339.0000,41.550040
340.0000,32.237732
341.0000,50.103259
342.0000,43.818085
343.0000,42.739074
344.0000,27.729460
345.0000,39.296663
346.0000,35.297370
347.0000,35.600541
348.0000,54.317403
349.0000,39.883394
350.0000,31.290760
351.0000,35.497401
352.0000,34.257565
353.0000,38.518090
354.0000,33.992133
355.0000,33.435024
356.0000,54.437146
357.0000,52.178416
358.0000,46.243262
359.0000,30.343251
360.0000,43.828042
361.0000,36.101304
362.0000,49.708175
363.0000,48.197075
364.0000,38.616462
365.0000,34.532975
366.0000,56.159277
367.0000,38.142511
368.0000,42.225541
369.0000,38.209932
370.0000,50.981627
371.0000,50.852384
372.0000,47.857087
373.0000,50.995782
374.0000,50.714435
375.0000,45.286478
376.0000,42.253029
377.0000,36.560931
378.0000,38.533718
379.0000,39.530040
380.0000,33.805691
381.0000,42.977816
382.0000,38.404206
383.0000,37.986410
384.0000,31.618514
385.0000,46.800839
386.0000,59.186241
387.0000,44.349206
388.0000,47.939502
389.0000,42.756087
390.0000,29.653461
391.0000,29.745341
392.0000,36.042614
393.0000,31.891023
394.0000,44.420033
395.0000,35.200686
396.0000,50.860654
397.0000,45.485708
398.0000,41.031735
399.0000,48.698243
400.0000,48.985871
401.0000,46.742843
402.0000,58.007177
403.0000,29.312731
404.0000,32.814870
405.0000,35.243822
406.0000,46.540495
407.0000,37.941280
408.0000,42.035411
409.0000,37.851288
410.0000,48.496029
411.0000,44.411184
412.0000,44.723776
413.0000,53.406055
414.0000,44.857880
415.0000,40.910880
416.0000,35.858098
417.0000,35.061698
418.0000,47.558259
419.0000,53.461156
420.0000,44.382917
421.0000,32.890448
422.0000,54.637459
423.0000,43.542515
424.0000,40.954048
425.0000,31.436894
426.0000,42.204503
427.0000,37.177581
428.0000,35.361525
429.0000,53.545959
430.0000,33.646926
431.0000,57.590256
432.0000,35.806765
433.0000,33.199788
434.0000,39.125466
435.0000,29.548541
436.0000,46.894492
437.0000,34.699536
438.0000,50.061203
439.0000,43.246293
440.0000,43.200275
441.0000,40.082587
442.0000,61.146966
443.0000,38.632291
444.0000,50.828135
445.0000,47.137891
446.0000,49.728739
447.0000,45.410345
448.0000,46.478911
449.0000,50.473435
450.0000,52.815138
451.0000,84.478859
452.0000,49.731164
453.0000,48.878755
454.0000,41.452765
455.0000,55.760435
456.0000,41.064260
457.0000,38.201916
458.0000,55.262089
459.0000,41.221773
460.0000,55.363481
461.0000,50.152178
462.0000,67.791898
463.0000,65.645113
464.0000,55.748701
465.0000,39.766783
466.0000,49.160611
467.0000,60.017773
468.0000,45.456533
469.0000,39.008310
470.0000,57.156512
471.0000,53.291424
472.0000,58.614712
473.0000,67.507026
474.0000,52.193685
475.0000,60.553731
476.0000,56.190151
477.0000,67.621055
478.0000,51.198561
479.0000,56.372585
480.0000,54.010090
481.0000,75.764372
482.0000,65.503096
483.0000,69.003876
484.0000,65.301612
485.0000,57.643955
486.0000,62.931499
487.0000,59.909694
488.0000,88.401460
489.0000,74.201227
490.0000,86.262461
491.0000,67.727593
492.0000,94.669102
493.0000,88.992605
494.0000,87.020956
495.0000,94.796501
496.0000,92.830238
497.0000,106.628073
498.0000,118.045394
499.0000,97.477422
500.0000,107.538537
501.0000,121.368773
502.0000,132.312497
503.0000,157.768962
504.0000,152.282184
505.0000,161.904460
506.0000,183.038938
507.0000,203.865863
508.0000,225.358935
509.0000,270.642668
510.0000,279.503549
511.0000,320.681032
512.0000,364.736633
513.0000,426.814600
514.0000,513.188204
515.0000,595.879837
516.0000,684.022807
517.0000,794.502907
518.0000,893.062140
519.0000,977.843672
520.0000,1020.673459
521.0000,1034.453410
522.0000,982.166182
523.0000,868.058273
524.0000,781.912304
525.0000,659.069842
526.0000,565.320271
527.0000,499.093355
528.0000,438.099835
529.0000,373.878956
530.0000,318.528092
531.0000,288.319361
532.0000,245.846475
533.0000,230.571525
534.0000,202.391556
535.0000,202.862039
536.0000,181.538528
537.0000,159.129008
538.0000,150.217706
539.0000,133.780471
540.0000,137.507483
541.0000,114.410563
542.0000,124.978330
543.0000,106.500748
544.0000,123.983948
545.0000,96.235695
546.0000,94.635569
547.0000,80.508825
548.0000,94.636340
549.0000,80.764180
550.0000,79.066544
551.0000,76.045684
552.0000,89.752088
553.0000,78.042165
554.0000,63.811193
555.0000,66.847893
556.0000,78.388860
557.0000,71.246898
558.0000,59.186598
559.0000,62.847186
560.0000,64.033964
561.0000,70.488414
562.0000,55.669464
563.0000,58.607965
564.0000,56.958902
565.0000,58.976571
566.0000,43.177572
567.0000,56.430915
568.0000,54.067289
569.0000,59.555797
570.0000,55.467193
571.0000,51.295280
572.0000,56.599454
573.0000,58.386321
574.0000,63.508357
575.0000,53.131111
576.0000,56.753617
577.0000,40.164636
578.0000,73.496840
579.0000,42.786489
580.0000,52.360556
581.0000,58.726887
582.0000,54.779367
583.0000,56.883596
584.0000,61.388095
585.0000,52.286766
586.0000,36.103011
587.0000,45.929087
588.0000,54.449491
589.0000,31.144219
590.0000,43.488269
591.0000,44.728791
592.0000,45.706303
593.0000,44.748013
594.0000,52.109446
595.0000,61.429192
596.0000,40.644212
597.0000,56.941442
598.0000,52.111702
599.0000,29.403142
600.0000,39.970351
601.0000,35.410864
602.0000,43.967338
603.0000,39.201642
604.0000,44.411801
605.0000,51.794192
606.0000,54.913583
607.0000,37.848865
608.0000,39.706746
609.0000,31.402727
610.0000,44.861852
611.0000,40.754350
612.0000,47.327294
613.0000,48.764811
614.0000,36.779844
615.0000,35.357873
616.0000,40.551385
617.0000,40.930715
618.0000,53.668292
619.0000,54.628899
620.0000,36.027077
621.0000,35.283941
622.0000,47.462345
623.0000,46.390543
624.0000,30.189066
625.0000,43.540669
626.0000,38.630467
627.0000,44.395665
628.0000,40.368126
629.0000,40.865834
630.0000,41.770690
631.0000,52.427105
632.0000,42.152934
633.0000,30.561711
634.0000,43.809590
635.0000,22.399997
636.0000,43.949064
637.0000,45.638380
638.0000,51.968865
639.0000,46.189202
640.0000,38.882740
641.0000,36.136889
642.0000,46.646663
643.0000,49.150906
644.0000,43.372062
645.0000,45.444154
646.0000,46.681894
647.0000,43.723536
648.0000,34.337813
649.0000,41.000918
650.0000,29.131931
651.0000,55.757321
652.0000,42.137448
653.0000,38.487164
654.0000,36.523035
655.0000,31.016691
656.0000,30.363244
657.0000,48.137472
658.0000,56.159127
659.0000,44.802979
660.0000,54.559231
661.0000,53.666884
662.0000,51.445569
663.0000,39.706887
664.0000,26.078680
665.0000,47.130432
666.0000,40.229754
667.0000,36.858377
668.0000,43.562264
669.0000,42.175235
670.0000,37.263397
671.0000,48.791945
672.0000,40.613421
673.0000,42.929576
674.0000,46.687219
675.0000,34.580517
676.0000,45.753489
677.0000,45.560734
678.0000,38.704139
679.0000,34.933802
680.0000,38.218440
681.0000,19.758740
682.0000,41.178481
683.0000,41.373452
684.0000,46.008546
685.0000,27.192849
686.0000,40.711556
687.0000,46.009072
688.0000,31.840410
689.0000,38.893329
690.0000,48.874904
691.0000,38.460008
692.0000,40.162475
693.0000,35.713392
694.0000,29.289359
695.0000,44.273245
696.0000,35.227022
697.0000,49.972542
698.0000,32.344849
699.0000,48.402964
700.0000,37.978448
701.0000,37.902187
702.0000,38.951650
703.0000,42.678833
704.0000,37.437457
705.0000,42.762458
706.0000,47.631483
707.0000,44.065320
708.0000,22.964722
709.0000,37.429906
710.0000,36.191566
711.0000,41.285156
712.0000,57.749529
713.0000,36.169001
714.0000,43.178504
715.0000,31.011668
716.0000,38.326323
717.0000,43.400250
718.0000,52.520863
719.0000,48.780506
720.0000,27.375886
721.0000,45.875789
722.0000,47.460427
723.0000,34.731211
724.0000,40.748309
725.0000,32.175198
726.0000,33.445016
727.0000,40.569948
728.0000,54.360481
729.0000,48.707020
730.0000,46.197290
731.0000,43.392900
732.0000,38.003682
733.0000,41.780504
734.0000,43.251147
735.0000,45.389304
736.0000,54.246768
737.0000,56.838759
738.0000,39.950211
739.0000,38.488010
740.0000,38.556052
741.0000,43.675999
742.0000,45.809744
743.0000,39.915854
744.0000,52.224581
745.0000,43.482757
746.0000,39.348557
747.0000,37.337124
748.0000,39.833531
749.0000,39.921712
750.0000,44.083079
751.0000,44.868104
752.0000,44.888246
753.0000,42.844775
754.0000,36.421995
755.0000,37.009702
756.0000,50.687362
757.0000,58.078521
758.0000,37.265852
759.0000,22.239641
760.0000,21.448345
761.0000,26.925150
762.0000,56.019915
763.0000,47.685062
764.0000,40.521757
765.0000,17.616243
766.0000,35.454036
767.0000,29.816254
768.0000,49.668944
769.0000,42.998009
770.0000,51.837298
771.0000,34.404268
772.0000,49.981354
773.0000,54.395506
774.0000,38.286841
775.0000,35.861826
776.0000,47.346682
777.0000,38.685209
778.0000,58.712814
779.0000,34.024403
780.0000,34.571371
781.0000,37.901161
782.0000,36.116347
783.0000,65.137553
784.0000,35.860886
785.0000,52.932935
786.0000,38.236869
787.0000,34.568801
788.0000,37.382302
789.0000,39.397424
790.0000,21.610400
791.0000,41.921284
792.0000,36.545635
793.0000,39.411269
794.0000,36.122450
795.0000,34.036263
796.0000,41.478185
797.0000,33.142948
798.0000,47.807739
799.0000,45.290978
800.0000,46.473438
801.0000,48.187940
802.0000,52.474911
803.0000,38.848200
804.0000,35.502843
805.0000,34.159656
806.0000,34.569953
807.0000,39.009896
808.0000,34.666591
809.0000,48.095914
810.0000,21.107178
811.0000,46.827729
812.0000,33.180747
813.0000,65.323457
814.0000,33.479122
815.0000,48.534658
816.0000,62.545166
817.0000,41.840242
818.0000,42.695509
819.0000,41.745488
820.0000,44.254843
821.0000,43.345000
822.0000,45.077704
823.0000,50.679377
824.0000,41.959821
825.0000,30.393515
826.0000,35.136572
827.0000,32.439595
828.0000,51.038548
829.0000,46.858624
830.0000,53.103891
831.0000,36.457465
832.0000,35.856094
833.0000,42.914876
834.0000,30.849885
835.0000,49.781451
836.0000,33.727093
837.0000,49.888249
838.0000,45.914508
839.0000,48.089311
840.0000,32.962513
841.0000,49.259870
842.0000,51.241723
843.0000,26.803509
844.0000,46.890662
845.0000,44.218205
846.0000,39.209704
847.0000,32.786322
848.0000,39.262547
849.0000,44.658938
850.0000,39.445594
851.0000,40.661073
852.0000,34.996048
853.0000,44.722599
854.0000,34.037085
855.0000,32.524265
856.0000,41.075606
857.0000,30.885777
858.0000,53.509890
859.0000,45.509656
860.0000,35.536392
861.0000,43.009495
862.0000,29.866242
863.0000,41.179640
864.0000,36.624043
865.0000,48.274825
866.0000,60.636730
867.0000,33.016151
868.0000,43.316005
869.0000,33.383585
870.0000,47.064697
871.0000,33.264734
872.0000,59.729123
873.0000,49.864724
874.0000,45.926632
875.0000,38.908364
876.0000,44.678616
877.0000,37.731841
878.0000,33.578381
879.0000,24.711183
880.0000,41.413545
881.0000,44.337441
882.0000,43.157076
883.0000,41.004621
884.0000,32.575780
885.0000,32.843325
886.0000,51.900594
887.0000,35.816684
888.0000,45.770354
889.0000,36.146032
890.0000,36.797120
891.0000,42.940069
892.0000,32.922415
893.0000,49.617017
894.0000,36.821822
895.0000,44.890381
896.0000,49.432505
897.0000,35.636888
898.0000,34.516682
899.0000,39.442153
900.0000,49.049212
901.0000,36.540293
902.0000,22.309425
903.0000,46.435629
904.0000,44.111688
905.0000,51.539514
906.0000,44.240239
907.0000,39.811336
908.0000,28.796663
909.0000,28.433665
910.0000,24.279609
911.0000,43.852427
912.0000,38.678289
913.0000,27.646983
914.0000,38.127017
915.0000,50.801709
916.0000,44.223029
917.0000,32.187865
918.0000,28.787438
919.0000,39.723296
920.0000,33.054284
921.0000,29.104514
922.0000,38.456218
923.0000,37.077502
924.0000,47.841233
925.0000,32.469996
926.0000,45.553051
927.0000,43.054474
928.0000,42.019038
929.0000,29.748855
930.0000,45.665290
931.0000,27.834608
932.0000,42.184947
933.0000,39.610553
934.0000,36.985378
935.0000,35.838437
936.0000,50.085745
937.0000,38.106362
938.0000,45.280843
939.0000,34.959231
940.0000,40.092411
941.0000,27.489717
942.0000,31.138400
943.0000,30.291475
944.0000,41.038787
945.0000,33.115038
946.0000,45.915292
947.0000,25.574627
948.0000,37.136790
949.0000,37.545179
950.0000,40.632924
951.0000,38.573892
952.0000,36.806283
953.0000,30.002449
954.0000,48.343844
955.0000,50.918080
956.0000,42.124616
957.0000,39.119143
958.0000,49.117802
959.0000,42.736257
960.0000,37.924231
961.0000,47.047947
962.0000,49.367794
963.0000,19.372312
964.0000,17.148036
965.0000,39.598030
966.0000,38.455173
967.0000,34.986282
968.0000,52.927968
969.0000,40.420412
970.0000,40.030339
971.0000,34.588859
972.0000,37.364747
973.0000,32.568241
974.0000,35.081628
975.0000,37.320102
976.0000,51.327421
977.0000,49.300906
978.0000,47.014832
979.0000,48.402816
980.0000,25.635277
981.0000,50.553024
982.0000,46.247052
983.0000,54.977013
984.0000,32.067058
985.0000,45.739336
986.0000,26.311567
987.0000,53.055963
988.0000,33.009353
989.0000,44.477330
990.0000,45.793833
991.0000,29.426678
992.0000,20.995641
993.0000,28.959106
994.0000,43.640524
995.0000,39.852246
996.0000,22.200005
997.0000,35.896263
998.0000,40.738107
999.0000,60.338061
1000.0000,43.917392
1001.0000,28.653214
1002.0000,40.318597
1003.0000,27.785322
1004.0000,36.222033
1005.0000,37.615941
1006.0000,26.942921
1007.0000,50.221344
1008.0000,27.184568
1009.0000,37.351305
1010.0000,38.969029
1011.0000,47.764465
1012.0000,46.582429
1013.0000,46.159224
1014.0000,51.577004
1015.0000,35.472407
1016.0000,44.398991
1017.0000,28.263881
1018.0000,50.189189
1019.0000,38.499335
1020.0000,29.459244
1021.0000,50.499384
1022.0000,50.250781
1023.0000,59.100199
1024.0000,49.910208
1025.0000,43.350450
1026.0000,30.667931
1027.0000,56.647229
1028.0000,32.399886
1029.0000,33.796751
1030.0000,39.778381
1031.0000,50.675402
1032.0000,36.754211
1033.0000,53.481163
1034.0000,34.806054
1035.0000,37.627541
1036.0000,32.526137
1037.0000,38.382346
1038.0000,32.117593
1039.0000,31.905881
1040.0000,32.370909
1041.0000,33.971347
1042.0000,54.380522
1043.0000,32.721686
1044.0000,38.975223
1045.0000,36.847680
1046.0000,31.293526
1047.0000,24.547294
1048.0000,46.465093
1049.0000,38.300530
1050.0000,41.600185
1051.0000,38.991683
1052.0000,36.964874
1053.0000,38.294961
1054.0000,38.926537
1055.0000,41.706642
1056.0000,46.603986
1057.0000,27.362434
1058.0000,50.098307
1059.0000,41.160453
1060.0000,40.489601
1061.0000,41.328932
1062.0000,35.346940
1063.0000,39.005045
1064.0000,44.740533
1065.0000,35.772132
1066.0000,23.812844
1067.0000,35.971106
1068.0000,39.335850
1069.0000,37.538590
1070.0000,30.175052
1071.0000,39.025575
1072.0000,37.161839
1073.0000,32.586179
1074.0000,57.694819
1075.0000,43.974717
1076.0000,30.509722
1077.0000,32.159411
1078.0000,33.253285
1079.0000,38.806602
1080.0000,32.734471
1081.0000,46.590466
1082.0000,33.779724
1083.0000,51.356529
1084.0000,41.282585
1085.0000,30.433543
1086.0000,43.058304
1087.0000,50.837809
1088.0000,32.817277
1089.0000,37.596525
1090.0000,32.214386
1091.0000,53.318683
1092.0000,35.499067
1093.0000,43.163160
1094.0000,53.408394
1095.0000,31.600374
1096.0000,37.841811
1097.0000,44.395012
1098.0000,45.035924
1099.0000,43.123450
1100.0000,48.354039
1101.0000,37.359351
1102.0000,23.698053
1103.0000,32.249253
1104.0000,39.878837
1105.0000,38.077315
1106.0000,31.697320
1107.0000,42.150862
1108.0000,38.989637
1109.0000,47.104836
1110.0000,46.638800
1111.0000,37.429054
1112.0000,48.140657
1113.0000,31.320323
1114.0000,39.483806
1115.0000,48.761203
1116.0000,30.441043
1117.0000,37.407411
1118.0000,46.612321
1119.0000,40.839688
1120.0000,62.509258
1121.0000,37.726797
1122.0000,38.273147
1123.0000,51.597587
1124.0000,47.085182
1125.0000,44.073558
1126.0000,31.804471
1127.0000,43.506422
1128.0000,34.105194
1129.0000,36.406969
1130.0000,56.969553
1131.0000,50.179523
1132.0000,54.742129
1133.0000,50.524127
1134.0000,43.486747
1135.0000,35.368894
1136.0000,39.629928
1137.0000,26.740184
1138.0000,41.630915
1139.0000,29.165910
1140.0000,33.427223
1141.0000,36.095827
1142.0000,39.479780
1143.0000,34.381354
1144.0000,40.062565
1145.0000,39.710817
1146.0000,39.227280
1147.0000,45.730431
1148.0000,27.949393
1149.0000,33.742277
1150.0000,36.501217
1151.0000,36.382182
1152.0000,45.535237
1153.0000,36.091016
1154.0000,53.701442
1155.0000,44.124130
1156.0000,48.890006
1157.0000,37.906462
1158.0000,53.489910
1159.0000,30.620264
1160.0000,40.522479
1161.0000,40.175920
1162.0000,36.547534
1163.0000,35.525093
1164.0000,44.959882
1165.0000,49.898261
1166.0000,46.248072
1167.0000,32.164404
1168.0000,37.463999
1169.0000,61.845852
1170.0000,44.181077
1171.0000,55.794418
1172.0000,27.372600
1173.0000,30.847131
1174.0000,38.404750
1175.0000,57.992164
1176.0000,40.979809
1177.0000,45.242516
1178.0000,41.466520
1179.0000,52.381779
1180.0000,39.645057
1181.0000,37.194188
1182.0000,43.748759
1183.0000,49.668014
1184.0000,29.175324
1185.0000,44.657180
1186.0000,35.812054
1187.0000,38.192866
1188.0000,39.881215
1189.0000,38.128537
1190.0000,40.896201
1191.0000,52.534783
1192.0000,32.628978
1193.0000,44.489170
1194.0000,41.652579
1195.0000,30.525551
1196.0000,22.223160
1197.0000,36.860628
1198.0000,42.178403
1199.0000,40.075909
1200.0000,43.250888
1201.0000,29.131276
1202.0000,44.772778
1203.0000,35.460385
1204.0000,33.661539
1205.0000,41.545866
1206.0000,28.936519
1207.0000,48.331466
1208.0000,38.179376
1209.0000,23.798339
1210.0000,35.985684
1211.0000,34.354329
1212.0000,33.575077
1213.0000,29.644501
1214.0000,48.145284
1215.0000,38.393073
1216.0000,44.146828
1217.0000,35.521018
1218.0000,36.861160
1219.0000,40.878247
1220.0000,51.159747
1221.0000,44.446433
1222.0000,44.346772
1223.0000,47.887057
1224.0000,44.605937
1225.0000,33.962447
1226.0000,45.477957
1227.0000,32.801086
1228.0000,40.983354
1229.0000,33.562781
1230.0000,37.311935
1231.0000,52.416584
1232.0000,32.155797
1233.0000,48.116407
1234.0000,34.045307
1235.0000,36.886310
1236.0000,45.386287
1237.0000,27.603401
1238.0000,39.951428
1239.0000,50.457866
1240.0000,31.207636
1241.0000,37.465448
1242.0000,39.119004
1243.0000,36.032907
1244.0000,48.100516
1245.0000,33.232776
1246.0000,57.298766
1247.0000,40.193132
1248.0000,36.128663
1249.0000,38.932550
1250.0000,36.215109
1251.0000,43.163675
1252.0000,38.198645
1253.0000,55.450527
1254.0000,40.974177
1255.0000,33.693828
1256.0000,36.661432
1257.0000,36.958489
1258.0000,43.441306
1259.0000,35.886832
1260.0000,27.337578
1261.0000,44.580566
1262.0000,39.807232
1263.0000,43.796296
1264.0000,39.563917
1265.0000,46.239809
1266.0000,46.171447
1267.0000,45.687150
1268.0000,36.122192
1269.0000,50.188869
1270.0000,28.162902
1271.0000,48.634247
1272.0000,36.099561
1273.0000,31.519327
1274.0000,44.949398
1275.0000,64.722195
1276.0000,31.165413
1277.0000,38.727634
1278.0000,44.524694
1279.0000,32.196387
1280.0000,41.702565
1281.0000,36.905204
1282.0000,35.817015
1283.0000,51.594173
1284.0000,35.081441
1285.0000,44.366225
1286.0000,40.036529
1287.0000,35.274097
1288.0000,39.200321
1289.0000,41.527942
1290.0000,47.310110
1291.0000,47.084239
1292.0000,47.526127
1293.0000,38.441312
1294.0000,45.699332
1295.0000,45.854114
1296.0000,43.290997
1297.0000,54.991795
1298.0000,36.038154
1299.0000,31.645083
1300.0000,34.048670
1301.0000,47.353845
1302.0000,49.242081
1303.0000,33.216606
1304.0000,46.186423
1305.0000,40.927395
1306.0000,52.160244
1307.0000,41.713552
1308.0000,30.014877
1309.0000,49.669743
1310.0000,37.364453
1311.0000,34.896046
1312.0000,37.556684
1313.0000,32.273027
1314.0000,36.749051
1315.0000,38.024553
1316.0000,24.814240
1317.0000,39.464886
1318.0000,29.036849
1319.0000,44.673166
1320.0000,46.052469
1321.0000,39.478705
1322.0000,38.218804
1323.0000,36.864670
1324.0000,54.884370
1325.0000,37.514713
1326.0000,54.510326
1327.0000,38.594809
1328.0000,30.164015
1329.0000,35.263025
1330.0000,56.340161
1331.0000,40.326699
1332.0000,42.160956
1333.0000,32.508260
1334.0000,36.808077
1335.0000,43.716071
1336.0000,36.668550
1337.0000,35.503232
1338.0000,40.021092
1339.0000,38.407744
1340.0000,36.949773
1341.0000,39.152880
1342.0000,52.925645
1343.0000,23.770105
1344.0000,46.379974
1345.0000,26.831254
1346.0000,34.810121
1347.0000,43.712292
1348.0000,48.279139
1349.0000,35.870995
1350.0000,50.399473
1351.0000,43.808508
1352.0000,33.875191
1353.0000,26.698703
1354.0000,47.297115
1355.0000,41.207499
1356.0000,50.789602
1357.0000,33.398795
1358.0000,35.547311
1359.0000,47.595934
1360.0000,33.890085
1361.0000,35.892699
1362.0000,43.837844
1363.0000,28.963047
1364.0000,46.170224
1365.0000,51.853153
1366.0000,33.924043
1367.0000,53.692687
1368.0000,29.912753
1369.0000,39.941387
1370.0000,44.732050
1371.0000,20.415746
1372.0000,44.309598
1373.0000,41.967174
1374.0000,40.966509
1375.0000,44.934819
1376.0000,63.265670
1377.0000,38.592181
1378.0000,49.132445
1379.0000,29.285601
1380.0000,50.265198
1381.0000,32.611683
1382.0000,36.783702
1383.0000,37.776431
1384.0000,43.392053
1385.0000,36.619662
1386.0000,34.543598
1387.0000,35.186689
1388.0000,36.305174
1389.0000,25.886737
1390.0000,26.090275
1391.0000,48.481415
1392.0000,39.841737
1393.0000,37.681568
1394.0000,39.064906
1395.0000,53.874166
1396.0000,33.715321
1397.0000,32.018066
1398.0000,49.198492
1399.0000,49.388129
1400.0000,28.337497
1401.0000,34.748292
1402.0000,36.309989
1403.0000,47.383283
1404.0000,47.577121
1405.0000,40.954888
1406.0000,50.121700
1407.0000,40.660398
1408.0000,45.482508
1409.0000,29.011799
1410.0000,37.870919
1411.0000,42.610087
1412.0000,34.860682
1413.0000,42.863766
1414.0000,41.450349
1415.0000,43.534179
1416.0000,38.634258
1417.0000,38.904627
1418.0000,37.190746
1419.0000,49.618396
1420.0000,45.388141
1421.0000,40.225922
1422.0000,46.921778
1423.0000,33.233176
1424.0000,45.709472
1425.0000,45.422164
1426.0000,37.864474
1427.0000,34.813485
1428.0000,28.145048
1429.0000,45.847821
1430.0000,23.161217
1431.0000,41.920371
1432.0000,35.115627
1433.0000,32.570117
1434.0000,37.783237
1435.0000,54.041585
1436.0000,41.477707
1437.0000,55.941204
1438.0000,39.643370
1439.0000,46.120677
1440.0000,37.208484
1441.0000,39.429655
1442.0000,39.259870
1443.0000,23.931495
1444.0000,41.405220
1445.0000,44.853513
1446.0000,37.357215
1447.0000,32.503092
1448.0000,46.277534
1449.0000,42.231356
1450.0000,29.700575
1451.0000,40.139501
1452.0000,44.734074
1453.0000,29.692917
1454.0000,48.466325
1455.0000,42.074192
1456.0000,46.488354
1457.0000,36.729742
1458.0000,42.588919
1459.0000,43.214737
1460.0000,44.518451
1461.0000,33.108728
1462.0000,32.729643
1463.0000,47.606843
1464.0000,37.214372
1465.0000,52.865016
1466.0000,43.204611
1467.0000,47.039620
1468.0000,49.261329
1469.0000,31.864411
1470.0000,33.845605
1471.0000,38.169405
1472.0000,42.283686
1473.0000,44.557537
1474.0000,39.888131
1475.0000,43.414577
1476.0000,56.200777
1477.0000,42.869465
1478.0000,46.901642
1479.0000,31.009036
1480.0000,37.624170
1481.0000,35.385122
1482.0000,34.615990
1483.0000,39.623603
1484.0000,23.905209
1485.0000,40.025010
1486.0000,53.929501
1487.0000,37.781409
1488.0000,33.668617
1489.0000,34.165933
1490.0000,34.632591
1491.0000,39.177549
1492.0000,44.098095
1493.0000,21.999431
1494.0000,47.203503
1495.0000,33.136159
1496.0000,30.029486
1497.0000,48.502213
1498.0000,47.038708
1499.0000,49.638503
1500.0000,39.460919
1501.0000,33.105279
1502.0000,40.067735
1503.0000,42.037718
1504.0000,38.242883
1505.0000,47.217118
1506.0000,28.564884
1507.0000,44.480299
1508.0000,39.184976
1509.0000,33.815969
1510.0000,37.634786
1511.0000,22.002306
1512.0000,41.143368
1513.0000,51.857660
1514.0000,44.507293
1515.0000,37.788152
1516.0000,29.923298
1517.0000,45.092702
1518.0000,41.303944
1519.0000,32.487948
1520.0000,50.787630
1521.0000,34.649644
1522.0000,45.167113
1523.0000,46.899512
1524.0000,20.119935
1525.0000,30.560175
1526.0000,51.486558
1527.0000,41.178084
1528.0000,34.855996
1529.0000,26.273003
1530.0000,39.087884
1531.0000,33.183515
1532.0000,37.981825
1533.0000,47.437503
1534.0000,18.393623
1535.0000,53.876706
1536.0000,58.736863
1537.0000,49.277847
1538.0000,34.621411
1539.0000,52.370704
1540.0000,23.748339
1541.0000,29.946242
1542.0000,45.242928
1543.0000,45.598851
1544.0000,44.206261
1545.0000,51.499992
1546.0000,35.296240
1547.0000,44.807531
1548.0000,40.805116
1549.0000,28.910560
1550.0000,33.624314
1551.0000,35.176299
1552.0000,44.501074
1553.0000,43.825562
1554.0000,24.117791
1555.0000,41.966915
1556.0000,38.945740
1557.0000,58.332721
1558.0000,35.164312
1559.0000,22.650098
1560.0000,44.532589
1561.0000,52.635701
1562.0000,44.754078
1563.0000,35.083252
1564.0000,36.166544
1565.0000,28.489966
1566.0000,32.249931
1567.0000,35.503917
1568.0000,58.653928
1569.0000,36.501531
1570.0000,30.544972
1571.0000,33.643613
1572.0000,52.796247
1573.0000,48.987911
1574.0000,30.594297
1575.0000,33.966528
1576.0000,45.068906
1577.0000,49.595105
1578.0000,40.506730
1579.0000,35.385905
1580.0000,28.002808
1581.0000,51.746739
1582.0000,39.599549
1583.0000,41.423045
1584.0000,48.435063
1585.0000,41.686537
1586.0000,40.219465
1587.0000,58.918800
1588.0000,45.053042
1589.0000,46.220426
1590.0000,37.992029
1591.0000,39.377541
1592.0000,40.357170
1593.0000,46.475035
1594.0000,42.281936
1595.0000,34.127547
1596.0000,48.424565
1597.0000,29.240060
1598.0000,53.447242
1599.0000,41.615741
1600.0000,43.649296
1601.0000,28.937917
1602.0000,54.650788
1603.0000,51.049136
1604.0000,40.603069
1605.0000,42.690473
1606.0000,17.589726
1607.0000,49.000354
1608.0000,28.888356
1609.0000,38.087937
1610.0000,40.478251
1611.0000,49.814965
1612.0000,42.380466
1613.0000,36.593798
1614.0000,45.473744
1615.0000,36.591546
1616.0000,27.768872
1617.0000,43.601603
1618.0000,51.695809
1619.0000,34.245793
1620.0000,50.191889
1621.0000,28.002969
1622.0000,41.482376
1623.0000,25.805845
1624.0000,42.693306
1625.0000,47.978048
1626.0000,46.691543
1627.0000,46.279752
1628.0000,31.194901
1629.0000,25.032545
1630.0000,47.661859
1631.0000,36.674236
1632.0000,41.229690
1633.0000,33.500836
1634.0000,31.907494
1635.0000,24.191392
1636.0000,26.502059
1637.0000,38.956844
1638.0000,52.522461
1639.0000,35.003814
1640.0000,39.022031
1641.0000,29.214943
1642.0000,47.627769
1643.0000,32.529396
1644.0000,41.712735
1645.0000,28.499686
1646.0000,39.028240
1647.0000,28.280252
1648.0000,46.015023
1649.0000,44.645128
1650.0000,30.690737
1651.0000,48.952441
1652.0000,43.602213
1653.0000,53.831253
1654.0000,47.969674
1655.0000,33.356206
1656.0000,48.421007
1657.0000,24.687248
1658.0000,38.515810
1659.0000,35.549697
1660.0000,47.803133
1661.0000,39.553668
1662.0000,30.988670
1663.0000,51.994173
1664.0000,31.975030
1665.0000,39.531001
1666.0000,35.796191
1667.0000,47.290858
1668.0000,29.779216
1669.0000,27.551915
1670.0000,43.288170
1671.0000,30.817488
1672.0000,39.938712
1673.0000,36.451082
1674.0000,42.502164
1675.0000,39.479449
1676.0000,53.423186
1677.0000,53.918060
1678.0000,32.071720
1679.0000,35.106315
1680.0000,28.274118
1681.0000,34.947896
1682.0000,21.601052
1683.0000,29.556996
1684.0000,40.646263
1685.0000,35.096056
1686.0000,48.005072
1687.0000,44.218316
1688.0000,31.285884
1689.0000,39.084707
1690.0000,63.851272
1691.0000,31.859935
1692.0000,34.783988
1693.0000,26.004756
1694.0000,28.348121
1695.0000,42.832993
1696.0000,39.576778
1697.0000,30.846064
1698.0000,31.477358
1699.0000,43.612953
1700.0000,51.899821
1701.0000,43.995591
1702.0000,42.222432
1703.0000,56.081582
1704.0000,20.959749
1705.0000,35.882680
1706.0000,52.649130
1707.0000,37.418060
1708.0000,35.554658
1709.0000,37.111761
1710.0000,41.048308
1711.0000,26.372319
1712.0000,51.627967
1713.0000,46.107475
1714.0000,27.556587
1715.0000,31.062816
1716.0000,58.179087
1717.0000,41.396582
1718.0000,35.251740
1719.0000,44.974807
1720.0000,41.076863
1721.0000,35.428325
1722.0000,35.725625
1723.0000,43.161642
1724.0000,48.306193
1725.0000,43.491671
1726.0000,52.287979
1727.0000,42.418408
1728.0000,48.551800
1729.0000,28.893894
1730.0000,47.183157
1731.0000,38.816552
1732.0000,38.334044
1733.0000,37.513091
1734.0000,37.289600
1735.0000,41.097477
1736.0000,40.448238
1737.0000,33.657302
1738.0000,21.486721
1739.0000,43.568432
1740.0000,46.030460
1741.0000,37.346040
1742.0000,45.003476
1743.0000,48.978233
1744.0000,52.356055
1745.0000,52.800978
1746.0000,40.426579
1747.0000,46.986752
1748.0000,35.459750
1749.0000,24.715989
1750.0000,38.447178
1751.0000,37.409117
1752.0000,37.083173
1753.0000,36.783297
1754.0000,53.857211
1755.0000,34.028367
1756.0000,52.195649
1757.0000,40.988644
1758.0000,52.549436
1759.0000,49.666396
1760.0000,38.292537
1761.0000,34.979960
1762.0000,45.208818
1763.0000,54.537605
1764.0000,24.961186
1765.0000,36.855432
1766.0000,37.156507
1767.0000,29.722713
1768.0000,45.739689
1769.0000,57.243341
1770.0000,36.048464
1771.0000,37.434811
1772.0000,39.804592
1773.0000,36.658573
1774.0000,43.152675
1775.0000,39.566643
1776.0000,34.497152
1777.0000,49.781290
1778.0000,37.826780
1779.0000,33.515705
1780.0000,30.600351
1781.0000,30.651287
1782.0000,50.023629
1783.0000,45.002681
1784.0000,32.476328
1785.0000,41.152042
1786.0000,43.899419
1787.0000,47.111556
1788.0000,28.210291
1789.0000,51.199279
1790.0000,39.017356
1791.0000,35.542512
1792.0000,32.003619
1793.0000,30.447909
1794.0000,35.437028
1795.0000,52.144704
1796.0000,39.874980
1797.0000,39.067504
1798.0000,46.709322
1799.0000,49.518051
1800.0000,49.318513
1801.0000,46.337816
1802.0000,45.287334
1803.0000,44.725510
1804.0000,41.121184
1805.0000,35.437360
1806.0000,42.432566
1807.0000,38.155732
1808.0000,31.309532
1809.0000,45.924313
1810.0000,45.297620
1811.0000,43.478128
1812.0000,47.747483
1813.0000,39.408476
1814.0000,43.067354
1815.0000,34.587876
1816.0000,51.377115
1817.0000,50.532973
1818.0000,33.485670
1819.0000,54.930989
1820.0000,39.745791
1821.0000,44.729932
1822.0000,35.259761
1823.0000,56.345328
1824.0000,34.776080
1825.0000,43.813545
1826.0000,39.590140
1827.0000,41.635387
1828.0000,32.759623
1829.0000,44.549015
1830.0000,39.371467
1831.0000,38.723394
1832.0000,36.421242
1833.0000,46.718262
1834.0000,50.649064
1835.0000,48.392627
1836.0000,34.191308
1837.0000,39.643953
1838.0000,42.534426
1839.0000,46.643787
1840.0000,37.008325
1841.0000,55.390392
1842.0000,38.464805
1843.0000,51.518171
1844.0000,51.787805
1845.0000,37.928814
1846.0000,40.276867
1847.0000,58.218395
1848.0000,61.320696
1849.0000,45.253772
1850.0000,47.699241
1851.0000,41.022995
1852.0000,46.070314
1853.0000,31.707298
1854.0000,38.955403
1855.0000,46.319430
1856.0000,39.218653
1857.0000,53.947201
1858.0000,41.815572
1859.0000,48.376936
1860.0000,26.567844
1861.0000,39.275567
1862.0000,39.329930
1863.0000,25.640172
1864.0000,42.592978
1865.0000,51.621279
1866.0000,36.984211
1867.0000,29.040129
1868.0000,29.846777
1869.0000,51.679562
1870.0000,34.448314
1871.0000,27.607545
1872.0000,31.093026
1873.0000,37.571075
1874.0000,34.490028
1875.0000,30.597511
1876.0000,36.074100
1877.0000,51.853142
1878.0000,49.860167
1879.0000,27.503915
1880.0000,42.977344
1881.0000,40.319792
1882.0000,30.121175
1883.0000,26.882530
1884.0000,30.309180
1885.0000,47.602479
1886.0000,56.047060
1887.0000,37.969711
1888.0000,37.012098
1889.0000,33.089793
1890.0000,25.025693
1891.0000,35.152883
1892.0000,36.863760
1893.0000,50.657313
1894.0000,24.213717
1895.0000,51.156380
1896.0000,43.641383
1897.0000,38.833965
1898.0000,45.225580
1899.0000,39.851810
1900.0000,36.247894
1901.0000,41.685585
1902.0000,29.566367
1903.0000,41.488717
1904.0000,34.320145
1905.0000,47.017609
1906.0000,41.284649
1907.0000,33.578944
1908.0000,38.079597
1909.0000,38.367809
1910.0000,38.146695
1911.0000,47.072855
1912.0000,24.217294
1913.0000,33.146057
1914.0000,48.587070
1915.0000,32.552212
1916.0000,49.188476
1917.0000,44.927701
1918.0000,42.638024
1919.0000,50.417062
1920.0000,42.231682
1921.0000,40.157635
1922.0000,58.028615
1923.0000,37.975333
1924.0000,41.421465
1925.0000,48.607557
1926.0000,51.670894
1927.0000,34.562794
1928.0000,43.470891
1929.0000,40.448436
1930.0000,49.461136
1931.0000,39.028632
1932.0000,37.919665
1933.0000,42.739515
1934.0000,27.127631
1935.0000,31.916991
1936.0000,39.997856
1937.0000,63.669063
1938.0000,38.226921
1939.0000,35.581817
1940.0000,34.364592
1941.0000,50.509974
1942.0000,41.134279
1943.0000,41.250224
1944.0000,28.145541
1945.0000,29.156546
1946.0000,35.423389
1947.0000,38.269876
1948.0000,37.810270
1949.0000,27.351848
1950.0000,26.590330
1951.0000,54.996187
1952.0000,25.582920
1953.0000,32.547962
1954.0000,38.192955
1955.0000,37.255950
1956.0000,37.126058
1957.0000,41.613585
1958.0000,53.543483
1959.0000,37.502339
1960.0000,31.397153
1961.0000,38.305749
1962.0000,29.495405
1963.0000,31.889260
1964.0000,54.866175
1965.0000,44.173065
1966.0000,32.842409
1967.0000,39.118651
1968.0000,51.677928
1969.0000,40.611652
1970.0000,52.920338
1971.0000,35.820442
1972.0000,42.017148
1973.0000,30.700775
1974.0000,35.513410
1975.0000,40.523196
1976.0000,30.087575
1977.0000,28.109689
1978.0000,36.067897
1979.0000,38.760849
1980.0000,26.248960
1981.0000,37.997233
1982.0000,42.086838
1983.0000,35.205367
1984.0000,50.249305
1985.0000,52.488017
1986.0000,31.224023
1987.0000,43.086687
1988.0000,34.476679
1989.0000,41.423196
1990.0000,25.557387
1991.0000,37.914434
1992.0000,35.943824
1993.0000,45.222511
1994.0000,33.260564
1995.0000,36.773181
1996.0000,41.111307
1997.0000,28.588246
1998.0000,44.764600
1999.0000,37.608233
2000.0000,37.404236
