pixel_index,raman_shift_cm-1,intensity
0,200.000,-2.985458421959038
1,201.000,-9.53416816044546
2,202.000,-9.195675916277764
3,203.000,-22.899987189187414
4,204.000,-9.18216344379448
5,205.000,-14.872977109659985
6,206.000,-7.4387605813384425
7,207.000,-20.257943218430228
8,208.000,-18.746191345633974
9,209.000,-22.50149125279887
10,210.000,-23.221142194977347
11,211.000,-15.504000392477394
12,212.000,-13.029402030914753
13,213.000,-25.4595412612656
14,214.000,-6.120961199919009
15,215.000,-15.695219928729045
16,216.000,-17.81782449506744
17,217.000,-18.62493091187605
18,218.000,-10.519847157719084
19,219.000,-21.822226176835613
20,220.000,-19.74660387919198
21,221.000,-19.739921140534364
22,222.000,-14.592419802440759
23,223.000,-15.270980672373923
24,224.000,-22.997665523733644
25,225.000,-8.890860095908806
26,226.000,-12.754515094330259
27,227.000,-18.159454190523206
28,228.000,-10.36279802215887
29,229.000,-9.841254193108284
30,230.000,-14.284368273493385
31,231.000,-14.585518799740385
32,232.000,-6.874879274631326
33,233.000,-6.694132167357338
34,234.000,-13.183408913570702
35,235.000,-13.865588915436774
36,236.000,-8.95714154168752
37,237.000,-22.677887127672648
38,238.000,-12.34609097541329
39,239.000,-16.16750735365349
40,240.000,-5.232895497912864
41,241.000,1.9836843894610183
42,242.000,-9.06289986076024
43,243.000,9.093542615262322
44,244.000,-7.981135285617711
45,245.000,3.8885473664154233
46,246.000,-11.614081465912477
47,247.000,-3.877807787018128
48,248.000,-3.0020535685134746
49,249.000,-12.139097749257871
50,250.000,2.7064497645900474
51,251.000,3.892394099518583
52,252.000,-8.376832585387888
53,253.000,4.895369901497588
54,254.000,0.2400267842924677
55,255.000,-2.1646416804475166
56,256.000,7.997137796218908
57,257.000,8.041357535566135
58,258.000,12.080424891149846
59,259.000,-0.025531751246262502
60,260.000,17.811583026337644
61,261.000,5.4275656739849865
62,262.000,24.69344567385042
63,263.000,21.9427275401074
64,264.000,24.80250181889528
65,265.000,23.739833088267915
66,266.000,34.939490958140254
67,267.000,38.72144107023678
68,268.000,38.67818209803795
69,269.000,54.73765874672915
70,270.000,43.74535175314725
71,271.000,74.37540788572835
72,272.000,84.243751944456
73,273.000,97.2746827608081
74,274.000,118.67967519770434
75,275.000,153.67332514945508
76,276.000,167.56014154170714
77,277.000,199.33255733139242
78,278.000,227.8925255066756
79,279.000,262.85826608690115
80,280.000,301.2843231225413
81,281.000,310.8667586951435
82,282.000,321.0576869172779
83,283.000,326.2815929324853
84,284.000,296.53051891522443
85,285.000,267.1946080708192
86,286.000,239.5175136354071
87,287.000,187.96851087588595
88,288.000,169.51230508986237
89,289.000,144.3793926055987
90,290.000,121.08058878196027
91,291.000,104.29567100836414
92,292.000,95.00009370472549
93,293.000,68.00218732140615
94,294.000,60.42470033916152
95,295.000,57.90825726908827
96,296.000,44.75218865257227
97,297.000,44.931278061235616
98,298.000,34.04013609688502
99,299.000,22.5948033914583
100,300.000,35.3411506069732
101,301.000,12.45364743547384
102,302.000,6.293782598979078
103,303.000,31.979189849429645
104,304.000,31.402280968635864
105,305.000,4.2511217682255165
106,306.000,5.618558089590806
107,307.000,17.57897280383679
108,308.000,1.7861278117279653
109,309.000,5.779665043636555
110,310.000,8.137502459489951
111,311.000,1.2908260487182588
112,312.000,-0.9909681697982933
113,313.000,-5.614001147781323
114,314.000,0.7923961923925162
115,315.000,5.014005957640165
116,316.000,-1.1250987158814496
117,317.000,4.003477337173308
118,318.000,10.731623311285716
119,319.000,-6.229846569979827
120,320.000,3.7488629459722915
121,321.000,-6.510361859284217
122,322.000,-1.5696106752486685
123,323.000,0.45421083745213764
124,324.000,-5.195875952986512
125,325.000,-0.33512264960063476
126,326.000,-6.030510826710042
127,327.000,-3.1104850299703912
128,328.000,6.793602223574226
129,329.000,7.093377445438932
130,330.000,-1.5118738243544385
131,331.000,-3.506155017329661
132,332.000,2.3029344633912388
133,333.000,5.587370243035934
134,334.000,-5.495846024870957
135,335.000,-9.424176658559986
136,336.000,-5.842063948069608
137,337.000,-4.966125155298414
138,338.000,5.34679948594237
139,339.000,-2.443439230123431
140,340.000,-15.456906481289138
141,341.000,-5.196556417418492
142,342.000,-0.8073891604971095
143,343.000,-2.5136808046853503
144,344.000,-5.76421241637081
145,345.000,-7.043134034220316
146,346.000,-17.276220669232657
147,347.000,-8.330959304791463
148,348.000,7.339295103283348
149,349.000,2.184410626682734
150,350.000,-11.472206635444195
151,351.000,-15.03624055654268
152,352.000,-17.688188982703196
153,353.000,-3.1486897327167753
154,354.000,-4.856117598124115
155,355.000,-1.9744333432709027
156,356.000,5.8311892946420585
157,357.000,-6.682785394495227
158,358.000,-8.518304093753159
159,359.000,-8.085869459216156
160,360.000,-8.588215120033851
161,361.000,-9.347140678474375
162,362.000,-8.879233709976234
163,363.000,-4.886726763201295
164,364.000,-2.1177353600867264
165,365.000,6.395719004102716
166,366.000,-17.820612139278524
167,367.000,-7.053351232308614
168,368.000,-9.369662690550172
169,369.000,2.3725560968955506
170,370.000,-7.461502232661815
171,371.000,-9.07865101555501
172,372.000,-7.6279725618124985
173,373.000,-0.8849971552087936
174,374.000,3.208238946681149
175,375.000,-3.5629934875692015
176,376.000,-2.571960663291179
177,377.000,-8.04620575977276
178,378.000,-0.8409039303113559
179,379.000,1.7779736977338416
180,380.000,-1.4073999771102308
181,381.000,-2.0269510304835876
182,382.000,-6.486060512244649
183,383.000,-4.275336446523852
184,384.000,-9.64537783177525
185,385.000,-8.02253464082878
186,386.000,-13.445046820943503
187,387.000,-5.072145293859194
188,388.000,-21.021160955849382
189,389.000,2.4421563222265377
190,390.000,-4.276446305128729
191,391.000,-0.23033165810363698
192,392.000,0.3631914683699051
193,393.000,-7.5938956954346395
194,394.000,8.89208010590744
195,395.000,0.6405741529206352
196,396.000,-9.459338248823428
197,397.000,-5.51539176875815
198,398.000,-11.818155051374902
199,399.000,-10.515517716274758
200,400.000,-6.359155358221642
201,401.000,-9.129919547194277
202,402.000,-7.72908582843877
203,403.000,-10.462286722520844
204,404.000,0.34984427462177337
205,405.000,8.104216691626107
206,406.000,-7.333236918346984
207,407.000,-11.394853977666685
208,408.000,-5.026572884283837
209,409.000,-3.598298011783413
210,410.000,-4.258144709437261
211,411.000,-19.116715302256125
212,412.000,3.7944369089575503
213,413.000,-1.7181973524425302
214,414.000,-6.055961338998827
215,415.000,1.061764720797214
216,416.000,-12.228677377547228
217,417.000,5.4681371854220515
218,418.000,-3.3355977469474283
219,419.000,-3.441297307466243
220,420.000,6.674456394844128
221,421.000,5.942197274698856
222,422.000,9.141174270497572
223,423.000,-0.5112206557284935
224,424.000,4.12493448163184
225,425.000,0.3536996917165425
226,426.000,1.7730150071380422
227,427.000,-8.309211516068785
228,428.000,-1.114457798499302
229,429.000,0.42391026256836994
230,430.000,-2.5391402068785283
231,431.000,4.6615029423592205
232,432.000,-2.7324931173585583
233,433.000,-0.3478531905644786
234,434.000,-17.235957058736062
235,435.000,-11.310563480347582
236,436.000,-0.7045771909230325
237,437.000,-9.484519903088767
238,438.000,-6.718954306624596
239,439.000,-2.084788068518037
240,440.000,4.143922166984908
241,441.000,-10.52226422167405
242,442.000,-5.053472833417004
243,443.000,6.4029307554179695
244,444.000,-8.600060008976925
245,445.000,2.7471213420695904
246,446.000,-2.757101700344492
247,447.000,-3.3134506227480642
248,448.000,-10.353176889347878
249,449.000,-1.6055649420825375
250,450.000,-0.7069132006728296
251,451.000,-0.6492440626764164
252,452.000,-9.744102903538987
253,453.000,-1.4907410766464864
254,454.000,-2.4962039133780536
255,455.000,0.5166892768414755
256,456.000,-1.2235367935101067
257,457.000,-11.005285390106451
258,458.000,-8.452780756822335
259,459.000,-8.15717611578907
260,460.000,3.028255332554977
261,461.000,1.4130204094115015
262,462.000,-9.075263042429924
263,463.000,-17.280478158645337
264,464.000,-1.7320670534273859
265,465.000,-4.675392819538729
266,466.000,3.5701474716366874
267,467.000,-3.142237229961097
268,468.000,-9.1175009531172
269,469.000,-2.9271147053977984
270,470.000,-2.087867473199026
271,471.000,2.0895037781972405
272,472.000,-6.6936738954264
273,473.000,-4.466841417277237
274,474.000,1.5929173103971834
275,475.000,-10.000456593746208
276,476.000,1.2975960098054884
277,477.000,7.589262281364427
278,478.000,-11.338214598007312
279,479.000,-3.0936174265513046
280,480.000,-7.007937981865098
281,481.000,-5.968381020954325
282,482.000,5.08170971971424
283,483.000,10.004146524160547
284,484.000,3.0807636968393126
285,485.000,-0.5366514374128428
286,486.000,-1.5169035334298542
287,487.000,-13.998287225768308
288,488.000,3.9783428712395335
289,489.000,-16.843723836565687
290,490.000,-3.3516289232243253
291,491.000,5.893258057292087
292,492.000,5.890892571025802
293,493.000,5.374196103982172
294,494.000,-6.626210837923054
295,495.000,-9.079766728916638
296,496.000,-12.521777023419645
297,497.000,4.840354843899718
298,498.000,2.665660458073603
299,499.000,-7.091322576217522
300,500.000,6.489227365302554
301,501.000,-7.718339073546531
302,502.000,-12.410601229454983
303,503.000,-3.647530419673558
304,504.000,1.7447560579323635
305,505.000,-6.032813075168519
306,506.000,2.2679499217732655
307,507.000,-7.896516191264027
308,508.000,-16.26286663512542
309,509.000,-3.751638611531803
310,510.000,-4.490312303133464
311,511.000,-2.156611873560337
312,512.000,-2.489366467476998
313,513.000,5.038400789367529
314,514.000,-7.162033209914853
315,515.000,-11.322786553401897
316,516.000,-2.531598310415575
317,517.000,-2.8102495315719125
318,518.000,1.391927751163962
319,519.000,6.9644635244280835
320,520.000,-1.4983202065972137
321,521.000,-3.544114418234358
322,522.000,-4.093296068363088
323,523.000,6.190103903526733
324,524.000,-1.3032894237168193
325,525.000,7.905728047039247
326,526.000,-10.638784568839242
327,527.000,3.6013268621950374
328,528.000,2.142424491815632
329,529.000,-7.1306935102265925
330,530.000,-2.479034956159012
331,531.000,-6.741545640237291
332,532.000,12.54961266120074
333,533.000,-10.931000810316391
334,534.000,2.81777320455285
335,535.000,2.242908982911672
336,536.000,-3.304427180428661
337,537.000,-0.06650297300052443
338,538.000,3.393243935268174
339,539.000,-15.833843107999542
340,540.000,3.2578982623178945
341,541.000,-14.292931571210374
342,542.000,-4.205220208621654
343,543.000,8.415853767388285
344,544.000,-9.925907208586523
345,545.000,-3.3381856847150857
346,546.000,3.102435808017617
347,547.000,-9.493941244241
348,548.000,0.9699286617361622
349,549.000,-5.942530953797018
350,550.000,-2.8647715536110354
351,551.000,-4.801338583554639
352,552.000,-2.0727084726063367
353,553.000,2.685860367072678
354,554.000,9.05203054008689
355,555.000,-4.222054332247126
356,556.000,-6.2834566119519195
357,557.000,-9.52867664444284
358,558.000,0.28896124142158897
359,559.000,-0.4819242667161916
360,560.000,1.8817875352390274
361,561.000,-7.822367632220562
362,562.000,-7.229916032256938
363,563.000,4.678849088262041
364,564.000,5.739723498708827
365,565.000,5.591870984644402
366,566.000,-12.260271652233314
367,567.000,0.48845840585613587
368,568.000,1.4503759927254123
369,569.000,1.1769309581654852
370,570.000,-2.023346832105517
371,571.000,6.259295503504063
372,572.000,-9.645310137593015
373,573.000,-3.6071558422133876
374,574.000,-8.510552681457966
375,575.000,-2.9712197107633074
376,576.000,3.6540370300465383
377,577.000,-0.4397464832929927
378,578.000,-7.742769259539955
379,579.000,2.868582708003032
380,580.000,-1.1191115585650095
381,581.000,-6.3110220217945425
382,582.000,19.164360371060866
383,583.000,3.0238626879929598
384,584.000,-2.3207539878142143
385,585.000,-6.216582558035498
386,586.000,-2.815086909259435
387,587.000,-0.7087429130376677
388,588.000,-4.45429342594025
389,589.000,-9.09209528960605
390,590.000,2.2834896692045277
391,591.000,-7.6329763614437525
392,592.000,5.882456821287178
393,593.000,-2.820927565044258
394,594.000,-2.7919532882096973
395,595.000,-4.381698101366055
396,596.000,-3.2715687431064
397,597.000,-0.9937849375126007
398,598.000,0.48399760579263784
399,599.000,2.6530181915923094
400,600.000,6.445263139023837
401,601.000,-3.329654218474161
402,602.000,-5.320842533213636
403,603.000,-2.747689443310037
404,604.000,2.003620427265105
405,605.000,-1.9797465313672546
406,606.000,-14.030401915047378
407,607.000,-7.4330003056279565
408,608.000,-5.46003427102778
409,609.000,-0.4253683652827931
410,610.000,-7.070346128599567
411,611.000,-1.4122990874070638
412,612.000,-6.095247754409684
413,613.000,-4.192132628639229
414,614.000,3.449207804492744
415,615.000,5.732391073142253
416,616.000,-2.0526902810195224
417,617.000,-11.808414702858727
418,618.000,-13.37998362383064
419,619.000,-0.2769174620329977
420,620.000,-2.4476466222577073
421,621.000,-8.725142496043645
422,622.000,-5.279930461728782
423,623.000,1.2827501154968104
424,624.000,0.4146458835396061
425,625.000,-0.9251664966509452
426,626.000,-2.8877543511346175
427,627.000,3.322333006968165
428,628.000,11.082359277423393
429,629.000,-5.357413827170376
430,630.000,-2.6038825814323445
431,631.000,-2.459288247252516
432,632.000,2.5467499261555986
433,633.000,2.558875702201476
434,634.000,-8.20271814313196
435,635.000,-1.3276748213438623
436,636.000,4.047451468534291
437,637.000,-3.225930460114796
438,638.000,-3.862265781546512
439,639.000,-3.960256657706168
440,640.000,0.027855761717546557
441,641.000,-1.0897536607590155
442,642.000,3.9018579495334507
443,643.000,2.3548684793631764
444,644.000,6.343457827546445
445,645.000,-15.559608095104977
446,646.000,-5.9255133658373325
447,647.000,-8.98474405000593
448,648.000,-6.982064201128878
449,649.000,1.627942139061588
450,650.000,-4.341068059433383
451,651.000,-3.89510481493312
452,652.000,1.9491668658722574
453,653.000,-2.674289012131567
454,654.000,-6.3126954325364295
455,655.000,7.823667632537081
456,656.000,-3.367774777611885
457,657.000,-5.276662612320024
458,658.000,-1.4633178096091797
459,659.000,2.236999703760148
460,660.000,-3.750319987764442
461,661.000,2.5989982114219856
462,662.000,-10.478459591972296
463,663.000,-1.4560072801871229
464,664.000,3.0127242755368115
465,665.000,-0.9799497850945045
466,666.000,7.921117688519644
467,667.000,-9.820640142178945
468,668.000,1.2278478950420322
469,669.000,-5.393757016848895
470,670.000,-11.366937684197637
471,671.000,-4.6959469027185605
472,672.000,5.923069542453732
473,673.000,-6.875478123287394
474,674.000,-2.7844886640734785
475,675.000,-4.478919833614555
476,676.000,2.7551186247508213
477,677.000,-6.021799021998731
478,678.000,-2.2487784966194795
479,679.000,10.795655488345346
480,680.000,1.1578222305136023
481,681.000,-0.49073196238987293
482,682.000,-8.744809772583949
483,683.000,2.9823391277163864
484,684.000,11.325159076245427
485,685.000,-2.4878195793623945
486,686.000,-2.123318481628303
487,687.000,3.887571736721384
488,688.000,-3.6377325472994926
489,689.000,2.1075360530123817
490,690.000,4.255532933995937
491,691.000,10.332880501575119
492,692.000,11.471376171203929
493,693.000,7.196083367816527
494,694.000,-1.1367454742269274
495,695.000,22.34220008880834
496,696.000,10.580261509978754
497,697.000,11.779414251610206
498,698.000,10.060119785245433
499,699.000,25.45553259159169
500,700.000,30.594791160468958
501,701.000,28.97182599075586
502,702.000,33.0446415903391
503,703.000,40.97850747606026
504,704.000,32.699502173663404
505,705.000,57.56651721774165
506,706.000,63.14501615168729
507,707.000,90.360449527637
508,708.000,111.2117609064203
509,709.000,130.11135885750673
510,710.000,175.6905179589544
511,711.000,204.9571977973569
512,712.000,213.87726696779077
513,713.000,203.99485007376325
514,714.000,170.3781837271597
515,715.000,136.6622675481915
516,716.000,106.31029316534386
517,717.000,80.28091021532259
518,718.000,62.846092343002056
519,719.000,50.148439201373094
520,720.000,40.22177445149009
521,721.000,22.370007762419164
522,722.000,25.96603781118438
523,723.000,28.607000282717763
524,724.000,24.841356869804713
525,725.000,10.378110273032235
526,726.000,7.68901620073666
527,727.000,12.078287368951123
528,728.000,12.408341501353334
529,729.000,11.070020329213548
530,730.000,-5.553304408659642
531,731.000,9.484590034030361
532,732.000,12.43617641101514
533,733.000,14.849137483408413
534,734.000,3.6942450196529535
535,735.000,7.633219795470495
536,736.000,0.09917859380675509
537,737.000,8.562222204780937
538,738.000,-6.670360574368033
539,739.000,-1.3134189393335873
540,740.000,-5.266611078792721
541,741.000,2.9285358255392566
542,742.000,-2.1151084011414696
543,743.000,-3.744446926780938
544,744.000,7.966059087480971
545,745.000,-4.746916512742928
546,746.000,5.304456124861645
547,747.000,-5.019666140742402
548,748.000,-7.782132443996943
549,749.000,-14.464743912799577
550,750.000,-1.7228196685568946
551,751.000,1.1978171737641787
552,752.000,-3.8150724944182457
553,753.000,4.930550224649096
554,754.000,1.1854252350003662
555,755.000,-0.8013865531011106
556,756.000,1.2619187767850235
557,757.000,1.8490841472237207
558,758.000,11.742438486850688
559,759.000,-6.728480269677448
560,760.000,-7.69690718173797
561,761.000,2.181809697206745
562,762.000,-1.769526680443505
563,763.000,-7.6728173564786175
564,764.000,-0.8757953669314702
565,765.000,-4.435298742130499
566,766.000,-9.290753506751116
567,767.000,1.81730632013182
568,768.000,-7.044526275009275
569,769.000,0.8673906997933045
570,770.000,-4.954796758049952
571,771.000,6.427613354262576
572,772.000,0.14025804486959714
573,773.000,-0.31779667280397916
574,774.000,-1.0124137800999051
575,775.000,3.3716207468207813
576,776.000,-13.431233063075297
577,777.000,-11.645431175744534
578,778.000,3.4898804478796137
579,779.000,-0.024359148164876387
580,780.000,-12.23221791492142
581,781.000,-5.800138798567559
582,782.000,-5.24955674046646
583,783.000,8.704756322780213
584,784.000,-7.843370540720116
585,785.000,4.643540741795732
586,786.000,-7.802377752303755
587,787.000,-5.431975941099154
588,788.000,0.17495026182882611
589,789.000,-7.660074052653272
590,790.000,-1.348793789285537
591,791.000,-1.9519778484650487
592,792.000,1.8726628737008468
593,793.000,-4.564278514658099
594,794.000,-4.602206901227646
595,795.000,-7.338316169560812
596,796.000,-17.844190199130253
597,797.000,-7.901857865381771
598,798.000,-5.2877400397849215
599,799.000,9.443483410112094
600,800.000,-14.537264379367116
601,801.000,-10.346691268082168
602,802.000,4.619326887873058
603,803.000,-5.854097763881327
604,804.000,8.665577927934692
605,805.000,-0.709737881790943
606,806.000,-6.95138103461386
607,807.000,-4.238823368585599
608,808.000,-0.7434207183086983
609,809.000,-0.3659859149852309
610,810.000,-0.7433337864720215
611,811.000,-4.689834157331916
612,812.000,5.873545151114058
613,813.000,1.2570803207324843
614,814.000,-6.120103463471878
615,815.000,-4.532394013411249
616,816.000,-7.125616137966517
617,817.000,-1.2856776430380705
618,818.000,1.8935346683992975
619,819.000,-2.2258750037537993
620,820.000,-5.199350456775392
621,821.000,-9.46542148517392
622,822.000,-2.4911718807402394
623,823.000,-6.743839432601135
624,824.000,-1.9313729272705586
625,825.000,2.4733278512974266
626,826.000,3.6442191216560786
627,827.000,12.645056104813875
628,828.000,1.7224860241817623
629,829.000,-14.024742894479232
630,830.000,1.9913935768904594
631,831.000,-9.843195331405013
632,832.000,-8.21408638686853
633,833.000,-7.253930354861495
634,834.000,-16.12655699865809
635,835.000,-3.202457079496753
636,836.000,-5.9410193566313865
637,837.000,0.009653412613261025
638,838.000,3.098993472791335
639,839.000,0.19183307028447416
640,840.000,-5.563740546753252
641,841.000,-0.8338761284474003
642,842.000,-4.387461423252944
643,843.000,-9.47439317800945
644,844.000,-6.726768137992394
645,845.000,-9.173722046965622
646,846.000,-9.081539647234194
647,847.000,-6.622246679695536
648,848.000,3.0757451161059635
649,849.000,1.4628760019286347
650,850.000,7.204005240779907
651,851.000,0.6835280968648476
652,852.000,-7.055180164468311
653,853.000,-14.971049276777194
654,854.000,5.041362027419382
655,855.000,-0.7974159834109287
656,856.000,-15.171759039863446
657,857.000,4.9723241283465995
658,858.000,3.951196792336532
659,859.000,-10.046239776000448
660,860.000,-15.28947730404525
661,861.000,-2.824950518505375
662,862.000,-8.180609145469134
663,863.000,-8.011705910455703
664,864.000,-8.066271538468982
665,865.000,-9.19400575404984
666,866.000,-4.056003281328458
667,867.000,3.2016501559239714
668,868.000,-5.267239165758383
669,869.000,4.459755030411998
670,870.000,-11.70559397857619
671,871.000,-0.027757915584743387
672,872.000,-0.7248265033801999
673,873.000,-5.491777464684901
674,874.000,1.8423254777701459
675,875.000,-12.181682398806743
676,876.000,-6.5149198173205605
677,877.000,0.2758764991569933
678,878.000,5.782430827336839
679,879.000,-1.5946765563410281
680,880.000,-2.370711375760038
681,881.000,-9.115319355178372
682,882.000,-3.498472219283258
683,883.000,-9.542637693240977
684,884.000,-17.723666502750802
685,885.000,-3.5502003740982673
686,886.000,-10.395253034206007
687,887.000,-0.5155312106855945
688,888.000,-8.430186631891956
689,889.000,-8.582106026974998
690,890.000,-0.7811221259319154
691,891.000,-10.774268659658674
692,892.000,7.188664639995068
693,893.000,-4.283593959822838
694,894.000,-11.013159193023284
695,895.000,2.183586205374695
696,896.000,-12.448748500810552
697,897.000,2.3116029510260887
698,898.000,2.5794238222222248
699,899.000,-0.31752062720352114
700,900.000,-10.999977138603526
701,901.000,1.4483205452463608
702,902.000,2.0680936800931704
703,903.000,-4.6219914798450645
704,904.000,-2.4333566819298085
705,905.000,-14.638766675157513
706,906.000,-1.5752152102102173
707,907.000,-8.323504039507952
708,908.000,-1.7342419172621248
709,909.000,-6.66102059952641
710,910.000,0.5305891557488849
711,911.000,-5.278447411334582
712,912.000,-0.05483206267422247
713,913.000,-8.238969562222564
714,914.000,-12.18167367603428
715,915.000,-12.155759172325816
716,916.000,-7.4720108215201435
717,917.000,-2.307541396304032
718,918.000,-10.241220671680594
719,919.000,0.46563557498211594
720,920.000,-12.769176436105909
721,921.000,-3.485811487205183
722,922.000,4.743975636898085
723,923.000,3.267493148840913
724,924.000,-2.3576717413693586
725,925.000,-11.151564826406457
726,926.000,-9.80225890167958
727,927.000,-9.263333765383777
728,928.000,-8.23823721855365
729,929.000,-11.659679065115142
730,930.000,-0.1987661119387667
731,931.000,-4.561280168890107
732,932.000,-11.984604048884876
733,933.000,-5.936323567939098
734,934.000,1.925953454776618
735,935.000,-9.142343803114045
736,936.000,2.6261448327547896
737,937.000,-10.234057466562717
738,938.000,-13.683379533375046
739,939.000,-3.6053412034073062
740,940.000,5.16844368414786
741,941.000,-6.270439713422775
742,942.000,-15.404324242405664
743,943.000,-10.356930752712515
744,944.000,-2.641782097932719
745,945.000,-2.584584135385967
746,946.000,-8.062994726175248
747,947.000,-5.2097257352377255
748,948.000,-6.359760031398764
749,949.000,-11.428010487422853
750,950.000,-7.164693980067568
751,951.000,-3.8832303901349405
752,952.000,-2.484553602524329
753,953.000,3.997147493715829
754,954.000,-4.517796994665787
755,955.000,-14.780493965173719
756,956.000,-14.600434319620717
757,957.000,-9.609865964177743
758,958.000,-6.286792809427652
759,959.000,-10.840111770418389
760,960.000,2.397334233287438
761,961.000,-14.527222722443184
762,962.000,-7.507238566364322
763,963.000,-14.691363231903551
764,964.000,-5.436881657214371
765,965.000,-0.7522237852294893
766,966.000,-11.37870856371228
767,967.000,-8.653827945309558
768,968.000,-7.2923498876043595
769,969.000,1.4979926468320173
770,970.000,-18.32078030961111
771,971.000,-9.021146729639668
772,972.000,3.1302804088963967
773,973.000,-2.0403468770512063
774,974.000,-13.71515857578106
775,975.000,1.1943593191051605
776,976.000,1.526309808651149
777,977.000,-6.178268111508032
778,978.000,0.12656054880403644
779,979.000,6.0836287742499735
780,980.000,-2.0487854560708456
781,981.000,6.178091831321353
782,982.000,-6.04082239576087
783,983.000,1.306041824770773
784,984.000,-4.832175550768625
785,985.000,-14.100175571890759
786,986.000,-7.694495293988211
787,987.000,-5.608016778383671
788,988.000,-0.7537190923849266
789,989.000,-0.40688830933686404
790,990.000,-10.602714508671625
791,991.000,-4.038707775964895
792,992.000,-5.097447202985677
793,993.000,-0.9068068877479618
794,994.000,-0.9235249345658758
795,995.000,-13.115434454103706
796,996.000,-5.4806565634307844
797,997.000,-11.332993386070939
798,998.000,-0.6324280520570937
799,999.000,-19.654057697983035
800,1000.000,-9.717467467054576
801,1001.000,-8.33009150914495
802,1002.000,-2.493057980844924
803,1003.000,-7.1329280455147455
804,1004.000,-7.37749987333882
805,1005.000,-0.06855064137585032
806,1006.000,-6.993908533613421
807,1007.000,1.1487502589818632
808,1008.000,-1.590294461589565
809,1009.000,-11.75144790041304
810,1010.000,-6.999816269709527
811,1011.000,-4.169391788891971
812,1012.000,0.11779031538640083
813,1013.000,-7.621683190824115
814,1014.000,-5.356927548818703
815,1015.000,-1.6938660072930816
816,1016.000,4.2925491776061335
817,1017.000,7.883962742226686
818,1018.000,0.19259541536007418
819,1019.000,2.074443918189445
820,1020.000,10.559174964235126
821,1021.000,-10.73927374069558
822,1022.000,-3.7299204985620236
823,1023.000,-6.579618619143503
824,1024.000,5.88010957991105
825,1025.000,-5.369482226971513
826,1026.000,-6.023799373341035
827,1027.000,-9.247441200775711
828,1028.000,-7.78206705893308
829,1029.000,-0.5457513056064727
830,1030.000,1.4843126932264568
831,1031.000,-4.67451843665026
832,1032.000,6.913462922256031
833,1033.000,-12.022357620903676
834,1034.000,-2.9585744653743404
835,1035.000,2.647536981150097
836,1036.000,-3.668748697522915
837,1037.000,1.9094120738598122
838,1038.000,0.6097358619481383
839,1039.000,6.692152224732581
840,1040.000,-2.9716212885048208
841,1041.000,-2.195189137245279
842,1042.000,3.7097852102153865
843,1043.000,4.054383276714361
844,1044.000,4.607880576169691
845,1045.000,-6.345775386474315
846,1046.000,2.6374668847042813
847,1047.000,4.430774876549322
848,1048.000,-1.423785933224508
849,1049.000,4.970282923915647
850,1050.000,17.325125907269694
851,1051.000,1.9309984668495872
852,1052.000,7.92477204332863
853,1053.000,-6.729641932010736
854,1054.000,10.493891962669522
855,1055.000,0.09468713971205034
856,1056.000,17.08529200190992
857,1057.000,2.5592729424556637
858,1058.000,4.04914334488808
859,1059.000,3.48837658304069
860,1060.000,11.425976020987946
861,1061.000,17.058820012994374
862,1062.000,18.848571903460197
863,1063.000,14.908428026871434
864,1064.000,26.803142707745565
865,1065.000,22.52359326057922
866,1066.000,27.043674989796727
867,1067.000,31.535182189697707
868,1068.000,24.546280144402317
869,1069.000,29.2260991278024
870,1070.000,39.5710114035071
871,1071.000,41.26925422478985
872,1072.000,48.05950783453727
873,1073.000,63.28028946519703
874,1074.000,69.92510733872268
875,1075.000,77.15455166652464
876,1076.000,97.02460564941703
877,1077.000,122.20783047756231
878,1078.000,155.1978603304235
879,1079.000,180.2253073767074
880,1080.000,235.31107977431543
881,1081.000,312.8360186702894
882,1082.000,424.51941220076014
883,1083.000,560.1251744908941
884,1084.000,752.4606936548412
885,1085.000,908.0800177956824
886,1086.000,986.340531005379
887,1087.000,918.8324963647176
888,1088.000,734.4951579432584
889,1089.000,558.1975007992842
890,1090.000,430.8828689797458
891,1091.000,319.1073315202125
892,1092.000,249.97046444481566
893,1093.000,192.8569537662006
894,1094.000,147.10771348547019
895,1095.000,122.30825359213623
896,1096.000,107.74715006406427
897,1097.000,87.49531886742216
898,1098.000,70.45401095662783
899,1099.000,60.42214327429565
900,1100.000,53.76524175118675
901,1101.000,48.174696306153464
902,1102.000,33.13290084608775
903,1103.000,29.684889265871107
904,1104.000,22.673231448318802
905,1105.000,26.946097264130003
906,1106.000,29.067719571833777
907,1107.000,21.77873821773801
908,1108.000,16.1213670358743
909,1109.000,9.569098847949363
910,1110.000,11.370065463290757
911,1111.000,11.60420967879304
912,1112.000,16.837771278868786
913,1113.000,8.625200035390208
914,1114.000,16.397122707646076
915,1115.000,4.697204042279964
916,1116.000,13.716317773242963
917,1117.000,5.035101621740068
918,1118.000,-5.121866703823116
919,1119.000,-0.5915885078904921
920,1120.000,4.001749892190219
921,1121.000,1.5808871661142803
922,1122.000,3.6891309705702042
923,1123.000,6.196069949186267
924,1124.000,-0.33786526752510326
925,1125.000,7.158338937786539
926,1126.000,-7.996905830747664
927,1127.000,-0.17716698226831795
928,1128.000,4.9722070607631395
929,1129.000,-4.997601137490392
930,1130.000,-3.0809260262935823
931,1131.000,-3.709942068391456
932,1132.000,1.3408962599396546
933,1133.000,-0.6500275311630048
934,1134.000,-5.54955294519732
935,1135.000,1.2364775006465152
936,1136.000,10.663239275438627
937,1137.000,1.0017148344527413
938,1138.000,7.101473619118224
939,1139.000,-11.160568943037788
940,1140.000,-0.6173464384378349
941,1141.000,-9.545222467509348
942,1142.000,-12.018558644736231
943,1143.000,-2.0485925987122755
944,1144.000,-0.3196509721901748
945,1145.000,7.356322577860283
946,1146.000,-12.250347619793956
947,1147.000,11.37340774929362
948,1148.000,-3.697328014802224
949,1149.000,-8.613377626428246
950,1150.000,-2.9960768144069334
951,1151.000,2.4318516779085257
952,1152.000,-3.5534669074145313
953,1153.000,-16.312657342940838
954,1154.000,-4.986882415922992
955,1155.000,-8.2278109283493
956,1156.000,-3.686060696999448
957,1157.000,-2.1049985534978077
958,1158.000,4.6033616556401284
959,1159.000,6.148635068947442
960,1160.000,0.22488680995866162
961,1161.000,-8.89389601284347
962,1162.000,8.223923693916277
963,1163.000,4.239556008458749
964,1164.000,-9.772814006206318
965,1165.000,1.7686146976689088
966,1166.000,-6.268549847482973
967,1167.000,-12.652387624595121
968,1168.000,-3.8499636320225363
969,1169.000,-4.1830618835888345
970,1170.000,-1.1037014086446106
971,1171.000,-7.360763252114793
972,1172.000,-9.141169474556136
973,1173.000,-1.2699011522045112
974,1174.000,-5.357869377030511
975,1175.000,-1.0251502567921307
976,1176.000,-5.335175915084619
977,1177.000,-10.048598491394841
978,1178.000,10.044857858846171
979,1179.000,3.19930396421114
980,1180.000,-10.063237362774089
981,1181.000,-9.481385325685551
982,1182.000,-0.010910144254012266
983,1183.000,0.17013894558749598
984,1184.000,-13.618472308355194
985,1185.000,-4.9910761745863965
986,1186.000,-4.7739759379715
987,1187.000,1.3369841002072462
988,1188.000,-2.009386377800638
989,1189.000,-2.843264706264563
990,1190.000,-5.243808236027235
991,1191.000,-7.537665334555641
992,1192.000,-9.201060385996698
993,1193.000,-5.717814791223191
994,1194.000,-11.07838196789453
995,1195.000,3.3810986494986537
996,1196.000,-6.0514653904238
997,1197.000,-0.13247655597979247
998,1198.000,-6.800400332479967
999,1199.000,-6.640722222279692
1000,1200.000,-6.542718744830381
1001,1201.000,-5.445752436733073
1002,1202.000,-4.492795851791925
1003,1203.000,-6.502479561062501
1004,1204.000,-11.860910152908218
1005,1205.000,0.5610157669489126
1006,1206.000,-6.447444424624791
1007,1207.000,-9.251377368226713
1008,1208.000,-6.693436721970102
1009,1209.000,-2.906779161536633
1010,1210.000,0.44608761977133327
1011,1211.000,-16.490175089024433
1012,1212.000,8.148961983376466
1013,1213.000,-7.937604909508536
1014,1214.000,-4.119666531988514
1015,1215.000,0.2513883337405787
1016,1216.000,-1.934836112449375
1017,1217.000,-3.724682688676694
1018,1218.000,-8.7265952310986
1019,1219.000,-7.617709593966083
1020,1220.000,-10.310483649674552
1021,1221.000,-10.712904288817754
1022,1222.000,2.7466895797615507
1023,1223.000,-6.14783097108193
1024,1224.000,-4.044982886850448
1025,1225.000,-8.366296131450781
1026,1226.000,-11.973341687249558
1027,1227.000,1.4691344448724521
1028,1228.000,-3.424259754528066
1029,1229.000,-0.5573703235122593
1030,1230.000,-1.2787763188116514
1031,1231.000,-16.658067815876166
1032,1232.000,3.73592309106607
1033,1233.000,-1.8095317110369251
1034,1234.000,-5.188339354117488
1035,1235.000,-5.97007098903714
1036,1236.000,1.2434502143541977
1037,1237.000,-0.31583093282506525
1038,1238.000,-14.736031638547502
1039,1239.000,-7.141693129926352
1040,1240.000,2.573728346731059
1041,1241.000,-8.320008474127008
1042,1242.000,-6.3154608773515974
1043,1243.000,-7.708813167144399
1044,1244.000,1.525204332888734
1045,1245.000,-4.865668720312897
1046,1246.000,-5.18930168931638
1047,1247.000,-9.030171956251706
1048,1248.000,-6.808571922860665
1049,1249.000,-10.566731010550939
1050,1250.000,-13.160250660447673
1051,1251.000,0.8914116665555412
1052,1252.000,-1.187200510260027
1053,1253.000,-2.1234966914862525
1054,1254.000,9.969019602356639
1055,1255.000,-2.4400801692318055
1056,1256.000,-7.795009566782028
1057,1257.000,-6.274142170911091
1058,1258.000,-9.887287582372664
1059,1259.000,-1.6037364221092503
1060,1260.000,-8.255780331306141
1061,1261.000,-7.977037971442769
1062,1262.000,-5.168176024345485
1063,1263.000,-14.40736419223822
1064,1264.000,-8.987344197797484
1065,1265.000,-16.121531784205217
1066,1266.000,-2.3514217151969206
1067,1267.000,-16.16282777511833
1068,1268.000,-5.84248176897745
1069,1269.000,-11.676433522492971
1070,1270.000,-15.453692882153973
1071,1271.000,-5.831865715264939
1072,1272.000,-13.554544910000459
1073,1273.000,-0.34428137546137805
1074,1274.000,-6.747331041722191
1075,1275.000,-1.5114088598857052
1076,1276.000,-17.849392802136208
1077,1277.000,-2.271887861790219
1078,1278.000,-1.0231930533500417
1079,1279.000,-5.48844741255607
1080,1280.000,-11.759345996436423
1081,1281.000,-7.781413883366895
1082,1282.000,-7.407241173113107
1083,1283.000,-2.543159986892533
1084,1284.000,-5.462522467417784
1085,1285.000,-12.443658778958707
1086,1286.000,-15.667333107387549
1087,1287.000,-1.1555636602329287
1088,1288.000,-4.21899766673414
1089,1289.000,1.5765736221073894
1090,1290.000,-5.395951066524049
1091,1291.000,-5.956186027310196
1092,1292.000,-10.566894576852974
1093,1293.000,-12.61372005372641
1094,1294.000,-7.843378818526617
1095,1295.000,-8.246827253927222
1096,1296.000,-12.274912764733017
1097,1297.000,-4.511543777926818
1098,1298.000,-2.6942187427266617
1099,1299.000,-5.2794741306361175
1100,1300.000,-15.69344743549891
1101,1301.000,-12.24352417354794
1102,1302.000,-12.232039883460857
1103,1303.000,-10.660263126408609
1104,1304.000,-2.5615834861159783
1105,1305.000,6.8460854310974355
1106,1306.000,-1.128778003743264
1107,1307.000,-10.88357744231962
1108,1308.000,-8.741355559070143
1109,1309.000,-2.8136280512421763
1110,1310.000,-3.785506638947936
1111,1311.000,-1.8899740652150285
1112,1312.000,-9.887547096037451
1113,1313.000,-0.7898995204291168
1114,1314.000,-5.48224215047685
1115,1315.000,-12.215905821392425
1116,1316.000,-6.512703391565992
1117,1317.000,-5.247446742614557
1118,1318.000,-5.445821779440394
1119,1319.000,-0.5546064302775449
1120,1320.000,-0.7703316467486729
1121,1321.000,-5.077454403916363
1122,1322.000,-6.858875700332646
1123,1323.000,-5.839370558096107
1124,1324.000,-14.40075902290073
1125,1325.000,4.446104835910319
1126,1326.000,-0.6887720747081403
1127,1327.000,1.6530071284455516
1128,1328.000,-6.957156695233152
1129,1329.000,0.4583832897915272
1130,1330.000,-1.216036104854993
1131,1331.000,-7.150460091511377
1132,1332.000,-17.59664590653165
1133,1333.000,-3.7869918103383498
1134,1334.000,-14.287904087474544
1135,1335.000,-3.778108046658417
1136,1336.000,-8.201070020830684
1137,1337.000,-3.3571093672126153
1138,1338.000,-7.815096467354579
1139,1339.000,-3.9502187271905314
1140,1340.000,-10.810296577089957
1141,1341.000,-2.8927424719095143
1142,1342.000,-8.49727989104531
1143,1343.000,-3.570940338487162
1144,1344.000,-11.16030734287051
1145,1345.000,-9.208301457525977
1146,1346.000,0.5808067394636964
1147,1347.000,-1.3272193547841198
1148,1348.000,-14.24292436800988
1149,1349.000,-7.982239952857526
1150,1350.000,-13.439548786932846
1151,1351.000,-6.26416757285233
1152,1352.000,-10.632035038298454
1153,1353.000,-9.897647936068097
1154,1354.000,-5.565448044129425
1155,1355.000,2.9767698343293887
1156,1356.000,-10.142970129154946
1157,1357.000,-7.65102478837116
1158,1358.000,7.507873977510826
1159,1359.000,-8.421012736105695
1160,1360.000,-3.8092088593043627
1161,1361.000,-11.243251347705609
1162,1362.000,-2.3642901825151057
1163,1363.000,-6.689823370582872
1164,1364.000,-19.457371944451097
1165,1365.000,-7.916599962405144
1166,1366.000,-0.7186575085329423
1167,1367.000,9.160398307230025
1168,1368.000,-15.911679650956103
1169,1369.000,-10.043114544885611
1170,1370.000,2.2976394376401004
1171,1371.000,-17.108368917244206
1172,1372.000,-5.000773849512825
1173,1373.000,-6.560982625307133
1174,1374.000,-2.1508875369845555
1175,1375.000,-6.140370903173789
1176,1376.000,4.639312931175027
1177,1377.000,-3.386357405263425
1178,1378.000,-7.529603310241782
1179,1379.000,-5.012585207991378
1180,1380.000,-14.272207549277482
1181,1381.000,-8.40773581144731
1182,1382.000,4.0983575015129645
1183,1383.000,-4.34555114107161
1184,1384.000,0.1885217033832305
1185,1385.000,-8.024056549332727
1186,1386.000,-13.266550510277284
1187,1387.000,-11.908618817405568
1188,1388.000,-10.865217135626153
1189,1389.000,-0.3354771568488104
1190,1390.000,-6.194080600041161
1191,1391.000,-16.730817211278918
1192,1392.000,-5.893414763799683
1193,1393.000,-7.301335058054065
1194,1394.000,-2.8741769217572255
1195,1395.000,-22.173057209943636
1196,1396.000,6.271388194979863
1197,1397.000,-1.1917936168138112
1198,1398.000,-1.9053625826295502
1199,1399.000,-10.707725667298746
1200,1400.000,-6.960119863234013
1201,1401.000,5.7878538095196745
1202,1402.000,5.4664693032327705
1203,1403.000,-3.7430004575635394
1204,1404.000,-9.258945576126735
1205,1405.000,-13.092661183557539
1206,1406.000,3.1296875611474206
1207,1407.000,6.407750471046711
1208,1408.000,-3.3624396688014713
1209,1409.000,2.1672588986070878
1210,1410.000,5.305266902174026
1211,1411.000,9.184323042642518
1212,1412.000,13.26117399254872
1213,1413.000,-0.23946460383649537
1214,1414.000,8.424140869445637
1215,1415.000,2.0824479999882897
1216,1416.000,7.585741346963005
1217,1417.000,19.925875441071184
1218,1418.000,13.037434784490415
1219,1419.000,3.944863850822003
1220,1420.000,15.792955085037647
1221,1421.000,24.16855790342879
1222,1422.000,26.774272693551666
1223,1423.000,22.891127814181345
1224,1424.000,23.345088595247034
1225,1425.000,32.56757233779399
1226,1426.000,31.46763631392014
1227,1427.000,35.265347766729064
1228,1428.000,39.48474491027537
1229,1429.000,41.98304892951592
1230,1430.000,56.28408598024953
1231,1431.000,62.49578218907527
1232,1432.000,57.64055065333105
1233,1433.000,67.02225844104532
1234,1434.000,64.39827159088509
1235,1435.000,75.40047111210106
1236,1436.000,82.57729598447668
1237,1437.000,68.23162015827575
1238,1438.000,64.39039455418879
1239,1439.000,73.50836606328494
1240,1440.000,73.93033754695216
1241,1441.000,59.50785683685035
1242,1442.000,54.9552487348592
1243,1443.000,46.18002201302306
1244,1444.000,37.789720413497434
1245,1445.000,29.346185648501432
1246,1446.000,33.5097474002614
1247,1447.000,25.694422320959347
1248,1448.000,20.524723032680413
1249,1449.000,13.49736212736343
1250,1450.000,17.67364216674332
1251,1451.000,4.618194682302601
1252,1452.000,21.96243217521578
1253,1453.000,7.552982116302701
1254,1454.000,9.832056945968361
1255,1455.000,12.45343507415555
1256,1456.000,8.695909880292675
1257,1457.000,3.32886071323901
1258,1458.000,12.221014891232244
1259,1459.000,9.217815701837935
1260,1460.000,9.729088401898025
1261,1461.000,9.412417217471102
1262,1462.000,3.354716343792461
1263,1463.000,4.548756945210698
1264,1464.000,1.56762715513878
1265,1465.000,-4.918131923997862
1266,1466.000,3.728906779189856
1267,1467.000,3.8652053049950155
1268,1468.000,11.182398662566811
1269,1469.000,-1.1847491701423678
1270,1470.000,-4.156703246428606
1271,1471.000,-8.484272650893672
1272,1472.000,-3.9977014994915407
1273,1473.000,-0.04619293958103299
1274,1474.000,1.828745850015821
1275,1475.000,-0.5973723410324965
1276,1476.000,3.888022245379034
1277,1477.000,1.1122713357362954
1278,1478.000,7.3397706248583745
1279,1479.000,-14.231734224157208
1280,1480.000,-4.888687579988073
1281,1481.000,2.118697156863618
1282,1482.000,-8.51247844598447
1283,1483.000,-7.625935852844577
1284,1484.000,0.8773764399866195
1285,1485.000,-7.265509095822381
1286,1486.000,-2.630557020692777
1287,1487.000,-7.238454927186012
1288,1488.000,0.09457655994492598
1289,1489.000,-5.127970216301492
1290,1490.000,-11.194831945221267
1291,1491.000,-2.289874348464309
1292,1492.000,0.5008698199189894
1293,1493.000,0.4745057734226066
1294,1494.000,-11.119182306968469
1295,1495.000,-9.610983272828435
1296,1496.000,-3.484315008342037
1297,1497.000,-10.842508430363523
1298,1498.000,-2.327607488459307
1299,1499.000,-8.654317164969143
1300,1500.000,-12.42746147505477
1301,1501.000,-11.960858466749869
1302,1502.000,0.27040977898195706
1303,1503.000,-5.16843685179947
1304,1504.000,-2.1381795060697186
1305,1505.000,-7.33740136388451
1306,1506.000,-15.032371638441873
1307,1507.000,-4.710097576122735
1308,1508.000,-8.226697456552301
1309,1509.000,-6.333534592651176
1310,1510.000,-3.731130330684209
1311,1511.000,1.073399949684699
1312,1512.000,-8.965777164659357
1313,1513.000,-3.6294781203368984
1314,1514.000,-17.05409439752202
1315,1515.000,-4.640590509998674
1316,1516.000,-5.217836005210302
1317,1517.000,-7.782801464315071
1318,1518.000,-5.869541502237098
1319,1519.000,-6.80673476771608
1320,1520.000,-3.9432779433655014
1321,1521.000,-2.306118745720596
1322,1522.000,6.618512074709997
1323,1523.000,-4.045813266611731
1324,1524.000,-7.242382588305645
1325,1525.000,-7.627492743122275
1326,1526.000,0.09492938200492063
1327,1527.000,-8.558835134100718
1328,1528.000,1.177580753098482
1329,1529.000,-8.535391946201344
1330,1530.000,-2.346823256200878
1331,1531.000,-15.934574235549007
1332,1532.000,2.1008950226078014
1333,1533.000,-10.073762609427831
1334,1534.000,-8.735773293961302
1335,1535.000,-12.432584227950429
1336,1536.000,-18.618458643066788
1337,1537.000,-1.9066058057383088
1338,1538.000,-4.781697017212082
1339,1539.000,-7.433671613598108
1340,1540.000,-7.854681965927284
1341,1541.000,-12.328928480202649
1342,1542.000,-17.87009759744751
1343,1543.000,-12.068221793764224
1344,1544.000,-1.9271285803824867
1345,1545.000,-0.6698025037135267
1346,1546.000,-3.193194145400412
1347,1547.000,-5.4892891223753395
1348,1548.000,1.2514639130945397
1349,1549.000,-8.074765726649275
1350,1550.000,-11.014648764710273
1351,1551.000,-10.89984295968543
1352,1552.000,-11.275770105720312
1353,1553.000,-12.10542603255999
1354,1554.000,-9.137269605604615
1355,1555.000,-0.9838447259553504
1356,1556.000,-11.464717330476105
1357,1557.000,-20.861273391837585
1358,1558.000,-1.267635918571159
1359,1559.000,-11.754542955127818
1360,1560.000,-9.924862581923662
1361,1561.000,7.448621084608476
1362,1562.000,0.9755388919593315
1363,1563.000,-12.707178348502111
1364,1564.000,-8.25121886158422
1365,1565.000,-7.682293908327665
1366,1566.000,-14.469680786050503
1367,1567.000,-5.02857182840944
1368,1568.000,-3.129014405441467
1369,1569.000,3.6106080763720456
1370,1570.000,-15.884043825939898
1371,1571.000,-1.2399855918943103
1372,1572.000,-4.092417737596406
1373,1573.000,-2.8644178158137947
1374,1574.000,-2.3925704160023997
1375,1575.000,-9.465577164378374
1376,1576.000,1.2376492760363362
1377,1577.000,-2.253215794632979
1378,1578.000,15.481877886818893
1379,1579.000,-3.8445624533560476
1380,1580.000,-4.483784625929729
1381,1581.000,-7.544299478736775
1382,1582.000,-2.334784896732799
1383,1583.000,-4.642681802049992
1384,1584.000,-1.9745321540422083
1385,1585.000,4.590105050659986
1386,1586.000,4.1042997780900805
1387,1587.000,0.5792209569040097
1388,1588.000,-5.901039521676921
1389,1589.000,-10.92148480392143
1390,1590.000,-2.955493073636262
1391,1591.000,-0.736486552221777
1392,1592.000,-8.064043498720821
1393,1593.000,-0.06636920987648409
1394,1594.000,1.1734299798226857
1395,1595.000,-4.2827243019169146
1396,1596.000,-15.564791465242251
1397,1597.000,-14.871975958206349
1398,1598.000,-2.2815312668199113
1399,1599.000,-2.655194915110769
1400,1600.000,-12.155341465168021
1401,1601.000,-6.679853517191077
1402,1602.000,-13.630782709556115
1403,1603.000,-13.917528718856829
1404,1604.000,-3.310559259964066
1405,1605.000,2.463898913932553
1406,1606.000,-13.739383988742247
1407,1607.000,0.14724920200887937
1408,1608.000,0.23389461769647824
1409,1609.000,-6.193686648698986
1410,1610.000,-0.1941255427896067
1411,1611.000,-4.6330770488243616
1412,1612.000,-12.624636189751982
1413,1613.000,-8.525431027258946
1414,1614.000,-7.205267661830931
1415,1615.000,-5.570515232809612
1416,1616.000,-6.406465918433696
1417,1617.000,-10.894623935896107
1418,1618.000,-4.06087154140414
1419,1619.000,-2.995142030217721
1420,1620.000,-7.531081736712167
1421,1621.000,5.221676965572442
1422,1622.000,-8.974370336120955
1423,1623.000,2.7858359061833653
1424,1624.000,-1.8017387988670635
1425,1625.000,0.27219001800722253
1426,1626.000,-4.136182213344455
1427,1627.000,-6.125152102551965
1428,1628.000,-5.665263298772061
1429,1629.000,-16.157925490752405
1430,1630.000,-12.668725406873818
1431,1631.000,-0.06906281520377888
1432,1632.000,0.733806476439895
1433,1633.000,-7.108617379542011
1434,1634.000,-0.3562792706034088
1435,1635.000,7.508187875906515
1436,1636.000,2.990074092685518
1437,1637.000,-10.124042627568542
1438,1638.000,-6.305844332216111
1439,1639.000,-5.238925108729745
1440,1640.000,-2.1773570847321935
1441,1641.000,-1.9218324280695924
1442,1642.000,-2.505208346850395
1443,1643.000,-2.136481089496556
1444,1644.000,0.9117010551913154
1445,1645.000,-1.2258482420011205
1446,1646.000,-4.325292350772088
1447,1647.000,-6.554792681340132
1448,1648.000,0.7607983154939575
1449,1649.000,-5.182138851706895
1450,1650.000,11.11744028494013
1451,1651.000,-4.481207847421956
1452,1652.000,-9.73229986243723
1453,1653.000,-3.160717414593364
1454,1654.000,-7.301301199275713
1455,1655.000,-5.637881952812222
1456,1656.000,0.275399547469533
1457,1657.000,-6.32382251681247
1458,1658.000,-6.474561005142277
1459,1659.000,-9.122446818161734
1460,1660.000,-5.404411897720365
1461,1661.000,-5.421451226932277
1462,1662.000,3.336301169780654
1463,1663.000,-13.621807773375622
1464,1664.000,-4.708244163611198
1465,1665.000,8.517062850391085
1466,1666.000,-21.82341492157275
1467,1667.000,1.2571892887153808
1468,1668.000,-8.369315792154339
1469,1669.000,-1.683028479274526
1470,1670.000,1.467152870535756
1471,1671.000,-5.007989141337475
1472,1672.000,-4.5951559553373045
1473,1673.000,-3.0707190538028044
1474,1674.000,-17.084070961015186
1475,1675.000,-10.82531024325317
1476,1676.000,2.9682524911627297
1477,1677.000,-7.024926408189913
1478,1678.000,10.004177366108252
1479,1679.000,-2.150208920719706
1480,1680.000,-4.219603045716212
1481,1681.000,2.825399171771096
1482,1682.000,-12.423348129967508
1483,1683.000,9.886062144942116
1484,1684.000,4.061912049909552
1485,1685.000,-5.82077840418151
1486,1686.000,-14.608157249012493
1487,1687.000,0.0036164411085337633
1488,1688.000,-2.993453450803827
1489,1689.000,-9.344604084462844
1490,1690.000,-0.9654116623655682
1491,1691.000,-0.8059954298400953
1492,1692.000,-2.6913466751029773
1493,1693.000,-10.650741729310084
1494,1694.000,3.8979130333950707
1495,1695.000,7.073905195817133
1496,1696.000,12.17654229767777
1497,1697.000,-0.19276116446098968
1498,1698.000,-2.797983737234972
1499,1699.000,-6.3330700105311735
1500,1700.000,0.5572323824558225
1501,1701.000,-13.24976323482997
1502,1702.000,4.820284417653511
1503,1703.000,7.826282576479116
1504,1704.000,-6.329251565298364
1505,1705.000,-5.899693858183127
1506,1706.000,-13.529471196308805
1507,1707.000,0.8030724825262041
1508,1708.000,-1.6195198032082772
1509,1709.000,0.5523199211829706
1510,1710.000,-1.9795294134328287
1511,1711.000,-4.378967920074956
1512,1712.000,1.0470132443047078
1513,1713.000,0.3028738787684233
1514,1714.000,4.006097738339577
1515,1715.000,3.6988825339435607
1516,1716.000,5.940266932366285
1517,1717.000,3.7308695561973764
1518,1718.000,7.161408983774436
1519,1719.000,0.8252547491351834
1520,1720.000,4.815453341961984
1521,1721.000,-2.0417097924678274
1522,1722.000,-3.5703252533371597
1523,1723.000,-7.773941684339661
1524,1724.000,-6.806644773732842
1525,1725.000,-3.1732792543912183
1526,1726.000,12.378249096143918
1527,1727.000,5.522356455608133
1528,1728.000,0.28637195696319395
1529,1729.000,-6.41946431164979
1530,1730.000,1.1010096930267537
1531,1731.000,-1.4376150306802629
1532,1732.000,-1.375811529424027
1533,1733.000,4.4777421051030615
1534,1734.000,5.23681173612249
1535,1735.000,4.785628181718948
1536,1736.000,-4.259187785223276
1537,1737.000,3.6066765629434485
1538,1738.000,6.413304908559894
1539,1739.000,-8.237112111372426
1540,1740.000,-3.333618905266121
1541,1741.000,10.332346073024382
1542,1742.000,-4.4888806758795
1543,1743.000,-4.371691696901507
1544,1744.000,6.704909419417618
1545,1745.000,-2.9104949631255295
1546,1746.000,2.0351464735426816
1547,1747.000,-11.315902998268484
1548,1748.000,-7.488768152072225
1549,1749.000,-0.4036708072553665
1550,1750.000,13.166278170869191
1551,1751.000,-3.65809312899637
1552,1752.000,1.0357053358247867
1553,1753.000,-2.088367438075238
1554,1754.000,0.15361649975739056
1555,1755.000,-4.7598299464107185
1556,1756.000,-15.445497918557521
1557,1757.000,-1.7661596049465516
1558,1758.000,-10.071085240194861
1559,1759.000,-3.0831171053150683
1560,1760.000,1.7552194722279637
1561,1761.000,8.687632118468173
1562,1762.000,8.221977412880733
1563,1763.000,1.8724748883382745
1564,1764.000,-4.871246968952164
1565,1765.000,-2.4181877194969275
1566,1766.000,8.028931029440628
1567,1767.000,2.948818623765419
1568,1768.000,0.8581553625258493
1569,1769.000,6.783160497837343
1570,1770.000,-6.366397765150396
1571,1771.000,12.930806731674693
1572,1772.000,5.997667099356931
1573,1773.000,-5.438015598203492
1574,1774.000,-2.9501283442846216
1575,1775.000,6.254295830602587
1576,1776.000,-3.45505215135654
1577,1777.000,0.6641955846939709
1578,1778.000,13.20207386621314
1579,1779.000,-1.0373425267857783
1580,1780.000,1.0922611382047762
1581,1781.000,6.829981546145973
1582,1782.000,7.142265334396143
1583,1783.000,13.035533092654077
1584,1784.000,-3.388752637088146
1585,1785.000,2.647760639398257
1586,1786.000,4.4080033685299895
1587,1787.000,-2.566059051143384
1588,1788.000,-0.643572268988919
1589,1789.000,6.609744017652247
1590,1790.000,0.3334810634182759
1591,1791.000,1.5368500748686529
1592,1792.000,-2.2650287895594374
1593,1793.000,-4.096664419615081
1594,1794.000,-3.6485557532791972
1595,1795.000,7.693591223179737
1596,1796.000,13.67590947516419
1597,1797.000,0.5769769196763264
1598,1798.000,14.09437142527895
1599,1799.000,-2.4628431879573327
1600,1800.000,-0.7923751485122921
1601,1801.000,-3.0766667334664817
1602,1802.000,0.9912907314474069
1603,1803.000,6.023165871796209
1604,1804.000,3.955916264382722
1605,1805.000,0.47070343720861274
1606,1806.000,9.228497869402418
1607,1807.000,-2.46226500881221
1608,1808.000,1.813132183820926
1609,1809.000,-5.977315220467972
1610,1810.000,13.417622061482234
1611,1811.000,-0.6384267362873288
1612,1812.000,8.121227571082727
1613,1813.000,-6.757826880772882
1614,1814.000,2.6750969944973804
1615,1815.000,9.24373323391228
1616,1816.000,10.209342825098702
1617,1817.000,3.66517170625184
1618,1818.000,0.3681187660727119
1619,1819.000,-2.2213711562822027
1620,1820.000,4.50890072875427
1621,1821.000,6.613108161091986
1622,1822.000,7.750853830946653
1623,1823.000,-1.5150306212235591
1624,1824.000,2.4550353952367914
1625,1825.000,-2.363554578876574
1626,1826.000,-7.300334052679773
1627,1827.000,4.563493414756067
1628,1828.000,-3.25530178566396
1629,1829.000,4.4471176868974
1630,1830.000,1.9908901231669915
1631,1831.000,7.609821763685886
1632,1832.000,-0.33571420121643314
1633,1833.000,2.514400368499082
1634,1834.000,5.432794562557319
1635,1835.000,2.3116624202807543
1636,1836.000,-3.5653700694228974
1637,1837.000,6.304869031851922
1638,1838.000,12.14618861198187
1639,1839.000,1.5132525082499342
1640,1840.000,2.738016507287284
1641,1841.000,2.573776345037004
1642,1842.000,-6.992508293307765
1643,1843.000,4.385405226639705
1644,1844.000,8.799809488411938
1645,1845.000,-2.8575949753590066
1646,1846.000,-0.22363768300283482
1647,1847.000,8.760937796139842
1648,1848.000,11.626876841663488
1649,1849.000,-9.45781621795004
1650,1850.000,7.544739894608028
1651,1851.000,-6.702580594570918
1652,1852.000,6.608582489329365
1653,1853.000,2.7788632698016045
1654,1854.000,9.71253881895791
1655,1855.000,-6.8640288425185645
1656,1856.000,-3.802913745431397
1657,1857.000,-4.975708972110169
1658,1858.000,8.35702234351902
1659,1859.000,11.577937015889802
1660,1860.000,9.998545807751725
1661,1861.000,-3.573898569899484
1662,1862.000,-0.6050994578654354
1663,1863.000,-4.1756932487883205
1664,1864.000,-1.6449863872221613
1665,1865.000,3.4868346303246653
1666,1866.000,12.744047255342593
1667,1867.000,0.6566478872650805
1668,1868.000,-6.253574126603326
1669,1869.000,7.440125508897381
1670,1870.000,9.033375036696725
1671,1871.000,12.613019647463261
1672,1872.000,10.217119479542362
1673,1873.000,4.116114618900156
1674,1874.000,-11.875519900918789
1675,1875.000,7.995023901151399
1676,1876.000,-2.7465200463539077
1677,1877.000,4.608882132512463
1678,1878.000,-4.065954738939126
1679,1879.000,13.381585109918888
1680,1880.000,3.6273203969708447
1681,1881.000,1.3691997873065702
1682,1882.000,6.34605889317163
1683,1883.000,-5.464237726087958
1684,1884.000,-7.096621564076031
1685,1885.000,5.23058683259751
1686,1886.000,10.226371864274824
1687,1887.000,1.5957448781832682
1688,1888.000,2.7986071683917544
1689,1889.000,-0.9327840242426646
1690,1890.000,5.178120487867091
1691,1891.000,-1.9651711609981248
1692,1892.000,-0.00289888993893328
1693,1893.000,-6.100623671475205
1694,1894.000,2.9600674684038495
1695,1895.000,7.556161450176205
1696,1896.000,3.2995861407366647
1697,1897.000,10.853079353360044
1698,1898.000,1.055929847623247
1699,1899.000,-3.4995596706221477
1700,1900.000,-0.7491045493252386
1701,1901.000,0.37732480973636484
1702,1902.000,2.7524599508788015
1703,1903.000,9.799889364474893
1704,1904.000,2.8326984869017906
1705,1905.000,15.080145700487037
1706,1906.000,-6.151414666554956
1707,1907.000,12.628340659842024
1708,1908.000,6.514477899533858
1709,1909.000,-1.5906617818825453
1710,1910.000,6.835175726867192
1711,1911.000,8.101844482700471
1712,1912.000,10.551115488114874
1713,1913.000,9.70876269113478
1714,1914.000,5.886557985262925
1715,1915.000,-3.2821567905737083
1716,1916.000,7.855904147923866
1717,1917.000,7.872223530373731
1718,1918.000,5.888725031661352
1719,1919.000,2.830137271887452
1720,1920.000,4.216684816314228
1721,1921.000,9.956338175311657
1722,1922.000,0.4326538043153505
1723,1923.000,12.358857103757373
1724,1924.000,-2.3852205809776024
1725,1925.000,-8.167465959595347
1726,1926.000,0.3769612030366716
1727,1927.000,6.170055086846787
1728,1928.000,5.145459816514403
1729,1929.000,-4.2272885386009875
1730,1930.000,3.8865670355089605
1731,1931.000,-1.6193715025731308
1732,1932.000,9.174919750281106
1733,1933.000,3.5538506416676228
1734,1934.000,5.379762963620806
1735,1935.000,20.54504645255429
1736,1936.000,-1.7662882108134
1737,1937.000,2.339350598525698
1738,1938.000,3.1901734497928373
1739,1939.000,-4.767331143622187
1740,1940.000,0.37638827577643497
1741,1941.000,12.57065010955398
1742,1942.000,-0.5726922967173778
1743,1943.000,-7.332854653506274
1744,1944.000,2.5153662726140738
1745,1945.000,1.9301786589319363
1746,1946.000,6.505825626531077
1747,1947.000,14.046918240242803
1748,1948.000,-5.692462491406786
1749,1949.000,-12.236065616249789
1750,1950.000,-7.904039238528185
1751,1951.000,0.48993648105260945
1752,1952.000,3.9914723252702515
1753,1953.000,4.758380020343793
1754,1954.000,5.154420235862517
1755,1955.000,1.3938285847468705
1756,1956.000,7.707750623189668
1757,1957.000,-12.573165149384295
1758,1958.000,6.581742709608079
1759,1959.000,-2.376688414120281
1760,1960.000,-5.956833191800115
1761,1961.000,-3.804901351647686
1762,1962.000,-1.9517916789109222
1763,1963.000,-5.387703015940588
1764,1964.000,-8.45412326222322
1765,1965.000,-2.8972943744408894
1766,1966.000,-0.1520913665340231
1767,1967.000,-1.2318803097327873
1768,1968.000,-6.895887332629627
1769,1969.000,-4.75275662122317
1770,1970.000,-3.1501404189650657
1771,1971.000,-5.183945026819629
1772,1972.000,-5.069216803313566
1773,1973.000,-7.555056164596635
1774,1974.000,-9.848702584479042
1775,1975.000,5.216906405505824
1776,1976.000,-4.755163783948319
1777,1977.000,-4.765556799970227
1778,1978.000,-13.087281347576436
1779,1979.000,-8.999540189704248
1780,1980.000,-9.906278147276225
1781,1981.000,-0.10437509925054655
1782,1982.000,-10.584464982673126
1783,1983.000,8.202205207266616
1784,1984.000,-13.533875582802239
1785,1985.000,3.1585235354934866
1786,1986.000,1.9504613922333647
1787,1987.000,-2.4263012408553095
1788,1988.000,-2.843294650438793
1789,1989.000,0.4999568183536667
1790,1990.000,-15.781323238115192
1791,1991.000,2.9830037179688134
1792,1992.000,-14.56494683420624
1793,1993.000,0.35665152589785976
1794,1994.000,-13.81610283991131
1795,1995.000,-14.634801628581044
1796,1996.000,-6.158544595894455
1797,1997.000,-20.031042556494185
1798,1998.000,-8.201282383963644
1799,1999.000,-5.225768010853244
1800,2000.000,-5.858833428746493
