# laser_nm,532.021
# calibration,factory_polynomial
# exposure_time,0.2
# laser_power_pct,20
pixel,raman_shift_cm-1,wavelength_nm,intensity
0,2435.172,611.2066,1154
1,2433.035,611.1268,1151
2,2430.897,611.0470,1157
3,2428.758,610.9672,1158
4,2426.619,610.8873,1239
5,2424.480,610.8075,1192
6,2422.339,610.7276,1161
7,2420.198,610.6478,1224
8,2418.056,610.5679,1279
9,2415.914,610.4881,1238
10,2413.771,610.4082,1220
11,2411.627,610.3283,1234
12,2409.483,610.2485,1227
13,2407.338,610.1686,1233
14,2405.192,610.0887,1234
15,2403.046,610.0089,1164
16,2400.899,609.9290,1147
17,2398.751,609.8491,1301
18,2396.603,609.7692,1309
19,2394.454,609.6893,1191
20,2392.304,609.6094,1189
21,2390.154,609.5295,1171
22,2388.003,609.4496,1208
23,2385.851,609.3697,1263
24,2383.699,609.2898,1364
25,2381.546,609.2099,1670
26,2379.392,609.1300,1597
27,2377.238,609.0500,1356
28,2375.083,608.9701,1245
29,2372.927,608.8902,1323
30,2370.771,608.8102,1498
31,2368.614,608.7303,1890
32,2366.457,608.6504,2477
33,2364.298,608.5704,3268
34,2362.139,608.4905,3474
35,2359.980,608.4105,2773
36,2357.819,608.3306,3090
37,2355.659,608.2506,2991
38,2353.497,608.1706,2962
39,2351.335,608.0907,2851
40,2349.172,608.0107,3026
41,2347.008,607.9307,2989
42,2344.844,607.8508,2945
43,2342.679,607.7708,2967
44,2340.513,607.6908,2878
45,2338.347,607.6108,2922
46,2336.180,607.5308,2999
47,2334.012,607.4508,3064
48,2331.844,607.3708,2883
49,2329.675,607.2908,2936
50,2327.505,607.2108,3075
51,2325.335,607.1308,3178
52,2323.164,607.0508,3057
53,2320.993,606.9708,3059
54,2318.820,606.8908,3063
55,2316.647,606.8107,3019
56,2314.474,606.7307,2963
57,2312.299,606.6507,2931
58,2310.124,606.5706,2981
59,2307.949,606.4906,3167
60,2305.772,606.4106,3218
61,2303.595,606.3305,3004
62,2301.418,606.2505,3069
63,2299.239,606.1704,2958
64,2297.060,606.0904,3001
65,2294.881,606.0103,3007
66,2292.700,605.9302,3127
67,2290.519,605.8502,3135
68,2288.338,605.7701,3112
69,2286.155,605.6900,3029
70,2283.972,605.6099,3056
71,2281.789,605.5299,3100
72,2279.604,605.4498,2972
73,2277.419,605.3697,2982
74,2275.233,605.2896,2950
75,2273.047,605.2095,2973
76,2270.860,605.1294,2971
77,2268.672,605.0493,2960
78,2266.484,604.9692,3006
79,2264.295,604.8891,2992
80,2262.105,604.8090,2943
81,2259.914,604.7289,2992
82,2257.723,604.6488,3065
83,2255.531,604.5686,3058
84,2253.339,604.4885,2998
85,2251.146,604.4084,3056
86,2248.952,604.3282,2967
87,2246.757,604.2481,2955
88,2244.562,604.1680,3014
89,2242.366,604.0878,2942
90,2240.170,604.0077,2942
91,2237.973,603.9275,3052
92,2235.775,603.8474,2971
93,2233.576,603.7672,2965
94,2231.377,603.6871,2958
95,2229.177,603.6069,2932
96,2226.976,603.5267,2855
97,2224.775,603.4466,2815
98,2222.573,603.3664,2779
99,2220.370,603.2862,2799
100,2218.167,603.2060,2957
101,2215.963,603.1259,2967
102,2213.758,603.0457,2885
103,2211.553,602.9655,2871
104,2209.347,602.8853,3048
105,2207.140,602.8051,2952
106,2204.933,602.7249,2839
107,2202.725,602.6447,2711
108,2200.516,602.5645,2817
109,2198.307,602.4843,2972
110,2196.096,602.4040,2788
111,2193.886,602.3238,2754
112,2191.674,602.2436,2701
113,2189.462,602.1634,2732
114,2187.249,602.0832,2800
115,2185.036,602.0029,2718
116,2182.821,601.9227,2767
117,2180.606,601.8425,2686
118,2178.391,601.7622,2660
119,2176.175,601.6820,2612
120,2173.958,601.6017,2690
121,2171.740,601.5215,2665
122,2169.522,601.4412,2708
123,2167.303,601.3610,2698
124,2165.083,601.2807,2836
125,2162.863,601.2004,2791
126,2160.642,601.1202,2683
127,2158.420,601.0399,2669
128,2156.197,600.9596,2666
129,2153.974,600.8793,2647
130,2151.750,600.7991,2683
131,2149.526,600.7188,2689
132,2147.301,600.6385,2676
133,2145.075,600.5582,2681
134,2142.848,600.4779,2674
135,2140.621,600.3976,2638
136,2138.393,600.3173,2654
137,2136.165,600.2370,2670
138,2133.935,600.1567,2679
139,2131.705,600.0764,2693
140,2129.475,599.9961,2720
141,2127.243,599.9158,2717
142,2125.011,599.8354,2679
143,2122.779,599.7551,2695
144,2120.545,599.6748,2717
145,2118.311,599.5945,2712
146,2116.076,599.5141,2700
147,2113.841,599.4338,2679
148,2111.605,599.3534,2664
149,2109.368,599.2731,2812
150,2107.130,599.1928,2784
151,2104.892,599.1124,2991
152,2102.653,599.0321,2790
153,2100.413,598.9517,2691
154,2098.173,598.8713,2662
155,2095.932,598.7910,2816
156,2093.690,598.7106,2907
157,2091.448,598.6302,2747
158,2089.205,598.5499,2742
159,2086.961,598.4695,2718
160,2084.717,598.3891,2745
161,2082.471,598.3087,2804
162,2080.226,598.2283,2699
163,2077.979,598.1480,2726
164,2075.732,598.0676,2733
165,2073.484,597.9872,2936
166,2071.235,597.9068,2839
167,2068.986,597.8264,2837
168,2066.736,597.7460,2846
169,2064.485,597.6656,2764
170,2062.234,597.5852,2754
171,2059.982,597.5047,2936
172,2057.729,597.4243,2953
173,2055.475,597.3439,2844
174,2053.221,597.2635,2894
175,2050.966,597.1831,2903
176,2048.711,597.1026,2801
177,2046.454,597.0222,2811
178,2044.197,596.9418,2845
179,2041.940,596.8613,2880
180,2039.681,596.7809,2825
181,2037.422,596.7004,2785
182,2035.163,596.6200,2763
183,2032.902,596.5395,2825
184,2030.641,596.4591,2845
185,2028.379,596.3786,2725
186,2026.117,596.2982,2911
187,2023.853,596.2177,2820
188,2021.589,596.1372,2727
189,2019.325,596.0568,2713
190,2017.059,595.9763,2706
191,2014.793,595.8958,2734
192,2012.527,595.8153,2714
193,2010.259,595.7348,2676
194,2007.991,595.6544,2713
195,2005.722,595.5739,2621
196,2003.453,595.4934,2638
197,2001.182,595.4129,2739
198,1998.912,595.3324,2759
199,1996.640,595.2519,2756
200,1994.368,595.1714,2832
201,1992.095,595.0909,2655
202,1989.821,595.0104,2654
203,1987.546,594.9299,2502
204,1985.271,594.8493,2559
205,1982.995,594.7688,2608
206,1980.719,594.6883,2499
207,1978.442,594.6078,2488
208,1976.164,594.5272,2444
209,1973.885,594.4467,2521
210,1971.606,594.3662,2624
211,1969.325,594.2856,2496
212,1967.045,594.2051,2456
213,1964.763,594.1246,2492
214,1962.481,594.0440,2524
215,1960.198,593.9635,3136
216,1957.915,593.8829,3841
217,1955.630,593.8024,4427
218,1953.345,593.7218,3129
219,1951.060,593.6412,2596
220,1948.773,593.5607,2392
221,1946.486,593.4801,2455
222,1944.198,593.3995,2422
223,1941.910,593.3190,2461
224,1939.620,593.2384,2393
225,1937.331,593.1578,2545
226,1935.040,593.0772,2865
227,1932.749,592.9966,2554
228,1930.456,592.9160,2365
229,1928.164,592.8355,2406
230,1925.870,592.7549,2446
231,1923.576,592.6743,2374
232,1921.281,592.5937,2420
233,1918.986,592.5131,2400
234,1916.689,592.4325,2404
235,1914.392,592.3518,2394
236,1912.094,592.2712,2478
237,1909.796,592.1906,2391
238,1907.497,592.1100,2359
239,1905.197,592.0294,2492
240,1902.896,591.9488,2409
241,1900.595,591.8681,2391
242,1898.293,591.7875,2342
243,1895.990,591.7069,2344
244,1893.687,591.6262,2384
245,1891.383,591.5456,2489
246,1889.078,591.4650,2459
247,1886.773,591.3843,2461
248,1884.466,591.3037,2464
249,1882.159,591.2230,2418
250,1879.852,591.1424,2573
251,1877.543,591.0617,2747
252,1875.234,590.9810,2467
253,1872.924,590.9004,2451
254,1870.614,590.8197,2475
255,1868.302,590.7391,2608
256,1865.991,590.6584,2571
257,1863.678,590.5777,2441
258,1861.364,590.4970,2448
259,1859.050,590.4164,2543
260,1856.736,590.3357,2496
261,1854.420,590.2550,2538
262,1852.104,590.1743,2519
263,1849.787,590.0936,2501
264,1847.469,590.0129,2597
265,1845.151,589.9322,2534
266,1842.832,589.8515,2499
267,1840.512,589.7708,2473
268,1838.191,589.6901,2492
269,1835.870,589.6094,2650
270,1833.548,589.5287,2602
271,1831.225,589.4480,2507
272,1828.902,589.3673,2554
273,1826.578,589.2866,2500
274,1824.253,589.2058,2519
275,1821.927,589.1251,2535
276,1819.601,589.0444,2511
277,1817.274,588.9636,2587
278,1814.946,588.8829,2473
279,1812.618,588.8022,2474
280,1810.289,588.7214,2494
281,1807.959,588.6407,2513
282,1805.628,588.5600,2486
283,1803.297,588.4792,2660
284,1800.965,588.3985,2633
285,1798.632,588.3177,2540
286,1796.298,588.2370,2510
287,1793.964,588.1562,2553
288,1791.629,588.0754,2642
289,1789.294,587.9947,2583
290,1786.957,587.9139,2553
291,1784.620,587.8331,2548
292,1782.282,587.7524,2731
293,1779.944,587.6716,2633
294,1777.605,587.5908,2599
295,1775.265,587.5100,2547
296,1772.924,587.4292,2554
297,1770.582,587.3485,2657
298,1768.240,587.2677,2583
299,1765.897,587.1869,2440
300,1763.554,587.1061,2509
301,1761.209,587.0253,2489
302,1758.864,586.9445,2456
303,1756.519,586.8637,2454
304,1754.172,586.7829,2578
305,1751.825,586.7021,2515
306,1749.477,586.6213,2503
307,1747.128,586.5405,2557
308,1744.779,586.4596,2396
309,1742.429,586.3788,2383
310,1740.078,586.2980,2392
311,1737.726,586.2172,2455
312,1735.374,586.1364,2516
313,1733.021,586.0555,2370
314,1730.667,585.9747,2406
315,1728.313,585.8939,2531
316,1725.957,585.8130,2481
317,1723.601,585.7322,2409
318,1721.245,585.6513,2413
319,1718.887,585.5705,2391
320,1716.529,585.4896,2439
321,1714.170,585.4088,2480
322,1711.811,585.3279,2818
323,1709.450,585.2471,2510
324,1707.089,585.1662,2558
325,1704.728,585.0854,2587
326,1702.365,585.0045,2359
327,1700.002,584.9236,2414
328,1697.638,584.8428,2515
329,1695.273,584.7619,2450
330,1692.908,584.6810,2390
331,1690.541,584.6001,2394
332,1688.175,584.5193,2394
333,1685.807,584.4384,2457
334,1683.439,584.3575,2491
335,1681.069,584.2766,2376
336,1678.700,584.1957,2309
337,1676.329,584.1148,2392
338,1673.958,584.0339,2520
339,1671.586,583.9530,2493
340,1669.213,583.8721,2546
341,1666.839,583.7912,2460
342,1664.465,583.7103,2415
343,1662.090,583.6294,2409
344,1659.715,583.5485,2478
345,1657.338,583.4676,2377
346,1654.961,583.3867,2447
347,1652.583,583.3058,2430
348,1650.204,583.2248,2537
349,1647.825,583.1439,2660
350,1645.445,583.0630,2533
351,1643.064,582.9821,2515
352,1640.682,582.9011,2584
353,1638.300,582.8202,2704
354,1635.917,582.7393,2738
355,1633.533,582.6583,2477
356,1631.149,582.5774,2559
357,1628.763,582.4964,2540
358,1626.377,582.4155,2579
359,1623.991,582.3345,2473
360,1621.603,582.2536,2668
361,1619.215,582.1726,2836
362,1616.826,582.0917,2619
363,1614.436,582.0107,2585
364,1612.046,581.9298,2536
365,1609.655,581.8488,2553
366,1607.263,581.7678,2638
367,1604.870,581.6869,2596
368,1602.477,581.6059,2592
369,1600.082,581.5249,2594
370,1597.688,581.4439,2724
371,1595.292,581.3629,2703
372,1592.896,581.2820,2629
373,1590.498,581.2010,2642
374,1588.101,581.1200,2837
375,1585.702,581.0390,2812
376,1583.303,580.9580,2649
377,1580.903,580.8770,2579
378,1578.502,580.7960,2837
379,1576.100,580.7150,2878
380,1573.698,580.6340,2695
381,1571.295,580.5530,2667
382,1568.891,580.4720,2701
383,1566.487,580.3910,2683
384,1564.081,580.3100,2736
385,1561.675,580.2290,2799
386,1559.268,580.1480,2791
387,1556.861,580.0669,2787
388,1554.453,579.9859,2880
389,1552.044,579.9049,2851
390,1549.634,579.8239,2732
391,1547.223,579.7428,2701
392,1544.812,579.6618,2742
393,1542.400,579.5808,2737
394,1539.987,579.4997,2766
395,1537.574,579.4187,2855
396,1535.160,579.3377,2997
397,1532.745,579.2566,3176
398,1530.329,579.1756,2802
399,1527.912,579.0945,2764
400,1525.495,579.0135,2799
401,1523.077,578.9324,2794
402,1520.658,578.8514,2746
403,1518.239,578.7703,2793
404,1515.819,578.6892,2819
405,1513.398,578.6082,3032
406,1510.976,578.5271,3003
407,1508.554,578.4460,3253
408,1506.130,578.3650,3377
409,1503.706,578.2839,2999
410,1501.282,578.2028,2901
411,1498.856,578.1218,2920
412,1496.430,578.0407,2893
413,1494.003,577.9596,2790
414,1491.575,577.8785,2956
415,1489.147,577.7974,3025
416,1486.717,577.7163,2729
417,1484.288,577.6352,2743
418,1481.857,577.5542,2757
419,1479.425,577.4731,2703
420,1476.993,577.3920,2825
421,1474.560,577.3109,2928
422,1472.126,577.2298,2953
423,1469.692,577.1486,2904
424,1467.256,577.0675,2784
425,1464.820,576.9864,2840
426,1462.384,576.9053,2843
427,1459.946,576.8242,2754
428,1457.508,576.7431,2771
429,1455.069,576.6620,2816
430,1452.629,576.5808,2831
431,1450.188,576.4997,2886
432,1447.747,576.4186,2965
433,1445.305,576.3375,2885
434,1442.862,576.2563,2803
435,1440.419,576.1752,2835
436,1437.974,576.0941,2902
437,1435.529,576.0129,2923
438,1433.083,575.9318,2801
439,1430.637,575.8507,2857
440,1428.189,575.7695,2898
441,1425.741,575.6884,3012
442,1423.292,575.6072,3028
443,1420.843,575.5261,2971
444,1418.392,575.4449,2880
445,1415.941,575.3638,2888
446,1413.489,575.2826,2787
447,1411.037,575.2014,2906
448,1408.583,575.1203,2978
449,1406.129,575.0391,2989
450,1403.674,574.9579,3030
451,1401.218,574.8768,3013
452,1398.762,574.7956,3011
453,1396.305,574.7144,3031
454,1393.847,574.6333,2988
455,1391.388,574.5521,2990
456,1388.928,574.4709,3005
457,1386.468,574.3897,3030
458,1384.007,574.3085,3111
459,1381.545,574.2273,3005
460,1379.083,574.1462,2992
461,1376.619,574.0650,3035
462,1374.155,573.9838,2947
463,1371.690,573.9026,2977
464,1369.225,573.8214,3015
465,1366.758,573.7402,3012
466,1364.291,573.6590,3105
467,1361.823,573.5778,3115
468,1359.354,573.4966,3128
469,1356.885,573.4154,3157
470,1354.415,573.3341,3236
471,1351.944,573.2529,3188
472,1349.472,573.1717,3327
473,1346.999,573.0905,3627
474,1344.526,573.0093,3325
475,1342.052,572.9281,3152
476,1339.577,572.8468,3185
477,1337.102,572.7656,3177
478,1334.625,572.6844,3229
479,1332.148,572.6031,3316
480,1329.670,572.5219,3342
481,1327.191,572.4407,3226
482,1324.712,572.3594,3164
483,1322.232,572.2782,3287
484,1319.751,572.1970,3185
485,1317.269,572.1157,3191
486,1314.787,572.0345,3249
487,1312.303,571.9532,3190
488,1309.819,571.8720,3282
489,1307.334,571.7907,3368
490,1304.849,571.7095,3284
491,1302.362,571.6282,3260
492,1299.875,571.5470,3608
493,1297.387,571.4657,3389
494,1294.899,571.3844,3335
495,1292.409,571.3032,3286
496,1289.919,571.2219,3297
497,1287.428,571.1406,3390
498,1284.936,571.0594,3406
499,1282.444,570.9781,3394
500,1279.950,570.8968,3435
501,1277.456,570.8155,3578
502,1274.961,570.7343,3857
503,1272.466,570.6530,3891
504,1269.969,570.5717,3439
505,1267.472,570.4904,3480
506,1264.974,570.4091,3716
507,1262.475,570.3278,3570
508,1259.976,570.2465,3464
509,1257.476,570.1652,3407
510,1254.974,570.0840,3424
511,1252.473,570.0027,3515
512,1249.970,569.9214,3534
513,1247.467,569.8401,3547
514,1244.962,569.7588,3584
515,1242.457,569.6774,3594
516,1239.952,569.5961,3569
517,1237.445,569.5148,3608
518,1234.938,569.4335,3576
519,1232.430,569.3522,3423
520,1229.921,569.2709,3458
521,1227.411,569.1896,3576
522,1224.901,569.1082,3598
523,1222.390,569.0269,3681
524,1219.878,568.9456,3592
525,1217.365,568.8643,3464
526,1214.851,568.7829,3506
527,1212.337,568.7016,3675
528,1209.822,568.6203,3748
529,1207.306,568.5390,3663
530,1204.790,568.4576,3783
531,1202.272,568.3763,3662
532,1199.754,568.2949,3702
533,1197.235,568.2136,3708
534,1194.715,568.1323,3611
535,1192.195,568.0509,3728
536,1189.673,567.9696,3691
537,1187.151,567.8882,3603
538,1184.628,567.8069,3627
539,1182.104,567.7255,3740
540,1179.580,567.6442,3745
541,1177.055,567.5628,3770
542,1174.529,567.4814,3985
543,1172.002,567.4001,4014
544,1169.474,567.3187,4087
545,1166.946,567.2373,3951
546,1164.417,567.1560,3773
547,1161.887,567.0746,3888
548,1159.356,566.9932,4080
549,1156.824,566.9119,3978
550,1154.292,566.8305,3880
551,1151.759,566.7491,3979
552,1149.225,566.6677,3961
553,1146.690,566.5864,3958
554,1144.155,566.5050,3939
555,1141.619,566.4236,3878
556,1139.081,566.3422,3940
557,1136.544,566.2608,4110
558,1134.005,566.1794,4012
559,1131.466,566.0980,4007
560,1128.925,566.0166,4141
561,1126.384,565.9352,4099
562,1123.843,565.8538,4377
563,1121.300,565.7724,4280
564,1118.757,565.6910,4036
565,1116.212,565.6096,4212
566,1113.668,565.5282,4297
567,1111.122,565.4468,4168
568,1108.575,565.3654,4118
569,1106.028,565.2840,4192
570,1103.480,565.2026,4298
571,1100.931,565.1212,4170
572,1098.381,565.0398,4113
573,1095.831,564.9584,4206
574,1093.279,564.8769,4227
575,1090.727,564.7955,4199
576,1088.174,564.7141,4336
577,1085.621,564.6327,4320
578,1083.066,564.5512,4449
579,1080.511,564.4698,4518
580,1077.955,564.3884,4466
581,1075.398,564.3069,4262
582,1072.840,564.2255,4256
583,1070.282,564.1441,4263
584,1067.723,564.0626,4321
585,1065.163,563.9812,4355
586,1062.602,563.8997,4322
587,1060.040,563.8183,4310
588,1057.478,563.7369,4363
589,1054.915,563.6554,4398
590,1052.351,563.5740,4370
591,1049.786,563.4925,4355
592,1047.220,563.4111,4645
593,1044.654,563.3296,5000
594,1042.087,563.2482,4683
595,1039.519,563.1667,4462
596,1036.950,563.0852,4561
597,1034.380,563.0038,4646
598,1031.810,562.9223,4705
599,1029.239,562.8408,4622
600,1026.667,562.7594,4701
601,1024.094,562.6779,4798
602,1021.520,562.5964,4727
603,1018.946,562.5150,4528
604,1016.371,562.4335,4616
605,1013.795,562.3520,4613
606,1011.218,562.2705,4535
607,1008.640,562.1891,4593
608,1006.062,562.1076,4617
609,1003.483,562.0261,4676
610,1000.903,561.9446,4783
611,998.322,561.8631,4714
612,995.740,561.7816,4664
613,993.158,561.7002,4699
614,990.575,561.6187,4721
615,987.990,561.5372,4776
616,985.406,561.4557,4753
617,982.820,561.3742,4835
618,980.234,561.2927,4871
619,977.646,561.2112,4899
620,975.058,561.1297,4786
621,972.469,561.0482,4784
622,969.880,560.9667,4793
623,967.289,560.8852,4986
624,964.698,560.8037,4986
625,962.106,560.7222,4854
626,959.513,560.6406,4782
627,956.919,560.5591,4986
628,954.325,560.4776,4973
629,951.729,560.3961,4980
630,949.133,560.3146,5034
631,946.536,560.2331,4999
632,943.939,560.1515,4970
633,941.340,560.0700,5082
634,938.741,559.9885,5082
635,936.141,559.9070,5115
636,933.540,559.8254,5161
637,930.938,559.7439,5288
638,928.335,559.6624,5109
639,925.732,559.5808,5098
640,923.128,559.4993,5190
641,920.523,559.4178,5195
642,917.917,559.3362,5289
643,915.310,559.2547,5233
644,912.703,559.1732,5094
645,910.094,559.0916,5244
646,907.485,559.0101,5346
647,904.875,558.9285,5383
648,902.265,558.8470,5230
649,899.653,558.7654,5268
650,897.041,558.6839,5317
651,894.428,558.6023,5338
652,891.814,558.5208,5467
653,889.199,558.4392,5536
654,886.583,558.3577,5543
655,883.967,558.2761,5426
656,881.350,558.1946,5359
657,878.732,558.1130,5444
658,876.113,558.0314,5421
659,873.493,557.9499,5441
660,870.873,557.8683,5440
661,868.251,557.7867,5519
662,865.629,557.7052,5649
663,863.006,557.6236,5623
664,860.383,557.5420,5636
665,857.758,557.4604,5608
666,855.133,557.3789,5618
667,852.506,557.2973,5796
668,849.879,557.2157,5778
669,847.251,557.1341,5691
670,844.623,557.0526,5818
671,841.993,556.9710,5751
672,839.363,556.8894,5877
673,836.732,556.8078,5682
674,834.100,556.7262,5733
675,831.467,556.6446,5951
676,828.834,556.5630,5884
677,826.199,556.4814,5903
678,823.564,556.3998,6064
679,820.928,556.3182,5958
680,818.291,556.2367,5972
681,815.653,556.1551,5950
682,813.015,556.0735,6089
683,810.376,555.9919,6047
684,807.735,555.9103,6064
685,805.094,555.8286,6033
686,802.453,555.7470,5981
687,799.810,555.6654,6043
688,797.166,555.5838,5944
689,794.522,555.5022,6120
690,791.877,555.4206,6113
691,789.231,555.3390,6088
692,786.584,555.2574,6152
693,783.937,555.1758,6070
694,781.288,555.0941,6333
695,778.639,555.0125,6310
696,775.989,554.9309,6253
697,773.338,554.8493,6277
698,770.687,554.7677,6326
699,768.034,554.6860,6313
700,765.381,554.6044,6166
701,762.726,554.5228,6323
702,760.071,554.4412,6493
703,757.416,554.3595,6322
704,754.759,554.2779,6486
705,752.101,554.1963,6322
706,749.443,554.1146,6452
707,746.784,554.0330,6468
708,744.124,553.9514,6501
709,741.463,553.8697,6525
710,738.801,553.7881,6430
711,736.139,553.7064,6624
712,733.476,553.6248,6567
713,730.812,553.5431,6570
714,728.147,553.4615,6716
715,725.481,553.3799,7086
716,722.814,553.2982,6581
717,720.147,553.2166,6587
718,717.478,553.1349,6583
719,714.809,553.0533,6786
720,712.139,552.9716,6774
721,709.468,552.8899,6743
722,706.797,552.8083,6702
723,704.124,552.7266,6648
724,701.451,552.6450,6771
725,698.777,552.5633,6812
726,696.102,552.4817,6710
727,693.426,552.4000,6761
728,690.749,552.3183,6951
729,688.072,552.2367,6911
730,685.394,552.1550,6822
731,682.715,552.0733,7393
732,680.035,551.9917,7365
733,677.354,551.9100,6960
734,674.672,551.8283,6942
735,671.990,551.7466,7011
736,669.306,551.6650,7103
737,666.622,551.5833,7027
738,663.937,551.5016,6903
739,661.251,551.4199,7038
740,658.564,551.3382,7011
741,655.877,551.2566,6984
742,653.189,551.1749,7116
743,650.499,551.0932,7065
744,647.809,551.0115,7267
745,645.118,550.9298,7456
746,642.427,550.8481,7407
747,639.734,550.7664,7296
748,637.041,550.6848,7258
749,634.347,550.6031,7176
750,631.651,550.5214,7247
751,628.956,550.4397,7214
752,626.259,550.3580,7331
753,623.561,550.2763,7345
754,620.863,550.1946,7409
755,618.163,550.1129,7494
756,615.463,550.0312,7649
757,612.762,549.9495,7539
758,610.060,549.8678,7351
759,607.358,549.7861,7435
760,604.654,549.7044,7399
761,601.950,549.6227,7407
762,599.245,549.5410,7464
763,596.539,549.4592,7611
764,593.832,549.3775,7904
765,591.124,549.2958,7811
766,588.415,549.2141,7724
767,585.706,549.1324,7770
768,582.996,549.0507,7636
769,580.284,548.9690,7652
770,577.573,548.8872,7919
771,574.860,548.8055,7891
772,572.146,548.7238,7767
773,569.431,548.6421,7662
774,566.716,548.5604,7789
775,564.000,548.4786,7943
776,561.283,548.3969,8346
777,558.565,548.3152,8121
778,555.846,548.2335,8023
779,553.127,548.1517,7970
780,550.406,548.0700,8360
781,547.685,547.9883,8244
782,544.963,547.9065,8127
783,542.240,547.8248,8185
784,539.516,547.7431,8327
785,536.791,547.6613,8234
786,534.065,547.5796,8383
787,531.339,547.4979,8444
788,528.612,547.4161,8187
789,525.884,547.3344,8540
790,523.155,547.2526,8308
791,520.425,547.1709,8219
792,517.694,547.0892,8552
793,514.963,547.0074,8482
794,512.230,546.9257,8653
795,509.497,546.8439,8661
796,506.763,546.7622,8683
797,504.028,546.6804,8697
798,501.292,546.5987,8473
799,498.555,546.5169,8723
800,495.818,546.4352,8899
801,493.079,546.3534,8623
802,490.340,546.2717,8491
803,487.600,546.1899,8580
804,484.859,546.1081,8638
805,482.117,546.0264,8564
806,479.375,545.9446,8796
807,476.631,545.8629,8690
808,473.887,545.7811,8728
809,471.142,545.6993,8769
810,468.395,545.6176,8829
811,465.648,545.5358,8997
812,462.901,545.4541,9025
813,460.152,545.3723,8926
814,457.402,545.2905,8820
815,454.652,545.2087,8915
816,451.901,545.1270,8831
817,449.149,545.0452,8970
818,446.396,544.9634,8905
819,443.642,544.8817,8896
820,440.887,544.7999,9083
821,438.132,544.7181,9339
822,435.375,544.6363,8965
823,432.618,544.5546,8883
824,429.860,544.4728,9013
825,427.101,544.3910,9200
826,424.341,544.3092,9302
827,421.580,544.2274,9264
828,418.818,544.1457,9421
829,416.056,544.0639,9112
830,413.293,543.9821,9283
831,410.528,543.9003,9295
832,407.763,543.8185,9477
833,404.997,543.7367,9360
834,402.231,543.6549,9251
835,399.463,543.5732,9363
836,396.694,543.4914,9358
837,393.925,543.4096,9499
838,391.155,543.3278,9402
839,388.384,543.2460,9487
840,385.612,543.1642,9536
841,382.839,543.0824,9543
842,380.065,543.0006,9439
843,377.290,542.9188,9516
844,374.515,542.8370,9913
845,371.739,542.7552,9907
846,368.961,542.6734,10041
847,366.183,542.5916,9752
848,363.404,542.5098,9808
849,360.624,542.4280,9696
850,357.844,542.3462,9599
851,355.062,542.2644,9775
852,352.280,542.1826,9795
853,349.496,542.1008,9865
854,346.712,542.0190,9773
855,343.927,541.9372,9776
856,341.141,541.8554,9776
857,338.355,541.7736,9862
858,335.567,541.6917,9755
859,332.778,541.6099,10063
860,329.989,541.5281,10162
861,327.199,541.4463,10139
862,324.407,541.3645,10083
863,321.615,541.2827,10155
864,318.822,541.2009,10093
865,316.029,541.1190,10312
866,313.234,541.0372,10464
867,310.438,540.9554,10289
868,307.642,540.8736,10278
869,304.845,540.7918,10240
870,302.047,540.7099,10190
871,299.248,540.6281,10354
872,296.448,540.5463,10505
873,293.647,540.4645,10533
874,290.845,540.3827,10445
875,288.043,540.3008,10397
876,285.239,540.2190,10300
877,282.435,540.1372,10474
878,279.630,540.0553,10421
879,276.824,539.9735,10399
880,274.017,539.8917,10420
881,271.209,539.8099,10651
882,268.400,539.7280,10614
883,265.591,539.6462,10654
884,262.780,539.5644,10538
885,259.969,539.4825,10539
886,257.157,539.4007,10581
887,254.343,539.3188,10755
888,251.529,539.2370,10695
889,248.715,539.1552,10809
890,245.899,539.0733,10889
891,243.082,538.9915,10829
892,240.265,538.9097,10949
893,237.446,538.8278,10911
894,234.627,538.7460,10793
895,231.807,538.6641,11003
896,228.986,538.5823,11183
897,226.164,538.5004,11125
898,223.341,538.4186,11197
899,220.517,538.3368,11163
900,217.693,538.2549,11707
901,214.867,538.1731,11621
902,212.041,538.0912,11275
903,209.213,538.0094,11349
904,206.385,537.9275,11337
905,203.556,537.8457,11384
906,200.726,537.7638,11350
907,197.896,537.6820,11522
908,195.064,537.6001,11648
909,192.231,537.5183,11698
910,189.398,537.4364,11708
911,186.563,537.3545,11755
912,183.728,537.2727,11898
913,180.892,537.1908,12021
914,178.055,537.1090,12265
915,175.217,537.0271,12312
916,172.378,536.9453,12010
917,169.539,536.8634,12046
918,166.698,536.7815,12019
919,163.856,536.6997,11961
920,161.014,536.6178,12162
921,158.171,536.5360,12297
922,155.327,536.4541,12285
923,152.482,536.3722,12181
924,149.636,536.2904,12170
925,146.789,536.2085,12076
926,143.941,536.1266,12051
927,141.093,536.0448,12169
928,138.243,535.9629,12286
929,135.393,535.8810,12264
930,132.541,535.7992,12552
931,129.689,535.7173,12198
932,126.836,535.6354,12193
933,123.982,535.5536,12342
934,121.127,535.4717,12574
935,118.271,535.3898,12458
936,115.415,535.3080,12550
937,112.557,535.2261,12648
938,109.699,535.1442,12787
939,106.839,535.0623,12406
940,103.979,534.9805,12446
941,101.118,534.8986,12554
942,98.256,534.8167,12645
943,95.393,534.7348,12582
944,92.529,534.6530,12768
945,89.664,534.5711,12768
946,86.798,534.4892,12602
947,83.932,534.4073,12683
948,81.064,534.3254,12742
949,78.196,534.2436,12768
950,75.327,534.1617,12825
951,72.457,534.0798,12665
952,69.586,533.9979,12715
953,66.714,533.9160,13198
954,63.841,533.8341,12942
955,60.967,533.7523,12704
956,58.092,533.6704,12964
957,55.217,533.5885,12910
958,52.340,533.5066,12951
959,49.463,533.4247,13165
960,46.585,533.3428,13243
961,43.705,533.2609,13134
962,40.825,533.1791,13104
963,37.944,533.0972,13134
964,35.062,533.0153,13111
965,32.180,532.9334,13215
966,29.296,532.8515,13173
967,26.411,532.7696,13170
968,23.526,532.6877,13064
969,20.639,532.6058,13223
970,17.752,532.5239,13105
971,14.864,532.4420,12971
972,11.974,532.3601,12972
973,9.084,532.2783,13160
974,6.193,532.1964,13126
975,3.302,532.1145,13221
976,0.409,532.0326,13315
977,-2.485,531.9507,13115
978,-5.380,531.8688,13069
979,-8.275,531.7869,13144
980,-11.171,531.7050,13123
981,-14.069,531.6231,13079
982,-16.967,531.5412,13035
983,-19.866,531.4593,12995
984,-22.766,531.3774,13195
985,-25.667,531.2955,13309
986,-28.569,531.2136,13177
987,-31.472,531.1317,13166
988,-34.376,531.0498,13217
989,-37.280,530.9679,13236
990,-40.186,530.8860,13095
991,-43.092,530.8041,13355
992,-46.000,530.7222,13433
993,-48.908,530.6403,13314
994,-51.817,530.5584,13311
995,-54.727,530.4765,13409
996,-57.638,530.3946,13468
997,-60.550,530.3126,13568
998,-63.463,530.2307,13592
999,-66.377,530.1488,13610
1000,-69.292,530.0669,13773
1001,-72.207,529.9850,13676
1002,-75.124,529.9031,13876
1003,-78.041,529.8212,13773
1004,-80.960,529.7393,13647
1005,-83.879,529.6574,13593
1006,-86.799,529.5755,13731
1007,-89.720,529.4936,13885
1008,-92.642,529.4117,13889
1009,-95.565,529.3297,13980
1010,-98.489,529.2478,14438
1011,-101.414,529.1659,14433
1012,-104.340,529.0840,14471
1013,-107.266,529.0021,14191
1014,-110.194,528.9202,13938
1015,-113.122,528.8383,13856
1016,-116.052,528.7564,14369
1017,-118.982,528.6744,14544
1018,-121.913,528.5925,14314
1019,-124.845,528.5106,14381
1020,-127.778,528.4287,14518
1021,-130.712,528.3468,14558
1022,-133.647,528.2649,14722
1023,-136.583,528.1829,14729
