# laser_nm,532.021,center=1200,
# calibration,factory_polynomial,,
pixel,raman_shift_cm-1,wavelength_nm,intensity
0,704.828,552.7481,660
1,705.83,552.7787,650
2,706.832,552.8094,662
3,707.834,552.84,670
4,708.836,552.8706,664
5,709.838,552.9012,653
6,710.839,552.9319,659
7,711.841,552.9625,666
8,712.842,552.9931,655
9,713.843,553.0237,666
10,714.844,553.0543,673
11,715.845,553.0849,673
12,716.846,553.1156,657
13,717.846,553.1462,657
14,718.847,553.1768,665
15,719.847,553.2074,654
16,720.847,553.238,662
17,721.847,553.2686,661
18,722.847,553.2992,657
19,723.847,553.3298,666
20,724.846,553.3604,657
21,725.846,553.391,654
22,726.845,553.4216,654
23,727.844,553.4522,660
24,728.843,553.4828,659
25,729.842,553.5135,652
26,730.841,553.5441,650
27,731.84,553.5747,654
28,732.838,553.6053,663
29,733.836,553.6359,673
30,734.835,553.6664,663
31,735.833,553.697,656
32,736.831,553.7276,652
33,737.828,553.7582,662
34,738.826,553.7888,653
35,739.823,553.8194,659
36,740.821,553.85,660
37,741.818,553.8806,661
38,742.815,553.9112,659
39,743.812,553.9418,664
40,744.809,553.9724,655
41,745.805,554.003,658
42,746.802,554.0335,651
43,747.798,554.0641,658
44,748.794,554.0947,660
45,749.79,554.1253,657
46,750.786,554.1559,666
47,751.782,554.1865,664
48,752.778,554.217,656
49,753.773,554.2476,666
50,754.769,554.2782,670
51,755.764,554.3088,660
52,756.759,554.3394,662
53,757.754,554.3699,660
54,758.749,554.4005,667
55,759.743,554.4311,664
56,760.738,554.4616,657
57,761.732,554.4922,659
58,762.727,554.5228,659
59,763.721,554.5534,655
60,764.715,554.5839,651
61,765.709,554.6145,671
62,766.702,554.6451,669
63,767.696,554.6756,662
64,768.689,554.7062,667
65,769.682,554.7368,665
66,770.676,554.7673,663
67,771.669,554.7979,674
68,772.661,554.8284,664
69,773.654,554.859,659
70,774.647,554.8896,663
71,775.639,554.9201,665
72,776.631,554.9507,667
73,777.624,554.9812,664
74,778.616,555.0118,660
75,779.607,555.0424,664
76,780.599,555.0729,661
77,781.591,555.1035,660
78,782.582,555.134,674
79,783.574,555.1646,668
80,784.565,555.1951,677
81,785.556,555.2257,666
82,786.547,555.2562,664
83,787.537,555.2868,662
84,788.528,555.3173,664
85,789.518,555.3479,675
86,790.509,555.3784,666
87,791.499,555.4089,655
88,792.489,555.4395,660
89,793.479,555.47,663
90,794.469,555.5006,656
91,795.458,555.5311,664
92,796.448,555.5616,669
93,797.437,555.5922,678
94,798.426,555.6227,689
95,799.415,555.6533,723
96,800.404,555.6838,733
97,801.393,555.7143,793
98,802.382,555.7449,890
99,803.37,555.7754,1003
100,804.359,555.8059,1084
101,805.347,555.8365,1198
102,806.335,555.867,1290
103,807.323,555.8975,1344
104,808.311,555.928,1399
105,809.299,555.9586,1368
106,810.286,555.9891,1364
107,811.274,556.0196,1380
108,812.261,556.0501,1398
109,813.248,556.0807,1393
110,814.235,556.1112,1389
111,815.222,556.1417,1372
112,816.208,556.1722,1386
113,817.195,556.2027,1380
114,818.181,556.2333,1383
115,819.168,556.2638,1382
116,820.154,556.2943,1375
117,821.14,556.3248,1421
118,822.126,556.3553,1394
119,823.112,556.3858,1385
120,824.097,556.4164,1373
121,825.083,556.4469,1382
122,826.068,556.4774,1430
123,827.053,556.5079,1418
124,828.038,556.5384,1387
125,829.023,556.5689,1410
126,830.008,556.5994,1396
127,830.993,556.6299,1438
128,831.977,556.6604,1382
129,832.961,556.6909,1418
130,833.946,556.7214,1405
131,834.93,556.7519,1423
132,835.914,556.7824,1416
133,836.897,556.8129,1414
134,837.881,556.8434,1434
135,838.865,556.8739,1419
136,839.848,556.9044,1446
137,840.831,556.9349,1408
138,841.814,556.9654,1401
139,842.797,556.9959,1423
140,843.78,557.0264,1452
141,844.763,557.0569,1440
142,845.745,557.0874,1457
143,846.728,557.1179,1431
144,847.71,557.1484,1426
145,848.692,557.1789,1421
146,849.674,557.2093,1436
147,850.656,557.2398,1450
148,851.638,557.2703,1461
149,852.619,557.3008,1436
150,853.601,557.3313,1453
151,854.582,557.3618,1472
152,855.563,557.3922,1491
153,856.544,557.4227,1482
154,857.525,557.4532,1475
155,858.506,557.4837,1455
156,859.487,557.5142,1484
157,860.467,557.5446,1481
158,861.447,557.5751,1498
159,862.428,557.6056,1469
160,863.408,557.6361,1441
161,864.388,557.6665,1481
162,865.367,557.697,1485
163,866.347,557.7275,1499
164,867.327,557.758,1502
165,868.306,557.7884,1503
166,869.285,557.8189,1479
167,870.264,557.8494,1478
168,871.243,557.8798,1522
169,872.222,557.9103,1500
170,873.201,557.9408,1538
171,874.179,557.9712,1488
172,875.158,558.0017,1504
173,876.136,558.0322,1490
174,877.114,558.0626,1508
175,878.092,558.0931,1536
176,879.07,558.1235,1497
177,880.048,558.154,1526
178,881.025,558.1844,1513
179,882.003,558.2149,1538
180,882.98,558.2454,1485
181,883.957,558.2758,1528
182,884.934,558.3063,1518
183,885.911,558.3367,1549
184,886.888,558.3672,1511
185,887.865,558.3976,1524
186,888.841,558.4281,1511
187,889.818,558.4585,1511
188,890.794,558.489,1581
189,891.77,558.5194,1548
190,892.746,558.5499,1557
191,893.722,558.5803,1547
192,894.697,558.6107,1534
193,895.673,558.6412,1512
194,896.648,558.6716,1530
195,897.624,558.7021,1571
196,898.599,558.7325,1575
197,899.574,558.763,1553
198,900.549,558.7934,1527
199,901.523,558.8238,1532
200,902.498,558.8543,1518
201,903.472,558.8847,1587
202,904.447,558.9151,1590
203,905.421,558.9456,1583
204,906.395,558.976,1585
205,907.369,559.0064,1588
206,908.342,559.0369,1570
207,909.316,559.0673,1603
208,910.289,559.0977,1591
209,911.263,559.1281,1601
210,912.236,559.1586,1618
211,913.209,559.189,1581
212,914.182,559.2194,1592
213,915.155,559.2498,1600
214,916.128,559.2803,1629
215,917.1,559.3107,1601
216,918.072,559.3411,1654
217,919.045,559.3715,1601
218,920.017,559.402,1628
219,920.989,559.4324,1643
220,921.961,559.4628,1664
221,922.932,559.4932,1630
222,923.904,559.5236,1673
223,924.875,559.554,1624
224,925.847,559.5844,1650
225,926.818,559.6149,1658
226,927.789,559.6453,1636
227,928.76,559.6757,1649
228,929.73,559.7061,1710
229,930.701,559.7365,1659
230,931.672,559.7669,1616
231,932.642,559.7973,1654
232,933.612,559.8277,1582
233,934.582,559.8581,1681
234,935.552,559.8885,1640
235,936.522,559.9189,1639
236,937.492,559.9493,1656
237,938.461,559.9797,1605
238,939.431,560.0101,1651
239,940.4,560.0405,1657
240,941.369,560.0709,1687
241,942.338,560.1013,1662
242,943.307,560.1317,1675
243,944.275,560.1621,1710
244,945.244,560.1925,1642
245,946.213,560.2229,1672
246,947.181,560.2533,1664
247,948.149,560.2837,1702
248,949.117,560.3141,1682
249,950.085,560.3445,1663
250,951.053,560.3748,1679
251,952.02,560.4052,1687
252,952.988,560.4356,1712
253,953.955,560.466,1687
254,954.922,560.4964,1703
255,955.889,560.5268,1716
256,956.856,560.5572,1746
257,957.823,560.5875,1738
258,958.79,560.6179,1726
259,959.756,560.6483,1738
260,960.723,560.6787,1745
261,961.689,560.7091,1696
262,962.655,560.7394,1759
263,963.621,560.7698,1695
264,964.587,560.8002,1746
265,965.553,560.8306,1715
266,966.518,560.8609,1719
267,967.484,560.8913,1720
268,968.449,560.9217,1754
269,969.414,560.952,1755
270,970.379,560.9824,1746
271,971.344,561.0128,1715
272,972.309,561.0431,1744
273,973.274,561.0735,1715
274,974.238,561.1039,1715
275,975.203,561.1342,1801
276,976.167,561.1646,1735
277,977.131,561.195,1713
278,978.095,561.2253,1757
279,979.059,561.2557,1748
280,980.023,561.286,1724
281,980.986,561.3164,1729
282,981.95,561.3468,1751
283,982.913,561.3771,1785
284,983.876,561.4075,1782
285,984.839,561.4378,1728
286,985.802,561.4682,1766
287,986.765,561.4985,1692
288,987.727,561.5289,1731
289,988.69,561.5592,1759
290,989.652,561.5896,1743
291,990.614,561.6199,1719
292,991.576,561.6503,1762
293,992.538,561.6806,1770
294,993.5,561.711,1751
295,994.462,561.7413,1750
296,995.423,561.7717,1797
297,996.385,561.802,1783
298,997.346,561.8323,1719
299,998.307,561.8627,1783
300,999.268,561.893,1734
301,1000.229,561.9234,1725
302,1001.19,561.9537,1737
303,1002.151,561.984,1778
304,1003.111,562.0144,1724
305,1004.071,562.0447,1760
306,1005.032,562.075,1775
307,1005.992,562.1054,1794
308,1006.952,562.1357,1782
309,1007.911,562.166,1802
310,1008.871,562.1964,1810
311,1009.831,562.2267,1803
312,1010.79,562.257,1761
313,1011.749,562.2873,1785
314,1012.708,562.3177,1763
315,1013.667,562.348,1814
316,1014.626,562.3783,1830
317,1015.585,562.4086,1769
318,1016.543,562.439,1782
319,1017.502,562.4693,1756
320,1018.46,562.4996,1793
321,1019.418,562.5299,1784
322,1020.376,562.5602,1781
323,1021.334,562.5906,1796
324,1022.292,562.6209,1786
325,1023.25,562.6512,1821
326,1024.207,562.6815,1778
327,1025.165,562.7118,1800
328,1026.122,562.7421,1796
329,1027.079,562.7724,1803
330,1028.036,562.8028,1797
331,1028.993,562.8331,1811
332,1029.95,562.8634,1844
333,1030.906,562.8937,1822
334,1031.863,562.924,1851
335,1032.819,562.9543,1860
336,1033.775,562.9846,1833
337,1034.731,563.0149,1832
338,1035.687,563.0452,1816
339,1036.643,563.0755,1804
340,1037.599,563.1058,1820
341,1038.554,563.1361,1844
342,1039.509,563.1664,1831
343,1040.465,563.1967,1850
344,1041.42,563.227,1825
345,1042.375,563.2573,1845
346,1043.33,563.2876,1860
347,1044.284,563.3179,1831
348,1045.239,563.3482,1851
349,1046.193,563.3785,1831
350,1047.148,563.4088,1865
351,1048.102,563.439,1867
352,1049.056,563.4693,1896
353,1050.01,563.4996,1881
354,1050.964,563.5299,1835
355,1051.917,563.5602,1854
356,1052.871,563.5905,1827
357,1053.824,563.6208,1829
358,1054.777,563.651,1847
359,1055.73,563.6813,1858
360,1056.683,563.7116,1871
361,1057.636,563.7419,1856
362,1058.589,563.7722,1805
363,1059.541,563.8024,1861
364,1060.494,563.8327,1896
365,1061.446,563.863,1923
366,1062.398,563.8933,1847
367,1063.35,563.9236,1869
368,1064.302,563.9538,1851
369,1065.254,563.9841,1860
370,1066.206,564.0144,1867
371,1067.157,564.0446,1884
372,1068.109,564.0749,1875
373,1069.06,564.1052,1864
374,1070.011,564.1354,1851
375,1070.962,564.1657,1862
376,1071.913,564.196,1920
377,1072.864,564.2262,1866
378,1073.814,564.2565,1880
379,1074.765,564.2868,1897
380,1075.715,564.317,1878
381,1076.665,564.3473,1864
382,1077.615,564.3775,1883
383,1078.565,564.4078,1899
384,1079.515,564.4381,1902
385,1080.465,564.4683,1881
386,1081.414,564.4986,1946
387,1082.363,564.5288,1909
388,1083.313,564.5591,1908
389,1084.262,564.5893,1905
390,1085.211,564.6196,1916
391,1086.16,564.6498,1903
392,1087.108,564.6801,1898
393,1088.057,564.7103,1939
394,1089.005,564.7406,1892
395,1089.954,564.7708,1907
396,1090.902,564.8011,1872
397,1091.85,564.8313,1931
398,1092.798,564.8616,1912
399,1093.746,564.8918,1937
400,1094.693,564.9221,1889
401,1095.641,564.9523,1939
402,1096.588,564.9825,1906
403,1097.536,565.0128,1949
404,1098.483,565.043,1923
405,1099.43,565.0732,1902
406,1100.377,565.1035,1928
407,1101.323,565.1337,1892
408,1102.27,565.164,1919
409,1103.216,565.1942,1944
410,1104.163,565.2244,1939
411,1105.109,565.2546,1917
412,1106.055,565.2849,1908
413,1107.001,565.3151,1897
414,1107.947,565.3453,1933
415,1108.893,565.3756,1909
416,1109.838,565.4058,1926
417,1110.783,565.436,1903
418,1111.729,565.4662,1937
419,1112.674,565.4965,1906
420,1113.619,565.5267,1960
421,1114.564,565.5569,1899
422,1115.509,565.5871,1938
423,1116.453,565.6173,1926
424,1117.398,565.6476,1946
425,1118.342,565.6778,1955
426,1119.286,565.708,1955
427,1120.23,565.7382,1861
428,1121.174,565.7684,1952
429,1122.118,565.7986,1906
430,1123.062,565.8289,1938
431,1124.006,565.8591,1947
432,1124.949,565.8893,1907
433,1125.892,565.9195,1954
434,1126.835,565.9497,1903
435,1127.778,565.9799,1935
436,1128.721,566.0101,1999
437,1129.664,566.0403,1967
438,1130.607,566.0705,1900
439,1131.549,566.1007,1946
440,1132.492,566.1309,1940
441,1133.434,566.1611,1985
442,1134.376,566.1913,1932
443,1135.318,566.2215,2010
444,1136.26,566.2517,1936
445,1137.202,566.2819,1966
446,1138.143,566.3121,1963
447,1139.085,566.3423,1945
448,1140.026,566.3725,1976
449,1140.967,566.4027,1988
450,1141.908,566.4329,1983
451,1142.849,566.4631,1984
452,1143.79,566.4933,1958
453,1144.731,566.5235,1987
454,1145.671,566.5537,1965
455,1146.612,566.5838,1985
456,1147.552,566.614,1942
457,1148.492,566.6442,1989
458,1149.432,566.6744,1996
459,1150.372,566.7046,1991
460,1151.312,566.7348,1979
461,1152.252,566.7649,1992
462,1153.191,566.7951,2010
463,1154.131,566.8253,2006
464,1155.07,566.8555,1994
465,1156.009,566.8857,2024
466,1156.948,566.9158,1994
467,1157.887,566.946,1989
468,1158.825,566.9762,1970
469,1159.764,567.0064,2069
470,1160.702,567.0365,1985
471,1161.641,567.0667,2007
472,1162.579,567.0969,2015
473,1163.517,567.127,2019
474,1164.455,567.1572,2017
475,1165.393,567.1874,2003
476,1166.331,567.2175,2005
477,1167.268,567.2477,2034
478,1168.205,567.2779,2011
479,1169.143,567.308,2006
480,1170.08,567.3382,2048
481,1171.017,567.3684,2004
482,1171.954,567.3985,2030
483,1172.891,567.4287,2018
484,1173.827,567.4588,2055
485,1174.764,567.489,2057
486,1175.7,567.5192,2050
487,1176.636,567.5493,2068
488,1177.572,567.5795,2043
489,1178.508,567.6096,2117
490,1179.444,567.6398,2101
491,1180.38,567.6699,2086
492,1181.316,567.7001,2101
493,1182.251,567.7302,2017
494,1183.186,567.7604,2067
495,1184.122,567.7905,2065
496,1185.057,567.8207,1998
497,1185.992,567.8508,2059
498,1186.926,567.881,2057
499,1187.861,567.9111,2097
500,1188.796,567.9413,2067
501,1189.73,567.9714,2032
502,1190.664,568.0015,2066
503,1191.598,568.0317,2098
504,1192.532,568.0618,2073
505,1193.466,568.092,2060
506,1194.4,568.1221,2035
507,1195.334,568.1522,2104
508,1196.267,568.1824,2073
509,1197.201,568.2125,2109
510,1198.134,568.2426,2134
511,1199.067,568.2728,2152
512,1200,568.3029,2098
513,1200.933,568.333,2119
514,1201.866,568.3631,2136
515,1202.798,568.3933,2110
516,1203.731,568.4234,2095
517,1204.663,568.4535,2123
518,1205.595,568.4837,2122
519,1206.527,568.5138,2099
520,1207.459,568.5439,2098
521,1208.391,568.574,2121
522,1209.323,568.6041,2121
523,1210.254,568.6343,2156
524,1211.186,568.6644,2096
525,1212.117,568.6945,2133
526,1213.048,568.7246,2219
527,1213.979,568.7547,2159
528,1214.91,568.7848,2176
529,1215.841,568.815,2199
530,1216.772,568.8451,2211
531,1217.702,568.8752,2174
532,1218.633,568.9053,2195
533,1219.563,568.9354,2182
534,1220.493,568.9655,2238
535,1221.423,568.9956,2188
536,1222.353,569.0257,2218
537,1223.283,569.0558,2183
538,1224.212,569.0859,2203
539,1225.142,569.116,2233
540,1226.071,569.1461,2226
541,1227,569.1763,2249
542,1227.929,569.2064,2240
543,1228.858,569.2365,2319
544,1229.787,569.2666,2315
545,1230.716,569.2966,2332
546,1231.644,569.3267,2406
547,1232.573,569.3568,2359
548,1233.501,569.3869,2354
549,1234.429,569.417,2419
550,1235.358,569.4471,2386
551,1236.285,569.4772,2355
552,1237.213,569.5073,2446
553,1238.141,569.5374,2488
554,1239.069,569.5675,2545
555,1239.996,569.5976,2523
556,1240.923,569.6277,2592
557,1241.85,569.6577,2592
558,1242.777,569.6878,2620
559,1243.704,569.7179,2569
560,1244.631,569.748,2599
561,1245.558,569.7781,2547
562,1246.484,569.8082,2490
563,1247.411,569.8382,2430
564,1248.337,569.8683,2443
565,1249.263,569.8984,2396
566,1250.189,569.9285,2409
567,1251.115,569.9585,2387
568,1252.041,569.9886,2322
569,1252.966,570.0187,2433
570,1253.892,570.0488,2404
571,1254.817,570.0788,2339
572,1255.742,570.1089,2413
573,1256.668,570.139,2462
574,1257.593,570.1691,2358
575,1258.517,570.1991,2479
576,1259.442,570.2292,2483
577,1260.367,570.2593,2479
578,1261.291,570.2893,2450
579,1262.216,570.3194,2375
580,1263.14,570.3494,2388
581,1264.064,570.3795,2416
582,1264.988,570.4096,2372
583,1265.912,570.4396,2419
584,1266.835,570.4697,2331
585,1267.759,570.4997,2360
586,1268.682,570.5298,2392
587,1269.606,570.5599,2362
588,1270.529,570.5899,2311
589,1271.452,570.62,2296
590,1272.375,570.65,2337
591,1273.298,570.6801,2243
592,1274.22,570.7101,2248
593,1275.143,570.7402,2206
594,1276.065,570.7702,2297
595,1276.987,570.8003,2242
596,1277.91,570.8303,2247
597,1278.832,570.8604,2249
598,1279.754,570.8904,2249
599,1280.675,570.9204,2284
600,1281.597,570.9505,2271
601,1282.519,570.9805,2260
602,1283.44,571.0106,2249
603,1284.361,571.0406,2243
604,1285.282,571.0706,2227
605,1286.203,571.1007,2320
606,1287.124,571.1307,2299
607,1288.045,571.1608,2314
608,1288.966,571.1908,2292
609,1289.886,571.2208,2273
610,1290.806,571.2509,2258
611,1291.727,571.2809,2291
612,1292.647,571.3109,2227
613,1293.567,571.341,2247
614,1294.487,571.371,2219
615,1295.406,571.401,2299
616,1296.326,571.431,2261
617,1297.245,571.4611,2178
618,1298.165,571.4911,2189
619,1299.084,571.5211,2187
620,1300.003,571.5511,2255
621,1300.922,571.5812,2249
622,1301.841,571.6112,2166
623,1302.76,571.6412,2183
624,1303.678,571.6712,2207
625,1304.597,571.7012,2224
626,1305.515,571.7312,2228
627,1306.433,571.7613,2198
628,1307.351,571.7913,2203
629,1308.269,571.8213,2195
630,1309.187,571.8513,2179
631,1310.105,571.8813,2207
632,1311.022,571.9113,2244
633,1311.94,571.9413,2195
634,1312.857,571.9713,2225
635,1313.774,572.0013,2167
636,1314.691,572.0314,2168
637,1315.608,572.0614,2235
638,1316.525,572.0914,2173
639,1317.442,572.1214,2210
640,1318.358,572.1514,2225
641,1319.275,572.1814,2202
642,1320.191,572.2114,2152
643,1321.107,572.2414,2217
644,1322.023,572.2714,2218
645,1322.939,572.3014,2253
646,1323.855,572.3314,2265
647,1324.77,572.3614,2208
648,1325.686,572.3913,2292
649,1326.601,572.4213,2299
650,1327.517,572.4513,2288
651,1328.432,572.4813,2270
652,1329.347,572.5113,2234
653,1330.262,572.5413,2279
654,1331.177,572.5713,2242
655,1332.091,572.6013,2281
656,1333.006,572.6313,2242
657,1333.92,572.6613,2278
658,1334.834,572.6912,2253
659,1335.748,572.7212,2250
660,1336.663,572.7512,2304
661,1337.576,572.7812,2314
662,1338.49,572.8112,2267
663,1339.404,572.8411,2237
664,1340.317,572.8711,2264
665,1341.231,572.9011,2313
666,1342.144,572.9311,2307
667,1343.057,572.961,2240
668,1343.97,572.991,2295
669,1344.883,573.021,2331
670,1345.796,573.051,2266
671,1346.708,573.0809,2241
672,1347.621,573.1109,2260
673,1348.533,573.1409,2296
674,1349.445,573.1708,2248
675,1350.357,573.2008,2341
676,1351.269,573.2308,2251
677,1352.181,573.2607,2250
678,1353.093,573.2907,2230
679,1354.005,573.3207,2287
680,1354.916,573.3506,2243
681,1355.827,573.3806,2243
682,1356.739,573.4105,2192
683,1357.65,573.4405,2276
684,1358.561,573.4705,2280
685,1359.472,573.5004,2261
686,1360.382,573.5304,2196
687,1361.293,573.5603,2246
688,1362.203,573.5903,2212
689,1363.114,573.6202,2219
690,1364.024,573.6502,2233
691,1364.934,573.6801,2164
692,1365.844,573.7101,2202
693,1366.754,573.74,2205
694,1367.664,573.77,2169
695,1368.573,573.7999,2219
696,1369.483,573.8299,2240
697,1370.392,573.8598,2261
698,1371.301,573.8898,2225
699,1372.21,573.9197,2187
700,1373.119,573.9496,2193
701,1374.028,573.9796,2227
702,1374.937,574.0095,2211
703,1375.845,574.0395,2221
704,1376.754,574.0694,2199
705,1377.662,574.0993,2188
706,1378.57,574.1293,2232
707,1379.479,574.1592,2242
708,1380.386,574.1891,2218
709,1381.294,574.2191,2204
710,1382.202,574.249,2257
711,1383.11,574.2789,2238
712,1384.017,574.3089,2198
713,1384.924,574.3388,2209
714,1385.832,574.3687,2249
715,1386.739,574.3986,2220
716,1387.646,574.4286,2198
717,1388.552,574.4585,2263
718,1389.459,574.4884,2196
719,1390.366,574.5183,2289
720,1391.272,574.5483,2265
721,1392.178,574.5782,2203
722,1393.085,574.6081,2241
723,1393.991,574.638,2261
724,1394.897,574.6679,2252
725,1395.802,574.6978,2264
726,1396.708,574.7278,2291
727,1397.614,574.7577,2241
728,1398.519,574.7876,2299
729,1399.425,574.8175,2244
730,1400.33,574.8474,2248
731,1401.235,574.8773,2287
732,1402.14,574.9072,2326
733,1403.045,574.9371,2190
734,1403.949,574.967,2281
735,1404.854,574.9969,2241
736,1405.758,575.0269,2237
737,1406.663,575.0568,2258
738,1407.567,575.0867,2226
739,1408.471,575.1166,2239
740,1409.375,575.1465,2235
741,1410.279,575.1764,2244
742,1411.182,575.2063,2258
743,1412.086,575.2362,2275
744,1412.989,575.2661,2206
745,1413.893,575.2959,2265
746,1414.796,575.3258,2229
747,1415.699,575.3557,2287
748,1416.602,575.3856,2243
749,1417.505,575.4155,2226
750,1418.407,575.4454,2234
751,1419.31,575.4753,2305
752,1420.212,575.5052,2238
753,1421.115,575.5351,2260
754,1422.017,575.565,2268
755,1422.919,575.5948,2199
756,1423.821,575.6247,2272
757,1424.723,575.6546,2222
758,1425.624,575.6845,2230
759,1426.526,575.7144,2249
760,1427.428,575.7443,2234
761,1428.329,575.7741,2250
762,1429.23,575.804,2202
763,1430.131,575.8339,2227
764,1431.032,575.8638,2278
765,1431.933,575.8936,2226
766,1432.834,575.9235,2222
767,1433.734,575.9534,2228
768,1434.635,575.9833,2232
769,1435.535,576.0131,2191
770,1436.435,576.043,2221
771,1437.335,576.0729,2211
772,1438.235,576.1027,2203
773,1439.135,576.1326,2210
774,1440.035,576.1625,2198
775,1440.934,576.1923,2218
776,1441.834,576.2222,2195
777,1442.733,576.2521,2182
778,1443.632,576.2819,2184
779,1444.531,576.3118,2245
780,1445.43,576.3416,2187
781,1446.329,576.3715,2207
782,1447.228,576.4013,2187
783,1448.127,576.4312,2232
784,1449.025,576.4611,2222
785,1449.923,576.4909,2215
786,1450.822,576.5208,2183
787,1451.72,576.5506,2204
788,1452.618,576.5805,2260
789,1453.516,576.6103,2235
790,1454.413,576.6402,2252
791,1455.311,576.67,2298
792,1456.208,576.6999,2239
793,1457.106,576.7297,2255
794,1458.003,576.7596,2198
795,1458.9,576.7894,2267
796,1459.797,576.8192,2285
797,1460.694,576.8491,2256
798,1461.591,576.8789,2252
799,1462.487,576.9088,2277
800,1463.384,576.9386,2296
801,1464.28,576.9684,2297
802,1465.176,576.9983,2288
803,1466.072,577.0281,2285
804,1466.968,577.0579,2309
805,1467.864,577.0878,2271
806,1468.76,577.1176,2291
807,1469.656,577.1474,2328
808,1470.551,577.1773,2276
809,1471.446,577.2071,2291
810,1472.342,577.2369,2310
811,1473.237,577.2668,2282
812,1474.132,577.2966,2298
813,1475.027,577.3264,2283
814,1475.921,577.3562,2315
815,1476.816,577.3861,2311
816,1477.711,577.4159,2335
817,1478.605,577.4457,2288
818,1479.499,577.4755,2291
819,1480.393,577.5053,2337
820,1481.287,577.5352,2305
821,1482.181,577.565,2328
822,1483.075,577.5948,2234
823,1483.969,577.6246,2340
824,1484.862,577.6544,2313
825,1485.756,577.6842,2280
826,1486.649,577.714,2267
827,1487.542,577.7439,2321
828,1488.435,577.7737,2292
829,1489.328,577.8035,2305
830,1490.221,577.8333,2300
831,1491.113,577.8631,2308
832,1492.006,577.8929,2368
833,1492.898,577.9227,2250
834,1493.791,577.9525,2373
835,1494.683,577.9823,2335
836,1495.575,578.0121,2344
837,1496.467,578.0419,2272
838,1497.359,578.0717,2309
839,1498.25,578.1015,2271
840,1499.142,578.1313,2325
841,1500.033,578.1611,2354
842,1500.925,578.1909,2362
843,1501.816,578.2207,2295
844,1502.707,578.2505,2321
845,1503.598,578.2803,2316
846,1504.489,578.3101,2305
847,1505.379,578.3399,2289
848,1506.27,578.3696,2337
849,1507.16,578.3994,2341
850,1508.051,578.4292,2330
851,1508.941,578.459,2364
852,1509.831,578.4888,2285
853,1510.721,578.5186,2325
854,1511.611,578.5484,2379
855,1512.5,578.5781,2361
856,1513.39,578.6079,2355
857,1514.279,578.6377,2374
858,1515.169,578.6675,2373
859,1516.058,578.6973,2344
860,1516.947,578.727,2342
861,1517.836,578.7568,2389
862,1518.725,578.7866,2292
863,1519.614,578.8164,2349
864,1520.502,578.8461,2360
865,1521.391,578.8759,2364
866,1522.279,578.9057,2353
867,1523.167,578.9354,2358
868,1524.055,578.9652,2383
869,1524.943,578.995,2373
870,1525.831,579.0247,2391
871,1526.719,579.0545,2350
872,1527.607,579.0843,2414
873,1528.494,579.114,2399
874,1529.382,579.1438,2325
875,1530.269,579.1736,2381
876,1531.156,579.2033,2429
877,1532.043,579.2331,2360
878,1532.93,579.2628,2376
879,1533.817,579.2926,2383
880,1534.703,579.3223,2388
881,1535.59,579.3521,2369
882,1536.476,579.3819,2363
883,1537.363,579.4116,2364
884,1538.249,579.4414,2370
885,1539.135,579.4711,2419
886,1540.021,579.5009,2369
887,1540.907,579.5306,2403
888,1541.792,579.5604,2376
889,1542.678,579.5901,2377
890,1543.563,579.6198,2383
891,1544.449,579.6496,2385
892,1545.334,579.6793,2360
893,1546.219,579.7091,2409
894,1547.104,579.7388,2394
895,1547.989,579.7686,2451
896,1548.873,579.7983,2425
897,1549.758,579.828,2372
898,1550.642,579.8578,2390
899,1551.527,579.8875,2379
900,1552.411,579.9172,2380
901,1553.295,579.947,2409
902,1554.179,579.9767,2433
903,1555.063,580.0064,2374
904,1555.946,580.0362,2350
905,1556.83,580.0659,2395
906,1557.714,580.0956,2338
907,1558.597,580.1254,2387
908,1559.48,580.1551,2393
909,1560.363,580.1848,2316
910,1561.246,580.2145,2375
911,1562.129,580.2443,2453
912,1563.012,580.274,2377
913,1563.895,580.3037,2409
914,1564.777,580.3334,2399
915,1565.659,580.3631,2375
916,1566.542,580.3929,2418
917,1567.424,580.4226,2381
918,1568.306,580.4523,2385
919,1569.188,580.482,2361
920,1570.07,580.5117,2435
921,1570.951,580.5414,2390
922,1571.833,580.5711,2413
923,1572.714,580.6009,2343
924,1573.596,580.6306,2343
925,1574.477,580.6603,2361
926,1575.358,580.69,2364
927,1576.239,580.7197,2397
928,1577.12,580.7494,2405
929,1578,580.7791,2358
930,1578.881,580.8088,2403
931,1579.761,580.8385,2385
932,1580.642,580.8682,2356
933,1581.522,580.8979,2405
934,1582.402,580.9276,2370
935,1583.282,580.9573,2407
936,1584.162,580.987,2417
937,1585.041,581.0167,2404
938,1585.921,581.0464,2436
939,1586.8,581.0761,2446
940,1587.68,581.1058,2472
941,1588.559,581.1355,2406
942,1589.438,581.1652,2426
943,1590.317,581.1949,2432
944,1591.196,581.2245,2411
945,1592.075,581.2542,2413
946,1592.953,581.2839,2404
947,1593.832,581.3136,2433
948,1594.71,581.3433,2413
949,1595.589,581.373,2375
950,1596.467,581.4027,2332
951,1597.345,581.4323,2403
952,1598.223,581.462,2422
953,1599.101,581.4917,2421
954,1599.978,581.5214,2349
955,1600.856,581.5511,2382
956,1601.733,581.5807,2495
957,1602.611,581.6104,2432
958,1603.488,581.6401,2420
959,1604.365,581.6698,2448
960,1605.242,581.6994,2413
961,1606.119,581.7291,2422
962,1606.995,581.7588,2439
963,1607.872,581.7884,2456
964,1608.748,581.8181,2384
965,1609.625,581.8478,2422
966,1610.501,581.8774,2426
967,1611.377,581.9071,2416
968,1612.253,581.9368,2450
969,1613.129,581.9664,2503
970,1614.005,581.9961,2423
971,1614.88,582.0258,2462
972,1615.756,582.0554,2457
973,1616.631,582.0851,2408
974,1617.506,582.1147,2436
975,1618.382,582.1444,2421
976,1619.257,582.174,2460
977,1620.131,582.2037,2477
978,1621.006,582.2333,2495
979,1621.881,582.263,2403
980,1622.755,582.2927,2437
981,1623.63,582.3223,2431
982,1624.504,582.352,2401
983,1625.378,582.3816,2451
984,1626.252,582.4112,2492
985,1627.126,582.4409,2385
986,1628,582.4705,2418
987,1628.874,582.5002,2461
988,1629.747,582.5298,2462
989,1630.621,582.5595,2482
990,1631.494,582.5891,2471
991,1632.368,582.6187,2434
992,1633.241,582.6484,2451
993,1634.114,582.678,2501
994,1634.986,582.7077,2434
995,1635.859,582.7373,2460
996,1636.732,582.7669,2464
997,1637.604,582.7966,2457
998,1638.477,582.8262,2443
999,1639.349,582.8558,2517
1000,1640.221,582.8855,2468
1001,1641.093,582.9151,2489
1002,1641.965,582.9447,2458
1003,1642.837,582.9743,2436
1004,1643.709,583.004,2464
1005,1644.58,583.0336,2483
1006,1645.452,583.0632,2463
1007,1646.323,583.0928,2466
1008,1647.194,583.1225,2468
1009,1648.065,583.1521,2497
1010,1648.936,583.1817,2489
1011,1649.807,583.2113,2480
1012,1650.678,583.2409,2516
1013,1651.548,583.2706,2501
1014,1652.419,583.3002,2458
1015,1653.289,583.3298,2442
1016,1654.159,583.3594,2419
1017,1655.029,583.389,2511
1018,1655.899,583.4186,2477
1019,1656.769,583.4482,2527
1020,1657.639,583.4778,2512
1021,1658.509,583.5074,2430
1022,1659.378,583.5371,2536
1023,1660.247,583.5667,2486
