pixel_index,raman_shift_cm-1,intensity
0,200.0,-12.347642070278937
1,201.0,-12.058101697063798
2,202.0,-11.77140842224393
3,203.0,-11.487551278702384
4,204.0,-11.206518327047078
5,205.0,-10.92829765558114
6,206.0,-10.65287638027366
7,207.0,-10.38024464472997
8,208.0,-10.110388620162446
9,209.0,-9.843296505360883
10,210.0,-9.57895852666298
11,211.0,-9.317360937925095
12,212.0,-9.058492020492551
13,213.0,-8.802342083170252
14,214.0,-8.54889646219334
15,215.0,-8.298145521197455
16,216.0,-8.050077651189547
17,217.0,-7.804680270518297
18,218.0,-7.561941824844588
19,219.0,-7.321851787112152
20,220.0,-7.0843976575179965
21,221.0,-6.849567963483089
22,222.0,-6.6173512596227155
23,223.0,-6.387736127717197
24,224.0,-6.160712176682168
25,225.0,-5.936267042539463
26,226.0,-5.714388388387285
27,227.0,-5.495066904371022
28,228.0,-5.278290307653691
29,229.0,-5.064046342386348
30,230.0,-4.8523257796788215
31,231.0,-4.643115417570115
32,232.0,-4.436405080999037
33,233.0,-4.232182621774591
34,234.0,-4.030438918546658
35,235.0,-3.8311608767764724
36,236.0,-3.634337428707127
37,237.0,-3.439958533334199
38,238.0,-3.2480131763761193
39,239.0,-3.058489370245013
40,240.0,-2.871376154016758
41,241.0,-2.6866635934020024
42,242.0,-2.504339780716478
43,243.0,-2.324393834851371
44,244.0,-2.1468149012442694
45,245.0,-1.9715931518493264
46,246.0,-1.7987157851079658
47,247.0,-1.628174025919357
48,248.0,-1.459955125610989
49,249.0,-1.294050361909207
50,250.0,-1.1304470389097645
51,251.0,-0.9691354870481916
52,252.0,-0.810104063070689
53,253.0,-0.6533441500041874
54,254.0,-0.498843157127304
55,255.0,-0.346590519940591
56,256.0,-0.19657670013731376
57,257.0,-0.04879118557374085
58,258.0,0.09677750976016597
59,259.0,0.24013984577024416
60,260.0,0.3813062562876226
61,261.0,0.5202871490981593
62,262.0,0.6570919059719529
63,263.0,0.7917328826927772
64,264.0,0.9242184090874801
65,265.0,1.0545607890555644
66,266.0,1.182768300598596
67,267.0,1.3088531958497
68,268.0,1.4328257011029208
69,269.0,1.5546950168428921
70,270.0,1.6744713177740422
71,271.0,1.7921657528503587
72,272.0,1.9077874453044927
73,273.0,2.0213474926775064
74,274.0,2.132855966848396
75,275.0,2.242322914063223
76,276.0,2.3497573549648365
77,277.0,2.455171284622253
78,278.0,2.5585736725602004
79,279.0,2.659974462788476
80,280.0,2.7593835738315065
81,281.0,2.8568118987576483
82,282.0,2.9522683052089604
83,283.0,3.0457626354303144
84,284.0,3.137306706299121
85,285.0,3.2269083093546413
86,286.0,3.3145772108275793
87,287.0,3.400325151669456
88,288.0,3.484160847582018
89,289.0,3.566093989046969
90,290.0,3.646133241354967
91,291.0,3.7242912446356726
92,292.0,3.800574613886738
93,293.0,3.874995939003476
94,294.0,3.9475617848083076
95,295.0,4.01828469108024
96,296.0,4.087172172584289
97,297.0,4.1542347191008915
98,298.0,4.219481795455614
99,299.0,4.282923841548332
100,300.0,4.344568272382759
101,301.0,4.404426478096063
102,302.0,4.462507823988254
103,303.0,4.51882065055149
104,304.0,4.573375273499849
105,305.0,4.626179983798508
106,306.0,4.677246047693281
107,307.0,4.726581706740305
108,308.0,4.774196177835208
109,309.0,4.820098653242681
110,310.0,4.864299300626044
111,311.0,4.90680626307654
112,312.0,4.9476306591429235
113,313.0,4.986779582860898
114,314.0,5.024263103782545
115,315.0,5.06009026700584
116,316.0,5.094271093204071
117,317.0,5.126813578655316
118,318.0,5.157727695271987
119,319.0,5.187022390630155
120,320.0,5.214705587999106
121,321.0,5.240788186370736
122,322.0,5.265278060489187
123,323.0,5.288184060880155
124,324.0,5.309516013880248
125,325.0,5.329281721666824
126,326.0,5.347491962287059
127,327.0,5.364153489687681
128,328.0,5.379277033744188
129,329.0,5.392871300290736
130,330.0,5.404943971149045
131,331.0,5.415503704158297
132,332.0,5.424561133204435
133,333.0,5.43212386824959
134,334.0,5.43820049536167
135,335.0,5.442800576743771
136,336.0,5.445932650763545
137,337.0,5.447605231982763
138,338.0,5.4478268111869
139,339.0,5.446605855414326
140,340.0,5.443951807985975
141,341.0,5.439873088534604
142,342.0,5.4343780930347165
143,343.0,5.427475193831469
144,344.0,5.419172739670323
145,345.0,5.409481055726765
146,346.0,5.398406443635572
147,347.0,5.385959181520043
148,348.0,5.372146524021922
149,349.0,5.356977702330653
150,350.0,5.340460924212607
151,351.0,5.322604374041013
152,352.0,5.303417212825174
153,353.0,5.282907578239779
154,354.0,5.261082584654616
155,355.0,5.23795232316391
156,356.0,5.213524861616065
157,357.0,5.187807244642556
158,358.0,5.160809493687964
159,359.0,5.132538607039059
160,360.0,5.103004559854632
161,361.0,5.072213304194513
162,362.0,5.040174769049393
163,363.0,5.006895860370257
164,364.0,4.9723864610975
165,365.0,4.936653431190862
166,366.0,4.8997066076585725
167,367.0,4.861551804587144
168,368.0,4.822198813170331
169,369.0,4.781654401738884
170,370.0,4.7399283157902445
171,371.0,4.69702827801779
172,372.0,4.652960988339942
173,373.0,4.607737123930349
174,374.0,4.561361339246872
175,375.0,4.51384526606094
176,376.0,4.465193513487549
177,377.0,4.415416668014359
178,378.0,4.364522293530939
179,379.0,4.3125169313588
180,380.0,4.259410100280462
181,381.0,4.205209296569066
182,382.0,4.149921994017703
183,383.0,4.093556643969194
184,384.0,4.036121675344916
185,385.0,3.977623494675086
186,386.0,3.918071486127644
187,387.0,3.8574720115380643
188,388.0,3.7958344104384167
189,389.0,3.7331660000872233
190,390.0,3.6694750754986813
191,391.0,3.6047679094723577
192,392.0,3.5390547526224054
193,393.0,3.472340833407131
194,394.0,3.4046363581585553
195,395.0,3.335947511111698
196,396.0,3.266282454434389
197,397.0,3.1956493282560103
198,398.0,3.1240552506978645
199,399.0,3.0515093179019743
200,400.0,2.9780176040608524
201,401.0,2.903590161446928
202,402.0,2.8282320204419023
203,403.0,2.751952189566339
204,404.0,2.6747586555092226
205,405.0,2.596659383156961
206,406.0,2.5176613156234424
207,407.0,2.437773374279274
208,408.0,2.3570014587807435
209,409.0,2.2753544471004403
210,410.0,2.192840195555405
211,411.0,2.109466538837637
212,412.0,2.025240290042859
213,413.0,1.940169240700456
214,414.0,1.8542621608026764
215,415.0,1.7675267988340693
216,416.0,1.679969881801341
217,417.0,1.591599115262241
218,418.0,1.5024231833551909
219,419.0,1.4124487488293198
220,420.0,1.3216844530733027
221,421.0,1.2301379161446135
222,422.0,1.137816736800204
223,423.0,1.0447284925242144
224,424.0,0.950881739559037
225,425.0,0.8562830129338295
226,426.0,0.7609408264944904
227,427.0,0.6648636729325972
228,428.0,0.5680580238153254
229,429.0,0.4705323296146844
230,430.0,0.3722950197374786
231,431.0,0.27335250255372046
232,432.0,0.1737141654269294
233,433.0,0.07338737474385937
234,434.0,-0.02762052405719828
235,435.0,-0.1293002064556532
236,436.0,-0.23164536882008235
237,437.0,-0.33464672837838805
238,438.0,-0.43829702318826946
239,439.0,-0.5425880121080127
240,440.0,-0.6475114747666169
241,441.0,-0.7530592115347616
242,442.0,-0.8592230434952199
243,443.0,-0.965995812413226
244,444.0,-1.0733673807072819
245,445.0,-1.181331631419269
246,446.0,-1.2898784681853215
247,447.0,-1.3990008152064917
248,448.0,-1.5086896172188489
249,449.0,-1.6189368394641974
250,450.0,-1.7297334676611058
251,451.0,-1.8410715079745188
252,452.0,-1.9529419869868434
253,453.0,-2.065336951668442
254,454.0,-2.178247469348463
255,455.0,-2.2916636276844145
256,456.0,-2.4055785346337757
257,457.0,-2.519981318424101
258,458.0,-2.634864127523244
259,459.0,-2.750219130610475
260,460.0,-2.866034516546506
261,461.0,-2.982302494344381
262,462.0,-3.099014293139973
263,463.0,-3.216160162162055
264,464.0,-3.3337293707034945
265,465.0,-3.4517142080915164
266,466.0,-3.570103983658157
267,467.0,-3.68888902671074
268,468.0,-3.808059686502645
269,469.0,-3.9276053322037825
270,470.0,-4.047517352870813
271,471.0,-4.167783157418228
272,472.0,-4.288394174588603
273,473.0,-4.409338852922886
274,474.0,-4.530606660731323
275,475.0,-4.652187086064032
276,476.0,-4.774068636680781
277,477.0,-4.896239840022602
278,478.0,-5.018690243181808
279,479.0,-5.141408412872082
280,480.0,-5.264380935400084
281,481.0,-5.387597416634804
282,482.0,-5.511044481979084
283,483.0,-5.634710776339432
284,484.0,-5.758582964097073
285,485.0,-5.882647729078101
286,486.0,-6.006892774524204
287,487.0,-6.131303823063277
288,488.0,-6.255867616679538
289,489.0,-6.380569916684863
290,490.0,-6.505396503688431
291,491.0,-6.630333177567891
292,492.0,-6.755363757439511
293,493.0,-6.880473081628907
294,494.0,-7.00564500764159
295,495.0,-7.130864412133306
296,496.0,-7.25611319088118
297,497.0,-7.381376258752937
298,498.0,-7.50663354967908
299,499.0,-7.631869016622247
300,500.0,-7.757062631548237
301,501.0,-7.882196385396355
302,502.0,-8.007249288050005
303,503.0,-8.132202368307375
304,504.0,-8.257033673851794
305,505.0,-8.381721271222247
306,506.0,-8.50624424578406
307,507.0,-8.630577701699366
308,508.0,-8.754699761897385
309,509.0,-8.878583568045684
310,510.0,-9.002204280519706
311,511.0,-9.125535078374114
312,512.0,-9.248549159312901
313,513.0,-9.371217739660523
314,514.0,-9.493511054331009
315,515.0,-9.615397356800443
316,516.0,-9.736845919076032
317,517.0,-9.857822031667041
318,518.0,-9.978292003555808
319,519.0,-10.09821816216774
320,520.0,-10.21756385334129
321,521.0,-10.33629044130042
322,522.0,-10.454354308623067
323,523.0,-10.571714856212736
324,524.0,-10.688324503268689
325,525.0,-10.804138687256852
326,526.0,-10.919105863880105
327,527.0,-11.033175507048341
328,528.0,-11.146293108850145
329,529.0,-11.25840117952204
330,530.0,-11.3694402474202
331,531.0,-11.479346858990013
332,532.0,-11.5880545787373
333,533.0,-11.695493989198155
334,534.0,-11.801591690910556
335,535.0,-11.90627030238386
336,536.0,-12.009447460069538
337,537.0,-12.111035818332198
338,538.0,-12.210944049419822
339,539.0,-12.309076843434013
340,540.0,-12.40532990830124
341,541.0,-12.499594969742532
342,542.0,-12.591755771244607
343,543.0,-12.681692074030309
344,544.0,-12.769270657028784
345,545.0,-12.854355316846977
346,546.0,-12.936795867738368
347,547.0,-13.016437141575551
348,548.0,-13.093109987819389
349,549.0,-13.166635273490215
350,550.0,-13.236821883138163
351,551.0,-13.303463718813106
352,552.0,-13.366340700036943
353,553.0,-13.425216763771743
354,554.0,-13.479839864392062
355,555.0,-13.529936973655083
356,556.0,-13.575215080670574
357,557.0,-13.615358191872332
358,558.0,-13.650027330987598
359,559.0,-13.67885253900863
360,560.0,-13.701436874162567
361,561.0,-13.71735041188279
362,562.0,-13.7261262447781
363,563.0,-13.727255482604534
364,564.0,-13.720188252234891
365,565.0,-13.704324697630739
366,566.0,-13.679007979811104
367,567.0,-13.643524276824166
368,568.0,-13.597090783717505
369,569.0,-13.538850712508577
370,570.0,-13.467861292155675
371,571.0,-13.383087768527531
372,572.0,-13.283391404374868
373,573.0,-13.167511479300373
374,574.0,-13.034056289729335
375,575.0,-12.881484148880105
376,576.0,-12.708080386735077
377,577.0,-12.511939350010266
378,578.0,-12.290933402126768
379,579.0,-12.042683923181357
380,580.0,-11.764525309915797
381,581.0,-11.453460975688927
382,582.0,-11.106115350446458
383,583.0,-10.718671880690692
384,584.0,-10.286809029453025
385,585.0,-9.805611276262823
386,586.0,-9.269474117118108
387,587.0,-8.671985064457232
388,588.0,-8.005782647128058
389,589.0,-7.2623834103593765
390,590.0,-6.431973915731078
391,591.0,-5.503158741144944
392,592.0,-4.462644480794609
393,593.0,-3.2948647451365503
394,594.0,-1.9814971608612382
395,595.0,-0.5008783708618978
396,596.0,1.1727399657930562
397,597.0,3.070118173890421
398,598.0,5.228211562102047
399,599.0,7.691671423012934
400,600.0,10.514767033152168
401,601.0,13.76386465302204
402,602.0,17.520623527126503
403,603.0,21.886151884001578
404,604.0,26.986402936245298
405,605.0,32.97917888054556
406,606.0,40.0631818977113
407,607.0,48.48955215270047
408,608.0,58.57620979465128
409,609.0,70.72476695690924
410,610.0,85.43840375705926
411,611.0,103.33567829695252
412,612.0,125.14796466273881
413,613.0,151.67345592489352
414,614.0,183.6343291382475
415,615.0,221.3464963420189
416,616.0,264.0902825598385
417,617.0,309.16455579978333
418,618.0,351.0081590544031
419,619.0,381.5005133007519
420,620.0,392.6956755004152
421,621.0,381.1882435995422
422,622.0,350.3836265288728
423,623.0,308.2277722037685
424,624.0,262.8412665242411
425,625.0,219.78527237498315
426,626.0,181.7609276253962
427,627.0,149.487915129621
428,628.0,122.65032672656707
429,629.0,100.52599323994122
430,630.0,82.31672847827846
431,631.0,67.29116223497076
432,632.0,54.83074328829548
433,633.0,44.43229940144681
434,634.0,35.69422132256372
435,635.0,28.29859878476026
436,636.0,21.994295506154145
437,637.0,16.58261718989786
438,638.0,11.905765524205435
439,639.0,7.837795182385321
440,640.0,4.277603822866951
441,641.0,1.1435380892312423
442,642.0,-1.6307613897592432
443,643.0,-4.099559000131734
444,644.0,-6.307498142673637
445,645.0,-8.291528232902749
446,646.0,-10.082404701038143
447,647.0,-11.705868991970135
448,648.0,-13.183577565232042
449,649.0,-14.533845894969346
450,650.0,-15.77223746991055
451,651.0,-16.91203579333859
452,652.0,-17.96463238305992
453,653.0,-18.93983277137687
454,654.0,-19.846114505056363
455,655.0,-20.690835145301634
456,656.0,-21.48039826772205
457,657.0,-22.220402462304037
458,658.0,-22.915757333382174
459,659.0,-23.570778499608366
460,660.0,-24.18927659392341
461,661.0,-24.774619263527057
462,662.0,-25.32979816984914
463,663.0,-25.857471988519507
464,664.0,-26.36001440933802
465,665.0,-26.839544136247213
466,666.0,-27.29796288730074
467,667.0,-27.736978394633894
468,668.0,-28.15812540443622
469,669.0,-28.562790676919462
470,670.0,-28.95222598629016
471,671.0,-29.327566120718956
472,672.0,-29.689839882311162
473,673.0,-30.039981087078672
474,674.0,-30.378842564908354
475,675.0,-30.707199159534355
476,676.0,-31.02576072850789
477,677.0,-31.335174143167677
478,678.0,-31.6360352886108
479,679.0,-31.92888706366267
480,680.0,-32.21423238084938
481,681.0,-32.492531166364984
482,682.0,-32.76420636004511
483,683.0,-33.02965091533562
484,684.0,-33.289225799264926
485,685.0,-33.54326399241182
486,686.0,-33.792076488878735
487,687.0,-34.03594829626127
488,688.0,-34.275145435617645
489,689.0,-34.50991594144048
490,690.0,-34.74048786162783
491,691.0,-34.967075257452166
492,692.0,-35.18987720353141
493,693.0,-35.409077787801124
494,694.0,-35.624851111481604
495,695.0,-35.837357289052505
496,696.0,-36.0467494482202
497,697.0,-36.25316572988925
498,698.0,-36.45674128813357
499,699.0,-36.65759729016685
500,700.0,-36.855850916312306
501,701.0,-37.05161135997352
502,702.0,-37.24497982760607
503,703.0,-37.43605353868546
504,704.0,-37.62492172568113
505,705.0,-37.81166963402413
506,706.0,-37.99637752207897
507,707.0,-38.17911966111376
508,708.0,-38.35996833527145
509,709.0,-38.53898984153861
510,710.0,-38.716246489718685
511,711.0,-38.89179960239926
512,712.0,-39.06570351492607
513,713.0,-39.238013575370616
514,714.0,-39.40877714450218
515,715.0,-39.578044595758314
516,716.0,-39.74585931521486
517,717.0,-39.912264701556865
518,718.0,-40.077300166048616
519,719.0,-40.24100513250491
520,720.0,-40.40341403726143
521,721.0,-40.564563329144875
522,722.0,-40.72448446944347
523,723.0,-40.88320793187759
524,724.0,-41.04076420257158
525,725.0,-41.19717978002126
526,726.0,-41.352482175067905
527,727.0,-41.506696910867106
528,728.0,-41.65984552285829
529,729.0,-41.811953558737684
530,730.0,-41.9630405784265
531,731.0,-42.11312815404335
532,732.0,-42.262234869873396
533,733.0,-42.410380322339336
534,734.0,-42.55758111997295
535,735.0,-42.703854883383656
536,736.0,-42.84921724523076
537,737.0,-42.99368285019301
538,738.0,-43.13726635493947
539,739.0,-43.27998242810065
540,740.0,-43.421843750237315
541,741.0,-43.56286201381346
542,742.0,-43.70304992316386
543,743.0,-43.842418194468166
544,744.0,-43.980978555718536
545,745.0,-44.11873974669061
546,746.0,-44.25571151891626
547,747.0,-44.39190463565103
548,748.0,-44.527326871846526
549,749.0,-44.66198701412054
550,750.0,-44.79589186072798
551,751.0,-44.92905022153036
552,752.0,-45.06146891796766
553,753.0,-45.19315378302787
554,754.0,-45.32411266121727
555,755.0,-45.45435040853283
556,756.0,-45.58387389243035
557,757.0,-45.712687991796486
558,758.0,-45.840797596919
559,759.0,-45.96820860945695
560,760.0,-46.09492494241175
561,761.0,-46.22095052009735
562,762.0,-46.34628927811019
563,763.0,-46.470946163301676
564,764.0,-46.59492413374642
565,765.0,-46.71822715871372
566,766.0,-46.8408572186392
567,767.0,-46.96281830509304
568,768.0,-47.08411242075272
569,769.0,-47.204742579371725
570,770.0,-47.324711805751974
571,771.0,-47.444020135712435
572,772.0,-47.56267161606132
573,773.0,-47.68066630456485
574,774.0,-47.79800726991982
575,775.0,-47.9146955917235
576,776.0,-48.03073236044173
577,777.0,-48.14611867738341
578,778.0,-48.26085565466843
579,779.0,-48.37494441519965
580,780.0,-48.48838409263118
581,781.0,-48.601176831341775
582,782.0,-48.71332278640358
583,783.0,-48.824822123552735
584,784.0,-48.93567401916107
585,785.0,-49.04587966020546
586,786.0,-49.15543824423838
587,787.0,-49.26434997935934
588,788.0,-49.37261308418459
589,789.0,-49.48022878781836
590,790.0,-49.58719532982252
591,791.0,-49.69351196018823
592,792.0,-49.79917793930446
593,793.0,-49.90419153793164
594,794.0,-50.00855303716969
595,795.0,-50.11226072842874
596,796.0,-50.21531191340131
597,797.0,-50.31770590403045
598,798.0,-50.419441022483056
599,799.0,-50.52051560111829
600,800.0,-50.62092698245863
601,801.0,-50.72067451916058
602,802.0,-50.81975457398556
603,803.0,-50.918165519769275
604,804.0,-51.01590473939382
605,805.0,-51.11296962575756
606,806.0,-51.209358581744425
607,807.0,-51.30506702019659
608,808.0,-51.4000923638834
609,809.0,-51.49443304547299
610,810.0,-51.588084507502
611,811.0,-51.681044202345504
612,812.0,-51.77330759219075
613,813.0,-51.86487114900336
614,814.0,-51.95573235449979
615,815.0,-52.045886700120036
616,816.0,-52.135329686994226
617,817.0,-52.22405782591534
618,818.0,-52.312065637310184
619,819.0,-52.399349651208524
620,820.0,-52.48590540721477
621,821.0,-52.571726454477016
622,822.0,-52.65681035165943
623,823.0,-52.741148666912636
624,824.0,-52.824738977842344
625,825.0,-52.90757487148085
626,826.0,-52.98964894425899
627,827.0,-53.07095780197466
628,828.0,-53.151494059765014
629,829.0,-53.23125134207493
630,830.0,-53.310222282629354
631,831.0,-53.3884025244044
632,832.0,-53.46578371959538
633,833.0,-53.54235852958817
634,834.0,-53.61811962493243
635,835.0,-53.693058685308245
636,836.0,-53.767169399498414
637,837.0,-53.84044346536052
638,838.0,-53.91287058979401
639,839.0,-53.98444448871413
640,840.0,-54.05515388701974
641,841.0,-54.1249915185665
642,842.0,-54.19394612613485
643,843.0,-54.262008461401365
644,844.0,-54.32916928491136
645,845.0,-54.395417366046274
646,846.0,-54.46074048299556
647,847.0,-54.5251294227279
648,848.0,-54.58857198096115
649,849.0,-54.651054962131525
650,850.0,-54.71256717936774
651,851.0,-54.77309545445701
652,852.0,-54.83262661781896
653,853.0,-54.89114650847455
654,854.0,-54.94864197401773
655,855.0,-55.005097870584336
656,856.0,-55.06049806282505
657,857.0,-55.11482742387216
658,858.0,-55.168070835315575
659,859.0,-55.22021018716754
660,860.0,-55.271228377836735
661,861.0,-55.32110731409813
662,862.0,-55.36982891106368
663,863.0,-55.41737409215119
664,864.0,-55.4637217890579
665,865.0,-55.50885094172685
666,866.0,-55.55274149832303
667,867.0,-55.59537041519741
668,868.0,-55.63671465686309
669,869.0,-55.676750195963166
670,870.0,-55.71545301324028
671,871.0,-55.75279609750993
672,872.0,-55.788753445629766
673,873.0,-55.823296062467364
674,874.0,-55.856396960877305
675,875.0,-55.888024161664475
676,876.0,-55.91814869355943
677,877.0,-55.94673659318647
678,878.0,-55.973754905036515
679,879.0,-55.99916768143413
680,880.0,-56.02293998251184
681,881.0,-56.04503187617843
682,882.0,-56.06540643808967
683,883.0,-56.084020751619164
684,884.0,-56.100831907829615
685,885.0,-56.11579600544155
686,886.0,-56.12886715080555
687,887.0,-56.139996457872485
688,888.0,-56.14913204816315
689,889.0,-56.15622305073998
690,890.0,-56.161212602176306
691,891.0,-56.16404484652821
692,892.0,-56.16465993530346
693,893.0,-56.16299302743448
694,894.0,-56.1589802892463
695,895.0,-56.15255289442848
696,896.0,-56.143638024005554
697,897.0,-56.132161866307456
698,898.0,-56.11804461693907
699,899.0,-56.10120447875295
700,900.0,-56.081555661817845
701,901.0,-56.05900638339028
702,902.0,-56.03346186788434
703,903.0,-56.00482334684307
704,904.0,-55.97298605890899
705,905.0,-55.93783924979249
706,906.0,-55.899267172246596
707,907.0,-55.857149086032564
708,908.0,-55.811356257895
709,909.0,-55.761754961528936
710,910.0,-55.70820347755159
711,911.0,-55.650551093473666
712,912.0,-55.58864210366926
713,913.0,-55.52230880934587
714,914.0,-55.45137651851519
715,915.0,-55.37565954596465
716,916.0,-55.29496221322671
717,917.0,-55.20907684855001
718,918.0,-55.11778578686943
719,919.0,-55.02085436977745
720,920.0,-54.91803894549372
721,921.0,-54.809076868836144
722,922.0,-54.69369150119104
723,923.0,-54.571589210485115
724,924.0,-54.442457371153864
725,925.0,-54.305963364112586
726,926.0,-54.161753576728984
727,927.0,-54.00944940279038
728,928.0,-53.848651242477274
729,929.0,-53.678928502332155
730,930.0,-53.49982259523051
731,931.0,-53.310844940351046
732,932.0,-53.11147096314647
733,933.0,-52.901138095315616
734,934.0,-52.679246774770775
735,935.0,-52.44514844560939
736,936.0,-52.19815055808675
737,937.0,-51.937506568583956
738,938.0,-51.66241293957944
739,939.0,-51.37200313961927
740,940.0,-51.06534264328894
741,941.0,-50.74142193118104
742,942.0,-50.39914848986814
743,943.0,-50.037339811873835
744,944.0,-49.654710395640734
745,945.0,-49.249868745504045
746,946.0,-48.82129837165803
747,947.0,-48.36734779013136
748,948.0,-47.88621552275487
749,949.0,-47.37593409713071
750,950.0,-46.83434904660686
751,951.0,-46.259101910245306
752,952.0,-45.64759923279149
753,953.0,-44.9969885646467
754,954.0,-44.30412846183867
755,955.0,-43.56554848599029
756,956.0,-42.777407204292274
757,957.0,-41.93544818947254
758,958.0,-41.034939019767194
759,959.0,-40.07060927888995
760,960.0,-39.03657555600387
761,961.0,-37.926253445692396
762,962.0,-36.73225454792805
763,963.0,-35.446265468044544
764,964.0,-34.05890881670632
765,965.0,-32.559573209879545
766,966.0,-30.936214268803155
767,967.0,-29.175118619958198
768,968.0,-27.26061889503967
769,969.0,-25.174754730925656
770,970.0,-22.896858769649157
771,971.0,-20.40305965836785
772,972.0,-17.665673049334487
773,973.0,-14.652454599868634
774,974.0,-11.325683972325692
775,975.0,-7.641032834067573
776,976.0,-3.5461448574357064
777,977.0,1.0211272802819167
778,978.0,6.134946896879114
779,979.0,11.884315305259292
780,980.0,18.37665381346676
781,981.0,25.74239572471504
782,982.0,34.14089833741821
783,983.0,43.768069945217235
784,984.0,54.86628083701305
785,985.0,67.73722829699227
786,986.0,82.75864060466029
787,987.0,100.40585003486854
788,988.0,121.27929685784352
789,989.0,146.13870033921876
790,990.0,175.94338874006178
791,991.0,211.89488731690517
792,992.0,255.46986432177357
793,993.0,308.41409800221777
794,994.0,372.6330336013392
795,995.0,449.85178535782256
796,996.0,540.8289555059639
797,997.0,643.8583562757007
798,998.0,752.5171068926408
799,999.0,853.5739875780927
800,1000.0,927.7053855490939
801,1001.0,956.0052270184415
802,1002.0,930.3803271947207
803,1003.0,858.9561942823346
804,1004.0,760.6721314815345
805,1005.0,654.8868489884483
806,1006.0,554.8695689951095
807,1007.0,467.0852796894884
808,1008.0,393.2877842555208
809,1009.0,332.7733038731361
810,1010.0,283.8808497182887
811,1011.0,244.78103496298706
812,1012.0,213.81940377532248
813,1013.0,189.63013931949854
814,1014.0,171.14760675586137
815,1015.0,157.58052324092887
816,1016.0,148.37859592741916
817,1017.0,143.2040819642816
818,1018.0,141.91276149672626
819,1019.0,144.54523966624993
820,1020.0,151.3275626106713
821,1021.0,162.6779264641558
822,1022.0,179.21192735724742
823,1023.0,201.7293124168972
824,1024.0,231.14612776649233
825,1025.0,268.30177552588714
826,1026.0,313.5219728114313
827,1027.0,365.791052736
828,1028.0,421.5105264090224
829,1029.0,473.3463529365115
830,1030.0,510.6208284210952
831,1031.0,522.8914919620435
832,1032.0,505.66725165529897
833,1033.0,463.3804475935059
834,1034.0,406.4131348660409
835,1035.0,345.3792255590404
836,1036.0,287.5436757554319
837,1037.0,236.4284365349621
838,1038.0,192.96261497422768
839,1039.0,156.7208351467034
840,1040.0,126.74711512277293
841,1041.0,101.98714196975732
842,1042.0,81.47514575194384
843,1043.0,64.39399653061889
844,1044.0,50.078445364091294
845,1045.0,37.996928307728695
846,1046.0,27.728084413981833
847,1047.0,18.93852173241646
848,1048.0,11.36398030974317
849,1049.0,4.794167189843847
850,1050.0,-0.9391445861942884
851,1051.0,-5.971328980053613
852,1052.0,-10.412008956153954
853,1053.0,-14.350527481623885
854,1054.0,-17.860165526271203
855,1055.0,-21.001405062553886
856,1056.0,-23.824471065549687
857,1057.0,-26.371319512927357
858,1058.0,-28.677190384917708
859,1059.0,-30.771850664282624
860,1060.0,-32.68056833628725
861,1061.0,-34.42490338866878
862,1062.0,-36.023333811609064
863,1063.0,-37.491769597703296
864,1064.0,-38.84396874193192
865,1065.0,-40.091873241629514
866,1066.0,-41.245891096457626
867,1067.0,-42.3151243083729
868,1068.0,-43.3075608815991
869,1069.0,-44.23023782259759
870,1070.0,-45.08936514003733
871,1071.0,-45.89044784476596
872,1072.0,-46.638372949779864
873,1073.0,-47.33749347019386
874,1074.0,-47.99169642321476
875,1075.0,-48.60445582810769
876,1076.0,-49.17889070617002
877,1077.0,-49.71780008070152
878,1078.0,-50.22370297697228
879,1079.0,-50.698869422195685
880,1080.0,-51.1453474454986
881,1081.0,-51.56498907789205
882,1082.0,-51.959467352239926
883,1083.0,-52.33029730323199
884,1084.0,-52.67884896735279
885,1085.0,-53.00636338285335
886,1086.0,-53.31396458971983
887,1087.0,-53.60266562964739
888,1088.0,-53.8733855460066
889,1089.0,-54.126947383816855
890,1090.0,-54.36409518971607
891,1091.0,-54.585492011931706
892,1092.0,-54.79172990024915
893,1093.0,-54.98333190598646
894,1094.0,-55.16075408195991
895,1095.0,-55.3243944824585
896,1096.0,-55.474589163212386
897,1097.0,-55.61161618136407
898,1098.0,-55.73569959543886
899,1099.0,-55.847004465315194
900,1100.0,-55.945642852196556
901,1101.0,-56.03166981857862
902,1102.0,-56.10508342822379
903,1103.0,-56.165821746130064
904,1104.0,-56.21376383849895
905,1105.0,-56.24872577271253
906,1106.0,-56.27045161729643
907,1107.0,-56.27861744189647
908,1108.0,-56.272819317243716
909,1109.0,-56.25256931513093
910,1110.0,-56.2172865083777
911,1111.0,-56.16628897080534
912,1112.0,-56.09877877720453
913,1113.0,-56.013833003306104
914,1114.0,-55.91038872575325
915,1115.0,-55.787220022070755
916,1116.0,-55.642918970636515
917,1117.0,-55.47587065064886
918,1118.0,-55.284225142103196
919,1119.0,-55.065853525756324
920,1120.0,-54.818313883100586
921,1121.0,-54.538795296333774
922,1122.0,-54.22405884832824
923,1123.0,-53.87036062260347
924,1124.0,-53.47336370329481
925,1125.0,-53.02803217512576
926,1126.0,-52.52849212337799
927,1127.0,-51.96787663385919
928,1128.0,-51.33811879287782
929,1129.0,-50.62970668721118
930,1130.0,-49.831372404077456
931,1131.0,-48.92970903110324
932,1132.0,-47.90867565629799
933,1133.0,-46.748986368021974
934,1134.0,-45.42732125495638
935,1135.0,-43.91531740607718
936,1136.0,-42.17827491062212
937,1137.0,-40.17347785806305
938,1138.0,-37.84802333807488
939,1139.0,-35.13599044050886
940,1140.0,-31.954773255361033
941,1141.0,-28.20033987274337
942,1142.0,-23.741190382852665
943,1143.0,-18.41084187594413
944,1144.0,-11.998970442300106
945,1145.0,-4.242049172200836
946,1146.0,5.18388784410547
947,1147.0,16.661900516430933
948,1148.0,30.61005175467858
949,1149.0,47.40658646887107
950,1150.0,67.21694856918054
951,1151.0,89.66412996595784
952,1152.0,113.33321756976318
953,1153.0,135.31119429139267
954,1154.0,151.34439104191176
955,1155.0,157.27061873267974
956,1156.0,151.30606427538703
957,1157.0,135.2344865820737
958,1158.0,113.21802156516924
959,1159.0,89.51028413751612
960,1160.0,67.02423821240075
961,1161.0,47.17474070358355
962,1162.0,30.338746525327906
963,1163.0,16.350754592429553
964,1164.0,4.832465820245261
965,1165.0,-4.634240875274031
966,1166.0,-12.432483577561356
967,1167.0,-18.886286369394725
968,1168.0,-24.259234332875508
969,1169.0,-28.761713549393335
970,1170.0,-32.56026809960099
971,1171.0,-35.7864610633826
972,1172.0,-38.544390519823764
973,1173.0,-40.91672754718627
974,1174.0,-42.969461222869654
975,1175.0,-44.75556462339239
976,1176.0,-46.31782582435574
977,1177.0,-47.69101690041589
978,1178.0,-48.90357892525503
979,1179.0,-49.97891097155025
980,1180.0,-50.93638011094629
981,1181.0,-51.79211041402539
982,1182.0,-52.55959795027695
983,1183.0,-53.250199788068585
984,1184.0,-53.873522994617474
985,1185.0,-54.43773063595904
986,1186.0,-54.949793776918796
987,1187.0,-55.41569048108295
988,1188.0,-55.84056781076822
989,1189.0,-56.228878826994446
990,1190.0,-56.584485589450196
991,1191.0,-56.91075515647026
992,1192.0,-57.21062958499931
993,1193.0,-57.486688930568675
994,1194.0,-57.741206247260834
995,1195.0,-57.97618558768443
996,1196.0,-58.19340000294426
997,1197.0,-58.39442554260768
998,1198.0,-58.58066425468246
999,1199.0,-58.753367185579464
1000,1200.0,-58.913654380089724
1001,1201.0,-59.06252888135032
1002,1202.0,-59.20089173081749
1003,1203.0,-59.32955796823728
1004,1204.0,-59.44925963161313
1005,1205.0,-59.56066075717956
1006,1206.0,-59.66436137937137
1007,1207.0,-59.76090953079665
1008,1208.0,-59.850801242201214
1009,1209.0,-59.93448954244616
1010,1210.0,-60.01238645847286
1011,1211.0,-60.0848720152793
1012,1212.0,-60.15229023588324
1013,1213.0,-60.214959141299914
1014,1214.0,-60.27317075050712
1015,1215.0,-60.32719408041885
1016,1216.0,-60.37727414585686
1017,1217.0,-60.42364195951552
1018,1218.0,-60.46650553193922
1019,1219.0,-60.5060608714889
1020,1220.0,-60.54248898431274
1021,1221.0,-60.57595587431945
1022,1222.0,-60.60661754314492
1023,1223.0,-60.634618990125546
1024,1224.0,-60.66009221226716
1025,1225.0,-60.68316520421854
1026,1226.0,-60.70395295823687
1027,1227.0,-60.72256446416213
1028,1228.0,-60.73910070938746
1029,1229.0,-60.753658678828174
1030,1230.0,-60.76632535489239
1031,1231.0,-60.77718471745311
1032,1232.0,-60.78631574381666
1033,1233.0,-60.79379140869662
1034,1234.0,-60.79967968417941
1035,1235.0,-60.804046539699016
1036,1236.0,-60.806951942005526
1037,1237.0,-60.80845285513624
1038,1238.0,-60.808605240387465
1039,1239.0,-60.80745805628021
1040,1240.0,-60.805060258537196
1041,1241.0,-60.8014568000508
1042,1242.0,-60.79669163085032
1043,1243.0,-60.79080269807844
1044,1244.0,-60.783830945956765
1045,1245.0,-60.77581131575869
1046,1246.0,-60.766778745780584
1047,1247.0,-60.7567651713091
1048,1248.0,-60.74580152459578
1049,1249.0,-60.733916734825925
1050,1250.0,-60.721139728088474
1051,1251.0,-60.707494427343704
1052,1252.0,-60.6930087524039
1053,1253.0,-60.677703619890735
1054,1254.0,-60.661602943215826
1055,1255.0,-60.64472863254514
1056,1256.0,-60.62709959477286
1057,1257.0,-60.60873673349181
1058,1258.0,-60.58965794896187
1059,1259.0,-60.56987913808439
1060,1260.0,-60.5494191943651
1061,1261.0,-60.52829300789426
1062,1262.0,-60.506515465311054
1063,1263.0,-60.484101449777654
1064,1264.0,-60.46106484094207
1065,1265.0,-60.43741651492098
1066,1266.0,-60.41317134426038
1067,1267.0,-60.38834019790886
1068,1268.0,-60.362934941192066
1069,1269.0,-60.33696443577537
1070,1270.0,-60.310440539642286
1071,1271.0,-60.28337110706116
1072,1272.0,-60.25576698855468
1073,1273.0,-60.227636030873214
1074,1274.0,-60.198987076963704
1075,1275.0,-60.169826965939365
1076,1276.0,-60.14016353305317
1077,1277.0,-60.11000360966682
1078,1278.0,-60.07935402321891
1079,1279.0,-60.0482195972005
1080,1280.0,-60.01660815111882
1081,1281.0,-59.984524500475686
1082,1282.0,-59.95197345673171
1083,1283.0,-59.91895982727988
1084,1284.0,-59.885488415417285
1085,1285.0,-59.85156202030976
1086,1286.0,-59.81718643696945
1087,1287.0,-59.782364456223036
1088,1288.0,-59.7470988646794
1089,1289.0,-59.7113934447018
1090,1290.0,-59.675248974382725
1091,1291.0,-59.63867022750685
1092,1292.0,-59.601657973526244
1093,1293.0,-59.56421397753263
1094,1294.0,-59.526341000221464
1095,1295.0,-59.488038797869876
1096,1296.0,-59.44930812229995
1097,1297.0,-59.41015072085713
1098,1298.0,-59.370567336373256
1099,1299.0,-59.330557707141566
1100,1300.0,-59.290120566887595
1101,1301.0,-59.24925764473403
1102,1302.0,-59.20796666518186
1103,1303.0,-59.1662463480684
1104,1304.0,-59.124097408547186
1105,1305.0,-59.08151655705399
1106,1306.0,-59.03850349928052
1107,1307.0,-58.99505493613947
1108,1308.0,-58.95116956374363
1109,1309.0,-58.90684307336585
1110,1310.0,-58.862074151417346
1111,1311.0,-58.816859479418895
1112,1312.0,-58.77119473396499
1113,1313.0,-58.72507558669906
1114,1314.0,-58.6784987042829
1115,1315.0,-58.631458748367095
1116,1316.0,-58.583952375561694
1117,1317.0,-58.53597223740587
1118,1318.0,-58.487513980339486
1119,1319.0,-58.43857024567353
1120,1320.0,-58.38913666956216
1121,1321.0,-58.33920488296917
1122,1322.0,-58.28876751164273
1123,1323.0,-58.23781717608222
1124,1324.0,-58.18634649151147
1125,1325.0,-58.13434506784995
1126,1326.0,-58.081805509678816
1127,1327.0,-58.02871741621868
1128,1328.0,-57.97507138128981
1129,1329.0,-57.92085499329664
1130,1330.0,-57.86605783518394
1131,1331.0,-57.81066848441651
1132,1332.0,-57.75467451294753
1133,1333.0,-57.69806248718692
1134,1334.0,-57.64081696797507
1135,1335.0,-57.58292551055047
1136,1336.0,-57.52437266452512
1137,1337.0,-57.465140973846246
1138,1338.0,-57.40521497677605
1139,1339.0,-57.344575205857836
1140,1340.0,-57.283204187886895
1141,1341.0,-57.221082443880505
1142,1342.0,-57.1581884890486
1143,1343.0,-57.09450083276829
1144,1344.0,-57.02999697854625
1145,1345.0,-56.96465242399836
1146,1346.0,-56.898441660814115
1147,1347.0,-56.831339174729465
1148,1348.0,-56.763316445493956
1149,1349.0,-56.694343946847994
1150,1350.0,-56.62439014648817
1151,1351.0,-56.55342350603996
1152,1352.0,-56.48140948102423
1153,1353.0,-56.40831152083251
1154,1354.0,-56.33409206870101
1155,1355.0,-56.25870956166932
1156,1356.0,-56.18212343056052
1157,1357.0,-56.10428809994846
1158,1358.0,-56.02515598813034
1159,1359.0,-55.944678507093386
1160,1360.0,-55.86280106248978
1161,1361.0,-55.77946905360545
1162,1362.0,-55.6946238733251
1163,1363.0,-55.608203908116366
1164,1364.0,-55.520141537984955
1165,1365.0,-55.430367136455516
1166,1366.0,-55.338808070538335
1167,1367.0,-55.24538470069956
1168,1368.0,-55.150013380831524
1169,1369.0,-55.05260745822784
1170,1370.0,-54.95307027354784
1171,1371.0,-54.85130416078755
1172,1372.0,-54.747202447256996
1173,1373.0,-54.640651453543796
1174,1374.0,-54.531529493486005
1175,1375.0,-54.41970987414129
1176,1376.0,-54.30505389576069
1177,1377.0,-54.18741585175735
1178,1378.0,-54.06663902867308
1179,1379.0,-53.94255470616008
1180,1380.0,-53.81498315693534
1181,1381.0,-53.68373264676802
1182,1382.0,-53.54859743443717
1183,1383.0,-53.40935377170808
1184,1384.0,-53.26576490330149
1185,1385.0,-53.11757206686616
1186,1386.0,-52.96450149294492
1187,1387.0,-52.806253404949985
1188,1388.0,-52.642506019130224
1189,1389.0,-52.47291154454433
1190,1390.0,-52.297094183028776
1191,1391.0,-52.11464512916859
1192,1392.0,-51.925121570272495
1193,1393.0,-51.72804268633422
1194,1394.0,-51.52288565001413
1195,1395.0,-51.30908062660046
1196,1396.0,-51.08600477398409
1197,1397.0,-50.85297924263
1198,1398.0,-50.60926017554743
1199,1399.0,-50.35403270825486
1200,1400.0,-50.08640096875865
1201,1401.0,-49.80538007752011
1202,1402.0,-49.50988614742437
1203,1403.0,-49.19872128375141
1204,1404.0,-48.87055958415317
1205,1405.0,-48.523933138609436
1206,1406.0,-48.15721102941552
1207,1407.0,-47.76857733114116
1208,1408.0,-47.35600811060658
1209,1409.0,-46.91723642685042
1210,1410.0,-46.44972433109638
1211,1411.0,-45.95061886673534
1212,1412.0,-45.41670406928529
1213,1413.0,-44.84434496636777
1214,1414.0,-44.229426577670665
1215,1415.0,-43.56726491493123
1216,1416.0,-42.85252298189425
1217,1417.0,-42.07909377429087
1218,1418.0,-41.239964279804326
1219,1419.0,-40.32705347804381
1220,1420.0,-39.33101434051173
1221,1421.0,-38.24099283057626
1222,1422.0,-37.04432690344652
1223,1423.0,-35.726189506128776
1224,1424.0,-34.26912957741456
1225,1425.0,-32.652511047840335
1226,1426.0,-30.851810839659265
1227,1427.0,-28.837730866815264
1228,1428.0,-26.5750720349115
1229,1429.0,-24.021307241178647
1230,1430.0,-21.124746374448932
1231,1431.0,-17.822183315129223
1232,1432.0,-14.035840935160195
1233,1433.0,-9.66942209800095
1234,1434.0,-4.602967658590387
1235,1435.0,1.3138145366806384
1236,1436.0,8.270170649993815
1237,1437.0,16.505285852141697
1238,1438.0,26.321945322548345
1239,1439.0,38.10264524930676
1240,1440.0,52.32660882919936
1241,1441.0,69.582944267735
1242,1442.0,90.56820777917551
1243,1443.0,116.04258958656692
1244,1444.0,146.69388192176507
1245,1445.0,182.8229640254674
1246,1446.0,223.74443814724555
1247,1447.0,266.8858055455664
1248,1448.0,306.950736487835
1249,1449.0,336.2053542504068
1250,1450.0,347.0821051186326
1251,1451.0,336.33775738687905
1252,1452.0,307.2155703585611
1253,1453.0,267.2831233461716
1254,1454.0,224.27432067130894
1255,1455.0,183.4855206647112
1256,1456.0,147.48924666627636
1257,1457.0,116.97092602510293
1258,1458.0,91.62970709951219
1259,1459.0,70.77782525707994
1260,1460.0,53.65511787466403
1261,1461.0,39.56505933843778
1262,1462.0,27.91856904391534
1263,1463.0,18.236454395984538
1264,1464.0,10.136247808933604
1265,1465.0,3.3151977064794664
1266,1466.0,-2.465852478193028
1267,1467.0,-7.396115302420412
1268,1468.0,-11.625852314009535
1269,1469.0,-15.274987051224116
1270,1470.0,-18.439783042746967
1271,1471.0,-21.197981807655424
1272,1472.0,-23.612754855388175
1273,1473.0,-25.73575268571676
1274,1474.0,-27.609466788717555
1275,1475.0,-29.269054644741118
1276,1476.0,-30.743774724384593
1277,1477.0,-32.0581084884559
1278,1478.0,-33.232648387952395
1279,1479.0,-34.28479786402863
1280,1480.0,-35.22934134796583
1281,1481.0,-36.07889026113912
1282,1482.0,-36.84425001499517
1283,1483.0,-37.53471501102217
1284,1484.0,-38.15831164071028
1285,1485.0,-38.72199728553437
1286,1486.0,-39.231819316919655
1287,1487.0,-39.69305609620892
1288,1488.0,-40.11032497464089
1289,1489.0,-40.48767729330916
1290,1490.0,-40.82867738314894
1291,1491.0,-41.136467564890154
1292,1492.0,-41.41382614904069
1293,1493.0,-41.663211435853555
1294,1494.0,-41.88680671529073
1295,1495.0,-42.086548267004446
1296,1496.0,-42.26416136030025
1297,1497.0,-42.42117925411071
1298,1498.0,-42.55896919696261
1299,1499.0,-42.6787504269555
1300,1500.0,-42.781608171720336
1301,1501.0,-42.86850864840062
1302,1502.0,-42.94031206361751
1303,1503.0,-42.99778261344022
1304,1504.0,-43.04159548336065
1305,1505.0,-43.07234684825676
1306,1506.0,-43.090562872372175
1307,1507.0,-43.09669970927871
1308,1508.0,-43.09115250185437
1309,1509.0,-43.07425938224196
1310,1510.0,-43.04630647183717
1311,1511.0,-43.007525881240554
1312,1512.0,-42.95810471024288
1313,1513.0,-42.89818304778578
1314,1514.0,-42.82785797193901
1315,1515.0,-42.747181549866355
1316,1516.0,-42.65616683779945
1317,1517.0,-42.55478288100335
1318,1518.0,-42.44296071375538
1319,1519.0,-42.32058735930627
1320,1520.0,-42.1875098298583
1321,1521.0,-42.04353012653155
1322,1522.0,-41.8884102393356
1323,1523.0,-41.721863147139175
1324,1524.0,-41.54355481764355
1325,1525.0,-41.35310320734857
1326,1526.0,-41.15007126153046
1327,1527.0,-40.93396491420094
1328,1528.0,-40.704232088089384
1329,1529.0,-40.460254694608466
1330,1530.0,-40.201342633821014
1331,1531.0,-39.92672979441704
1332,1532.0,-39.635568053680345
1333,1533.0,-39.326917277463735
1334,1534.0,-38.99973332014679
1335,1535.0,-38.65286502462527
1336,1536.0,-38.28503422226959
1337,1537.0,-37.89482873289194
1338,1538.0,-37.48067936473035
1339,1539.0,-37.040848914406524
1340,1540.0,-36.57340716690419
1341,1541.0,-36.076204895531646
1342,1542.0,-35.54685086190625
1343,1543.0,-34.98267381590722
1344,1544.0,-34.38068849565957
1345,1545.0,-33.73754862750093
1346,1546.0,-33.04949492594915
1347,1547.0,-32.312293093673816
1348,1548.0,-31.521164821471075
1349,1549.0,-30.670695788227704
1350,1550.0,-29.754735660898632
1351,1551.0,-28.766278094473364
1352,1552.0,-27.697306731942263
1353,1553.0,-26.538622204276862
1354,1554.0,-25.279625130394834
1355,1555.0,-23.908048117127237
1356,1556.0,-22.40963875919715
1357,1557.0,-20.767757639183174
1358,1558.0,-18.962885327493723
1359,1559.0,-16.972007382335278
1360,1560.0,-14.767843349686473
1361,1561.0,-12.317875763266102
1362,1562.0,-9.583112144502365
1363,1563.0,-6.516516002503067
1364,1564.0,-3.060984834032979
1365,1565.0,0.8532508765251805
1366,1566.0,5.311990657191473
1367,1567.0,10.421429048426944
1368,1568.0,16.313805603158244
1369,1569.0,23.154685886800507
1370,1570.0,31.15224347730077
1371,1571.0,40.568773965157106
1372,1572.0,51.73429595345533
1373,1573.0,65.06097005789047
1374,1574.0,81.0544079067979
1375,1575.0,100.31222514119486
1376,1576.0,123.48860141478758
1377,1577.0,151.18292439402308
1378,1578.0,183.6814037581064
1379,1579.0,220.46397219902929
1380,1580.0,259.4628494216063
1381,1581.0,296.3744531435002
1382,1582.0,324.8984250952526
1383,1583.0,338.8894800203109
1384,1584.0,335.79247467506275
1385,1585.0,318.43232982885866
1386,1586.0,293.238206264052
1387,1587.0,266.8234977760146
1388,1588.0,243.8510011731778
1389,1589.0,226.81375627705643
1390,1590.0,216.74652492227938
1391,1591.0,213.99393995661808
1392,1592.0,218.73135924101962
1393,1593.0,231.24473464963285
1394,1594.0,252.03905606983562
1395,1595.0,281.8065934022711
1396,1596.0,321.21805456087145
1397,1597.0,370.4242284728882
1398,1598.0,428.1129400789264
1399,1599.0,490.09947133296805
1400,1600.0,548.0183702024015
1401,1601.0,589.7581206680575
1402,1602.0,603.4900307242344
1403,1603.0,584.1076333787225
1404,1604.0,536.5737916528456
1405,1605.0,472.56609458147796
1406,1606.0,404.029426213084
1407,1607.0,339.13803660973963
1408,1608.0,281.8502818471661
1409,1609.0,233.20437601476283
1410,1610.0,192.71374621562268
1411,1611.0,159.29530856658607
1412,1612.0,131.75638919823928
1413,1613.0,109.00511225497326
1414,1614.0,90.11793289499496
1415,1615.0,74.3431162903612
1416,1616.0,61.08009762701272
1417,1617.0,49.852912104795905
1418,1618.0,40.28505193750061
1419,1619.0,32.078161352878396
1420,1620.0,24.994898592688514
1421,1621.0,18.845480912711082
1422,1622.0,13.477262582782487
1423,1623.0,8.76670888682952
1424,1624.0,4.6132071228942095
1425,1625.0,0.9342976031605303
1426,1626.0,-2.338019346007286
1427,1627.0,-5.260157384044078
1428,1628.0,-7.879188156152168
1429,1629.0,-10.23460929326734
1430,1630.0,-12.359738412033266
1431,1631.0,-14.282825114773232
1432,1632.0,-16.027937989459133
1433,1633.0,-17.615675609676828
1434,1634.0,-19.06374853460943
1435,1635.0,-20.387448308992134
1436,1636.0,-21.600028463093622
1437,1637.0,-22.713020512689127
1438,1638.0,-23.736495959017702
1439,1639.0,-24.67928128876133
1440,1640.0,-25.549134974018216
1441,1641.0,-26.352901472269878
1442,1642.0,-27.096637226344228
1443,1643.0,-27.785713664404284
1444,1644.0,-28.424912199900064
1445,1645.0,-29.018496231546578
1446,1646.0,-29.570279143300922
1447,1647.0,-30.083680304323025
1448,1648.0,-30.561771068946882
1449,1649.0,-31.007318776657712
1450,1650.0,-31.4228217520581
1451,1651.0,-31.810537304837908
1452,1652.0,-32.172511729743974
1453,1653.0,-32.51060430656139
1454,1654.0,-32.82650530006276
1455,1655.0,-33.12175296000305
1456,1656.0,-33.397755521070394
1457,1657.0,-33.65579720286837
1458,1658.0,-33.89705420988139
1459,1659.0,-34.12260673144738
1460,1660.0,-34.33344594172718
1461,1661.0,-34.53048299967418
1462,1662.0,-34.714558049010975
1463,1663.0,-34.88644521818719
1464,1664.0,-35.046860620365806
1465,1665.0,-35.19646435338154
1466,1666.0,-35.33586849971448
1467,1667.0,-35.46564112646661
1468,1668.0,-35.5863072853233
1469,1669.0,-35.69835701252782
1470,1670.0,-35.802244328854385
1471,1671.0,-35.89839223957847
1472,1672.0,-35.98719373443646
1473,1673.0,-36.069018787615505
1474,1674.0,-36.14420735770841
1475,1675.0,-36.21308338768995
1476,1676.0,-36.27594380488358
1477,1677.0,-36.3330705209421
1478,1678.0,-36.3847254318041
1479,1679.0,-36.431155417677246
1480,1680.0,-36.47259134299884
1481,1681.0,-36.5092500564142
1482,1682.0,-36.54133539074337
1483,1683.0,-36.5690381629488
1484,1684.0,-36.592540174111036
1485,1685.0,-36.612011209397906
1486,1686.0,-36.62760903803314
1487,1687.0,-36.63948641327079
1488,1688.0,-36.647784072359855
1489,1689.0,-36.65263673651998
1490,1690.0,-36.654171110910966
1491,1691.0,-36.65250788459912
1492,1692.0,-36.647757730535886
1493,1693.0,-36.64003030551953
1494,1694.0,-36.62942525017252
1495,1695.0,-36.616039188904324
1496,1696.0,-36.59996272989861
1497,1697.0,-36.581281465056236
1498,1698.0,-36.5600779699962
1499,1699.0,-36.53642880400139
1500,1700.0,-36.51040851000516
1501,1701.0,-36.48208461455397
1502,1702.0,-36.451525627780256
1503,1703.0,-36.41879304337067
1504,1704.0,-36.38394733854307
1505,1705.0,-36.34704397401447
1506,1706.0,-36.30813839395728
1507,1707.0,-36.26728202599543
1508,1708.0,-36.22452228115867
1509,1709.0,-36.17990655385165
1510,1710.0,-36.13347922183357
1511,1711.0,-36.08528164618292
1512,1712.0,-36.03535517127011
1513,1713.0,-35.98373612472301
1514,1714.0,-35.93046281741067
1515,1715.0,-35.875569543390384
1516,1716.0,-35.819088579911295
1517,1717.0,-35.76105218735074
1518,1718.0,-35.70148960920733
1519,1719.0,-35.64043007206237
1520,1720.0,-35.57789978555593
1521,1721.0,-35.51392694234846
1522,1722.0,-35.448534718099154
1523,1723.0,-35.3817462714419
1524,1724.0,-35.31358574393471
1525,1725.0,-35.24407426005109
1526,1726.0,-35.173231927145025
1527,1727.0,-35.10107783541457
1528,1728.0,-35.0276310578804
1529,1729.0,-34.95290965035292
1530,1730.0,-34.87693065139956
1531,1731.0,-34.799710082325646
1532,1732.0,-34.72126294713644
1533,1733.0,-34.64160423250701
1534,1734.0,-34.560747907755285
1535,1735.0,-34.478706924815924
1536,1736.0,-34.39549521820231
1537,1737.0,-34.31112270498875
1538,1738.0,-34.225602284766865
1539,1739.0,-34.138944839636224
1540,1740.0,-34.05116023414462
1541,1741.0,-33.96225831529296
1542,1742.0,-33.872248912482064
1543,1743.0,-33.7811408374871
1544,1744.0,-33.68894188444028
1545,1745.0,-33.5956608297829
1546,1746.0,-33.50130443225362
1547,1747.0,-33.405880432844924
1548,1748.0,-33.30939455478824
1549,1749.0,-33.21185450350072
1550,1750.0,-33.11326596658682
1551,1751.0,-33.01363361378526
1552,1752.0,-32.912964096947235
1553,1753.0,-32.8112610500084
1554,1754.0,-32.70853008895915
1555,1755.0,-32.604775811808395
1556,1756.0,-32.50000179856579
1557,1757.0,-32.394211611208675
1558,1758.0,-32.28740879363704
1559,1759.0,-32.17959687167286
1560,1760.0,-32.070779353003445
1561,1761.0,-31.960957727168534
1562,1762.0,-31.85013546552682
1563,1763.0,-31.738315021220387
1564,1764.0,-31.625497829154938
1565,1765.0,-31.511686305961803
1566,1766.0,-31.39688184997749
1567,1767.0,-31.281084841203665
1568,1768.0,-31.16429864128645
1569,1769.0,-31.04652359348188
1570,1770.0,-30.92775902262838
1571,1771.0,-30.80800823511663
1572,1772.0,-30.687269518862422
1573,1773.0,-30.565544143272746
1574,1774.0,-30.44283335921955
1575,1775.0,-30.319135399011884
1576,1776.0,-30.19445047636077
1577,1777.0,-30.0687797863568
1578,1778.0,-29.94212150543308
1579,1779.0,-29.814475791342602
1580,1780.0,-29.685841783123124
1581,1781.0,-29.556218601069304
1582,1782.0,-29.42560534671634
1583,1783.0,-29.294001102777656
1584,1784.0,-29.161404933153563
1585,1785.0,-29.027814882879056
1586,1786.0,-28.893229978099725
1587,1787.0,-28.757649226037756
1588,1788.0,-28.621069614976705
1589,1789.0,-28.483491114214075
1590,1790.0,-28.34491067404042
1591,1791.0,-28.205327225722158
1592,1792.0,-28.06473768143769
1593,1793.0,-27.92313993429002
1594,1794.0,-27.780532858246033
1595,1795.0,-27.63691430812264
1596,1796.0,-27.492280119550514
1597,1797.0,-27.34662910894781
1598,1798.0,-27.199959073487435
1599,1799.0,-27.05226679107227
1600,1800.0,-26.903549020311175
1601,1801.0,-26.75380350046271
1602,1802.0,-26.603026951442644
1603,1803.0,-26.45121707376711
1604,1804.0,-26.298369548534538
1605,1805.0,-26.144483037395275
1606,1806.0,-25.989554182521033
1607,1807.0,-25.83357760657259
1608,1808.0,-25.676551912676132
1609,1809.0,-25.518473684394394
1610,1810.0,-25.35933848568311
1611,1811.0,-25.19914286088124
1612,1812.0,-25.037884334669116
1613,1813.0,-24.875557412042326
1614,1814.0,-24.712160578281782
1615,1815.0,-24.547688298926914
1616,1816.0,-24.382138019736885
1617,1817.0,-24.21550516667594
1618,1818.0,-24.04778514587406
1619,1819.0,-23.87897534359945
1620,1820.0,-23.709071126227172
1621,1821.0,-23.538067840211625
1622,1822.0,-23.365961812062324
1623,1823.0,-23.19274834830094
1624,1824.0,-23.018424735446388
1625,1825.0,-22.842984239981888
1626,1826.0,-22.666424108309002
1627,1827.0,-22.48873956674788
1628,1828.0,-22.309925821484285
1629,1829.0,-22.129979058546724
1630,1830.0,-21.9488944437785
1631,1831.0,-21.766667122812123
1632,1832.0,-21.583292221030206
1633,1833.0,-21.398764843541358
1634,1834.0,-21.2130820751554
1635,1835.0,-21.026235980340516
1636,1836.0,-20.83822460321244
1637,1837.0,-20.64904196748921
1638,1838.0,-20.45868307646697
1639,1839.0,-20.26714291299004
1640,1840.0,-20.074416439428205
1641,1841.0,-19.88049859763487
1642,1842.0,-19.685384308924768
1643,1843.0,-19.489069474049302
1644,1844.0,-19.29154697315562
1645,1845.0,-19.092813665768062
1646,1846.0,-18.89286239074545
1647,1847.0,-18.691688966271613
1648,1848.0,-18.489287189802326
1649,1849.0,-18.285653838056078
1650,1850.0,-18.080780666974988
1651,1851.0,-17.8746644116909
1652,1852.0,-17.66729778651097
1653,1853.0,-17.45867748487035
1654,1854.0,-17.248795179314584
1655,1855.0,-17.03764852146969
1656,1856.0,-16.82522914200672
1657,1857.0,-16.61153265061148
1658,1858.0,-16.39655263596478
1659,1859.0,-16.18028466570786
1660,1860.0,-15.962722286404642
1661,1861.0,-15.743859023533787
1662,1862.0,-15.52368938142672
1663,1863.0,-15.302208843274457
1664,1864.0,-15.079409871066218
1665,1865.0,-14.855286905584762
1666,1866.0,-14.6298343663575
1667,1867.0,-14.403046651641034
1668,1868.0,-14.174916138390927
1669,1869.0,-13.945438182216549
1670,1870.0,-13.714607117369269
1671,1871.0,-13.482415256708464
1672,1872.0,-13.24885689166922
1673,1873.0,-13.013926292228007
1674,1874.0,-12.777617706887213
1675,1875.0,-12.539924362630245
1676,1876.0,-12.30083946490413
1677,1877.0,-12.0603571975862
1678,1878.0,-11.818471722946924
1679,1879.0,-11.575175181634222
1680,1880.0,-11.330462692636502
1681,1881.0,-11.084327353246408
1682,1882.0,-10.836762239048312
1683,1883.0,-10.587762403871238
1684,1884.0,-10.337318879771829
1685,1885.0,-10.085426676995667
1686,1886.0,-9.83207978396149
1687,1887.0,-9.577270167212191
1688,1888.0,-9.32099177140526
1689,1889.0,-9.06323751926584
1690,1890.0,-8.804002311572276
1691,1891.0,-8.543278027111228
1692,1892.0,-8.281057522665833
1693,1893.0,-8.017334632972961
1694,1894.0,-7.752103170694227
1695,1895.0,-7.48535592639837
1696,1896.0,-7.217085668517484
1697,1897.0,-6.947285143327008
1698,1898.0,-6.675949074909568
1699,1899.0,-6.403068165132481
1700,1900.0,-6.128637093610905
1701,1901.0,-5.852649517683403
1702,1902.0,-5.575096072389897
1703,1903.0,-5.295971370413099
1704,1904.0,-5.015268002093308
1705,1905.0,-4.732978535354505
1706,1906.0,-4.4490965157142455
1707,1907.0,-4.163614466220679
1708,1908.0,-3.876524887445612
1709,1909.0,-3.5878202574426723
1710,1910.0,-3.2974940317212713
1711,1911.0,-3.005539643233078
1712,1912.0,-2.71194750230552
1713,1913.0,-2.4167119966527935
1714,1914.0,-2.1198264913182356
1715,1915.0,-1.8212813286572782
1716,1916.0,-1.5210708283084386
1717,1917.0,-1.2191862871536614
1718,1918.0,-0.9156219793062519
1719,1919.0,-0.6103691560592779
1720,1920.0,-0.30342004588737836
1721,1921.0,0.005232145628269791
1722,1922.0,0.31559523578198423
1723,1923.0,0.6276760648033815
1724,1924.0,0.9414844958746471
1725,1925.0,1.2570254151642075
1726,1926.0,1.5743087318578546
1727,1927.0,1.8933403781752531
1728,1928.0,2.2141293094227876
1729,1929.0,2.536682504001419
1730,1930.0,2.861008963447148
1731,1931.0,3.187114712454786
1732,1932.0,3.5150087989140957
1733,1933.0,3.8446992939329903
1734,1934.0,4.176193291870277
1735,1935.0,4.5094989103681655
1736,1936.0,4.84462429037103
1737,1937.0,5.181576596167815
1738,1938.0,5.520366015410218
1739,1939.0,5.8609977591536335
1740,1940.0,6.203482061875093
1741,1941.0,6.547825181509779
1742,1942.0,6.894037399481476
1743,1943.0,7.242125020724416
1744,1944.0,7.592096373721233
1745,1945.0,7.943960810527187
1746,1946.0,8.297724706802455
1747,1947.0,8.653398461842244
1748,1948.0,9.010988498600454
1749,1949.0,9.370504263721614
1750,1950.0,9.731953227579652
1751,1951.0,10.095344884296082
1752,1952.0,10.460685751769233
1753,1953.0,10.827985371709019
1754,1954.0,11.197253309669122
1755,1955.0,11.568495155066103
1756,1956.0,11.941721521222007
1757,1957.0,12.316941045378371
1758,1958.0,12.694160388740784
1759,1959.0,13.073390236501837
1760,1960.0,13.454637297862973
1761,1961.0,13.837912306081307
1762,1962.0,14.223221018478398
1763,1963.0,14.610574216489113
1764,1964.0,14.999980705682901
1765,1965.0,15.391448315785965
1766,1966.0,15.784984900720701
1767,1967.0,16.18060133863537
1768,1968.0,16.57830453192355
1769,1969.0,16.978104407270166
1770,1970.0,17.38000991565832
1771,1971.0,17.78402803242261
1772,1972.0,18.190170757261058
1773,1973.0,18.59844411427457
1774,1974.0,19.008858151990808
1775,1975.0,19.4214229433951
1776,1976.0,19.836145585964005
1777,1977.0,20.253035201688363
1778,1978.0,20.672102937106047
1779,1979.0,21.09335496332824
1780,1980.0,21.516802476081466
1781,1981.0,21.942454695712968
1782,1982.0,22.370318867249807
1783,1983.0,22.80040626039954
1784,1984.0,23.23272416960026
1785,1985.0,23.66728291404206
1786,1986.0,24.104091837701617
1787,1987.0,24.543160309355244
1788,1988.0,24.98449672263314
1789,1989.0,25.428110496029603
1790,1990.0,25.87401207294306
1791,1991.0,26.32220992169914
1792,1992.0,26.77271353558035
1793,1993.0,27.225532432862565
1794,1994.0,27.68067715683719
1795,1995.0,28.13815427584541
1796,1996.0,28.597976383302466
1797,1997.0,29.06015109773125
1798,1998.0,29.524689062791367
1799,1999.0,29.991599947307805
1800,2000.0,30.46089144529742
