pixel_index,raman_shift_cm-1,intensity
0,200.0,0.06733860675831348
1,201.0,0.061988719546591624
2,202.0,0.05818593723688834
3,203.0,0.05568120564643047
4,204.0,0.05422547059244488
5,205.0,0.0535696778921584
6,206.0,0.053840019339183434
7,207.0,0.052097744254556155
8,208.0,0.05489442325071524
9,209.0,0.05552489412759194
10,210.0,0.055999535909222825
11,211.0,0.0645692747089232
12,212.0,0.06091996210643918
13,213.0,0.06931524901560801
14,214.0,0.07187349255486673
15,215.0,0.07196416882640465
16,216.0,0.07388629510692808
17,217.0,0.0711165269625911
18,218.0,0.07576945933056708
19,219.0,0.07037954805114917
20,220.0,0.06370460910192474
21,221.0,0.06009714504234632
22,222.0,0.054597633665218165
23,223.0,0.0605681607730909
24,224.0,0.06016263630464038
25,225.0,0.056103085777434135
26,226.0,0.06009960874909665
27,227.0,0.05950238781716215
28,228.0,0.06655878112352008
29,229.0,0.06562018946292886
30,230.0,0.06770315700744506
31,231.0,0.06570789740433707
32,232.0,0.06893787505355997
33,233.0,0.07466220487397743
34,234.0,0.07487952460078015
35,235.0,0.07396200960705213
36,236.0,0.08078921417370973
37,237.0,0.07973646558178618
38,238.0,0.08119696755847507
39,239.0,0.07974440998826429
40,240.0,0.08079712326627594
41,241.0,0.07372891438833229
42,242.0,0.06983447560585294
43,243.0,0.07036079965549864
44,244.0,0.0714799844362269
45,245.0,0.0736135663881442
46,246.0,0.07570022633436432
47,247.0,0.07025345312786377
48,248.0,0.07259295038288886
49,249.0,0.07134513147500632
50,250.0,0.07062407225891344
51,251.0,0.0669339995380924
52,252.0,0.06534353437187489
53,253.0,0.07000244978623611
54,254.0,0.07316084223404935
55,255.0,0.07385467511379125
56,256.0,0.07245832398145004
57,257.0,0.07219742114211143
58,258.0,0.07966313027445938
59,259.0,0.07635133883848023
60,260.0,0.0726157857693499
61,261.0,0.07118953964356667
62,262.0,0.06751636322433559
63,263.0,0.06693941808623037
64,264.0,0.06456634576530808
65,265.0,0.06324124531156404
66,266.0,0.06396699013442729
67,267.0,0.06983882703065901
68,268.0,0.07834993406137687
69,269.0,0.08276041201308162
70,270.0,0.08271792585776276
71,271.0,0.08272181753214793
72,272.0,0.07701473568295757
73,273.0,0.07193748896698124
74,274.0,0.06766028029748097
75,275.0,0.07165581879562907
76,276.0,0.07076997517538493
77,277.0,0.07164683416908342
78,278.0,0.07341561213992501
79,279.0,0.08077095939692262
80,280.0,0.07885386100959256
81,281.0,0.07609987871705712
82,282.0,0.07322435232483986
83,283.0,0.0724002816566334
84,284.0,0.07138155811227774
85,285.0,0.07804776681036099
86,286.0,0.07754360188304683
87,287.0,0.0739015494759981
88,288.0,0.07388199851862585
89,289.0,0.07251953060403435
90,290.0,0.06920855327172257
91,291.0,0.0685372741228334
92,292.0,0.07104472351324229
93,293.0,0.07112557714891748
94,294.0,0.07165387020451139
95,295.0,0.07598645368555255
96,296.0,0.07578951538856853
97,297.0,0.07453709485509723
98,298.0,0.07641149962605637
99,299.0,0.06942203259308113
100,300.0,0.07093437967421681
101,301.0,0.074408433597542
102,302.0,0.07696354337407996
103,303.0,0.07186908029963548
104,304.0,0.07015636478181367
105,305.0,0.06717568476789935
106,306.0,0.06720870416245647
107,307.0,0.07124492967274937
108,308.0,0.07334786593966501
109,309.0,0.07139195954228446
110,310.0,0.07724923466251211
111,311.0,0.080324989377659
112,312.0,0.08211631101381714
113,313.0,0.08117074079688741
114,314.0,0.07746500098748273
115,315.0,0.07348665616901844
116,316.0,0.07081880055873313
117,317.0,0.07057592876892665
118,318.0,0.06564413416945526
119,319.0,0.06465890864295111
120,320.0,0.06988766028156462
121,321.0,0.07270491556421717
122,322.0,0.07724005363498355
123,323.0,0.0794912476203781
124,324.0,0.076477196184638
125,325.0,0.07344535666725181
126,326.0,0.0719538721485809
127,327.0,0.07189167581413043
128,328.0,0.07107076356709265
129,329.0,0.07524694093405104
130,330.0,0.07780916465664142
131,331.0,0.07878860163957571
132,332.0,0.07953103552960215
133,333.0,0.0778394716031011
134,334.0,0.07558437122075347
135,335.0,0.07346520573018686
136,336.0,0.07310298356881632
137,337.0,0.07609967137580072
138,338.0,0.0771548002421681
139,339.0,0.07764448221247743
140,340.0,0.07584012242069382
141,341.0,0.07645222385519504
142,342.0,0.07864509670836725
143,343.0,0.07877660588677082
144,344.0,0.07948384047679215
145,345.0,0.07900686174018366
146,346.0,0.07608774955238788
147,347.0,0.07646999690861683
148,348.0,0.0739899797816877
149,349.0,0.07629034575022921
150,350.0,0.07576310144897178
151,351.0,0.07335518842505641
152,352.0,0.0737861166998075
153,353.0,0.07531776511580258
154,354.0,0.07530796368860403
155,355.0,0.07485655589456709
156,356.0,0.07246947174041107
157,357.0,0.0691934201659234
158,358.0,0.07072457299588165
159,359.0,0.0760830675428779
160,360.0,0.07766636412909261
161,361.0,0.07634164826905834
162,362.0,0.07872511743070752
163,363.0,0.08041578511059826
164,364.0,0.07913651078310932
165,365.0,0.08127816251314658
166,366.0,0.08271911645262046
167,367.0,0.07917713506377769
168,368.0,0.0817015619392321
169,369.0,0.08652725320353911
170,370.0,0.08461963468663274
171,371.0,0.08265511796502421
172,372.0,0.08133516968917773
173,373.0,0.07612124025169985
174,374.0,0.07173898551804744
175,375.0,0.0670967741798202
176,376.0,0.06544207428349058
177,377.0,0.06509866900266979
178,378.0,0.06866725965524921
179,379.0,0.07136165494246569
180,380.0,0.07009903736192298
181,381.0,0.07239885581121373
182,382.0,0.07570223052464346
183,383.0,0.07623861486167725
184,384.0,0.0779195807653722
185,385.0,0.07409429593321226
186,386.0,0.07572402927828549
187,387.0,0.07514818073104575
188,388.0,0.07370778421963055
189,389.0,0.06748975914712084
190,390.0,0.06742903773596343
191,391.0,0.06935586289485747
192,392.0,0.07465935803329515
193,393.0,0.08207679539298689
194,394.0,0.08608234078488373
195,395.0,0.08807291730543451
196,396.0,0.08728852336354334
197,397.0,0.08464449048614668
198,398.0,0.08285567799168034
199,399.0,0.07666178333463843
200,400.0,0.07525308950685386
201,401.0,0.0714861066631173
202,402.0,0.0681816936674057
203,403.0,0.07152599440884914
204,404.0,0.06870131506652413
205,405.0,0.0719585492995235
206,406.0,0.06864277004234845
207,407.0,0.07192926762781299
208,408.0,0.07432262771507663
209,409.0,0.0752459665170584
210,410.0,0.07362579999990979
211,411.0,0.07218171586748862
212,412.0,0.0689580226041775
213,413.0,0.07176473780927196
214,414.0,0.070856000360932
215,415.0,0.0739465492681311
216,416.0,0.07065826504270024
217,417.0,0.07012062124811379
218,418.0,0.06542295453124046
219,419.0,0.06597689136784556
220,420.0,0.06415808569355502
221,421.0,0.0668209685590667
222,422.0,0.06891496850789307
223,423.0,0.07185492872206661
224,424.0,0.07185351160135839
225,425.0,0.06914716117655036
226,426.0,0.06546043977218677
227,427.0,0.0661841469926321
228,428.0,0.060919960814987455
229,429.0,0.06208603763309901
230,430.0,0.06244128466483841
231,431.0,0.06148441756314685
232,432.0,0.06267532773000675
233,433.0,0.059829042719459505
234,434.0,0.05857946994881589
235,435.0,0.057760826445402286
236,436.0,0.06413268641470113
237,437.0,0.07298960356663213
238,438.0,0.0750492637815722
239,439.0,0.07948612995114811
240,440.0,0.08366839816688654
241,441.0,0.08019569296317004
242,442.0,0.08087881083542733
243,443.0,0.07788542685980526
244,444.0,0.07586782403628718
245,445.0,0.07293330357170733
246,446.0,0.0727320284348306
247,447.0,0.0682663337313498
248,448.0,0.06767662166197048
249,449.0,0.06437311867829411
250,450.0,0.06763351754732821
251,451.0,0.06761897512106796
252,452.0,0.07152728360930821
253,453.0,0.07383137126901589
254,454.0,0.07818802805268073
255,455.0,0.07867250839566274
256,456.0,0.0782656090777666
257,457.0,0.07698437827471491
258,458.0,0.07373580602290712
259,459.0,0.0685025715973012
260,460.0,0.06746543525596499
261,461.0,0.06247398610741963
262,462.0,0.059446896193853585
263,463.0,0.06335550050049692
264,464.0,0.06559745892374423
265,465.0,0.06274973593391675
266,466.0,0.06617907593897997
267,467.0,0.06816191951566576
268,468.0,0.06604503095421553
269,469.0,0.06793903257133262
270,470.0,0.06834488357101548
271,471.0,0.06606330243721437
272,472.0,0.06605561717012359
273,473.0,0.07226257730056572
274,474.0,0.06696908335499818
275,475.0,0.060787031365291226
276,476.0,0.06149714351592226
277,477.0,0.06282124229655209
278,478.0,0.06320740195239531
279,479.0,0.06434882782180441
280,480.0,0.0676741043745427
281,481.0,0.06596754642642265
282,482.0,0.06903985616001745
283,483.0,0.0691355446646967
284,484.0,0.06624076572813577
285,485.0,0.06323760070955771
286,486.0,0.06301850197970654
287,487.0,0.05960974942478741
288,488.0,0.05688753889797174
289,489.0,0.054547071035043686
290,490.0,0.057828242189421966
291,491.0,0.05615296603806544
292,492.0,0.0588291225861549
293,493.0,0.05821584993029738
294,494.0,0.06566403664971654
295,495.0,0.06741232307408952
296,496.0,0.06944282491270837
297,497.0,0.06679928079626672
298,498.0,0.06825512007552381
299,499.0,0.07064297344766725
300,500.0,0.07402437116653197
301,501.0,0.07159764638337257
302,502.0,0.06954498524628736
303,503.0,0.06874217227202759
304,504.0,0.07074825621336074
305,505.0,0.06589089691691806
306,506.0,0.06345462488526164
307,507.0,0.05938429097049894
308,508.0,0.05729776518439058
309,509.0,0.057509398942250906
310,510.0,0.05890275757866904
311,511.0,0.05997497739555602
312,512.0,0.06069613352243425
313,513.0,0.06345063794542545
314,514.0,0.0690515340901816
315,515.0,0.06402188353301096
316,516.0,0.06143437452965895
317,517.0,0.06032161598860927
318,518.0,0.058211599961854744
319,519.0,0.057294879260412324
320,520.0,0.06151164221077187
321,521.0,0.0621685873786918
322,522.0,0.06273406796895348
323,523.0,0.062610588777804
324,524.0,0.06738962535344703
325,525.0,0.06546273660474419
326,526.0,0.06543254497465943
327,527.0,0.0644528043017719
328,528.0,0.06516294208148707
329,529.0,0.06015105008105922
330,530.0,0.0620757432953702
331,531.0,0.06244954417690978
332,532.0,0.0614084745702685
333,533.0,0.061204774457574926
334,534.0,0.0659763410640989
335,535.0,0.07024951343500227
336,536.0,0.0671291907005804
337,537.0,0.0633364073502986
338,538.0,0.05876340249865371
339,539.0,0.051719593973368706
340,540.0,0.054766363906811284
341,541.0,0.054866521065795155
342,542.0,0.05295749240198405
343,543.0,0.056494903318691315
344,544.0,0.06084203385794199
345,545.0,0.06193359688338395
346,546.0,0.06400773462624411
347,547.0,0.06422221424849
348,548.0,0.06122292085533964
349,549.0,0.06116498635503701
350,550.0,0.06298790403304938
351,551.0,0.06157560128388916
352,552.0,0.06512483110062305
353,553.0,0.06814353739776582
354,554.0,0.06704842827697431
355,555.0,0.0642915376128687
356,556.0,0.06392931742728036
357,557.0,0.0633086173278896
358,558.0,0.05741513459655127
359,559.0,0.05266612528203795
360,560.0,0.05130254510356421
361,561.0,0.05262643163062173
362,562.0,0.05468318654426751
363,563.0,0.054707660137563154
364,564.0,0.05528155521428825
365,565.0,0.05713621765386939
366,566.0,0.058611184373652245
367,567.0,0.059438658193769374
368,568.0,0.05576677761235279
369,569.0,0.053885348581662836
370,570.0,0.055899232395910194
371,571.0,0.05473697843826208
372,572.0,0.05438322484658868
373,573.0,0.05628417756667871
374,574.0,0.058811483444444444
375,575.0,0.060512363570426664
376,576.0,0.0640170121715652
377,577.0,0.058572892852765304
378,578.0,0.05766522994945418
379,579.0,0.05656974040287976
380,580.0,0.05694239917076371
381,581.0,0.05515915039291288
382,582.0,0.05934427310068612
383,583.0,0.06022338365269413
384,584.0,0.061504841987867806
385,585.0,0.06380710007077671
386,586.0,0.06186798138865265
387,587.0,0.060232861187159537
388,588.0,0.05974684088716076
389,589.0,0.0579558810373568
390,590.0,0.058601380315998555
391,591.0,0.062188586638255446
392,592.0,0.06507740454609055
393,593.0,0.06680261566013858
394,594.0,0.0721542796271147
395,595.0,0.07864855143558284
396,596.0,0.0815234575734605
397,597.0,0.0848915882125845
398,598.0,0.08361112371096423
399,599.0,0.08196009481287099
400,600.0,0.08482009694241878
401,601.0,0.08986734778257302
402,602.0,0.09137037296304867
403,603.0,0.09614322531956283
404,604.0,0.10466519722706345
405,605.0,0.11279698118724896
406,606.0,0.12123826034444658
407,607.0,0.12370713223240316
408,608.0,0.12953734030780853
409,609.0,0.14175853148345854
410,610.0,0.15432308447370968
411,611.0,0.17185037376156023
412,612.0,0.19388050747337013
413,613.0,0.22225623919960355
414,614.0,0.25711965004138276
415,615.0,0.295291626319757
416,616.0,0.34241498492493205
417,617.0,0.38219680003426343
418,618.0,0.4160024618210289
419,619.0,0.44477628003332587
420,620.0,0.44694836550835515
421,621.0,0.43820050931388027
422,622.0,0.4115396259240152
423,623.0,0.37401413538508405
424,624.0,0.3316077068514782
425,625.0,0.29130847050094294
426,626.0,0.25697680400125633
427,627.0,0.22366374468774416
428,628.0,0.1950135801993683
429,629.0,0.1759352545653884
430,630.0,0.1509301471453907
431,631.0,0.13446902715048223
432,632.0,0.12352125030101642
433,633.0,0.11358397097545317
434,634.0,0.10265289321734068
435,635.0,0.09851358500290353
436,636.0,0.0952786820387657
437,637.0,0.09714176894437201
438,638.0,0.09360440987221608
439,639.0,0.0875761709321857
440,640.0,0.08093053598836727
441,641.0,0.07600949454018267
442,642.0,0.07484739569019472
443,643.0,0.06809021781312548
444,644.0,0.06162877117239492
445,645.0,0.06273023853622645
446,646.0,0.06208576589101038
447,647.0,0.061426261802310395
448,648.0,0.05730317789311536
449,649.0,0.05320413880444585
450,650.0,0.05435555842645543
451,651.0,0.052679748545555294
452,652.0,0.05143398538422864
453,653.0,0.05238776557936337
454,654.0,0.05052557396200349
455,655.0,0.05166800574730528
456,656.0,0.05141223641829636
457,657.0,0.051008781088889225
458,658.0,0.04832575882513071
459,659.0,0.04612028680831421
460,660.0,0.047748418717495286
461,661.0,0.044796920584551286
462,662.0,0.04299473701319878
463,663.0,0.04195756322088268
464,664.0,0.04052221616471247
465,665.0,0.03724006578092497
466,666.0,0.037999045247952674
467,667.0,0.039177276921251135
468,668.0,0.03754227579387165
469,669.0,0.038855837677109636
470,670.0,0.03887116870901136
471,671.0,0.038683488854860275
472,672.0,0.04064549435099491
473,673.0,0.04172994399575766
474,674.0,0.04354373637406942
475,675.0,0.04243527623756204
476,676.0,0.04674282066986505
477,677.0,0.04877648301266155
478,678.0,0.04661557810683712
479,679.0,0.045572641904041804
480,680.0,0.040172045089787375
481,681.0,0.03624994606408118
482,682.0,0.034029990712460725
483,683.0,0.035122719161113834
484,684.0,0.033151391103480476
485,685.0,0.03596261929381846
486,686.0,0.04069187150679773
487,687.0,0.041505095033808365
488,688.0,0.03983449646393985
489,689.0,0.04082747937341238
490,690.0,0.03558131578024066
491,691.0,0.034704297855843905
492,692.0,0.036424090149967225
493,693.0,0.0400189339282143
494,694.0,0.034992880869298346
495,695.0,0.0341841013419237
496,696.0,0.03513257026012101
497,697.0,0.03563762513532186
498,698.0,0.03595274724254
499,699.0,0.038920183978943826
500,700.0,0.0399006502380676
501,701.0,0.04267757195261281
502,702.0,0.04340579623783
503,703.0,0.04567208432764912
504,704.0,0.03866795237676717
505,705.0,0.032852407649064067
506,706.0,0.026677280964108156
507,707.0,0.027666501397303617
508,708.0,0.028688540053025718
509,709.0,0.030138426322126658
510,710.0,0.0329423823468382
511,711.0,0.03390780610652686
512,712.0,0.036126955833318784
513,713.0,0.03833088131655588
514,714.0,0.03476905890517283
515,715.0,0.033788594900724174
516,716.0,0.028117955271264716
517,717.0,0.031881486822537816
518,718.0,0.030318690995929754
519,719.0,0.031358325140597505
520,720.0,0.031856564256925
521,721.0,0.030602502618281537
522,722.0,0.02968724297336763
523,723.0,0.033116483132160784
524,724.0,0.03339767339297306
525,725.0,0.03239446515291904
526,726.0,0.026065950148009238
527,727.0,0.026048168027511965
528,728.0,0.0270209481576042
529,729.0,0.03028136972626834
530,730.0,0.0269535141432146
531,731.0,0.027973082543618476
532,732.0,0.027515893863499893
533,733.0,0.029778742858540812
534,734.0,0.028566687719134048
535,735.0,0.02559399860939395
536,736.0,0.02028027955476882
537,737.0,0.022952764476415758
538,738.0,0.027252129453197237
539,739.0,0.027924054863183043
540,740.0,0.02384739860778845
541,741.0,0.02872919820748754
542,742.0,0.02827106975810869
543,743.0,0.029132916002291603
544,744.0,0.031204360108943507
545,745.0,0.028542722739628726
546,746.0,0.026005288001391767
547,747.0,0.025853261425230752
548,748.0,0.024387350907499102
549,749.0,0.026108672669418173
550,750.0,0.021376393462239213
551,751.0,0.026475683594085808
552,752.0,0.026032869683089394
553,753.0,0.02756080555438944
554,754.0,0.028559640165055366
555,755.0,0.02684363773526934
556,756.0,0.024816722039292936
557,757.0,0.022144476787871587
558,758.0,0.02108390545742853
559,759.0,0.025204355772995516
560,760.0,0.02377606127410358
561,761.0,0.023271704422217925
562,762.0,0.023326268733759835
563,763.0,0.02057525025940351
564,764.0,0.019274227654091942
565,765.0,0.018291800536049844
566,766.0,0.016355537557066042
567,767.0,0.01886332824451054
568,768.0,0.02124272191288407
569,769.0,0.02716882989309988
570,770.0,0.029570515145071297
571,771.0,0.029150494899444757
572,772.0,0.03198461528299459
573,773.0,0.028061611800182587
574,774.0,0.026375826407233054
575,775.0,0.027209594619204622
576,776.0,0.028405204458557796
577,777.0,0.02809445338729167
578,778.0,0.025572017336229352
579,779.0,0.025265017168735877
580,780.0,0.021331641788643173
581,781.0,0.020022760836696844
582,782.0,0.02009340119262645
583,783.0,0.01970840747966259
584,784.0,0.022765630765452953
585,785.0,0.025806921197413478
586,786.0,0.02617172035589374
587,787.0,0.023209569669612407
588,788.0,0.0227725674434892
589,789.0,0.022896455754652663
590,790.0,0.020752566785294777
591,791.0,0.02446254247274508
592,792.0,0.028188739166752373
593,793.0,0.02725999707284857
594,794.0,0.025401524223805403
595,795.0,0.021401161684300646
596,796.0,0.01877387467337584
597,797.0,0.016351001955521024
598,798.0,0.015559511067458544
599,799.0,0.014499664337957843
600,800.0,0.012774973891238458
601,801.0,0.013766224425980626
602,802.0,0.015496826391477914
603,803.0,0.016401106303856522
604,804.0,0.01759021457977468
605,805.0,0.020350247934661187
606,806.0,0.023689030511842953
607,807.0,0.022915155684248303
608,808.0,0.020599215600907713
609,809.0,0.018725890507690246
610,810.0,0.016759069754539113
611,811.0,0.017586968427526467
612,812.0,0.019723779087264533
613,813.0,0.022177258371773256
614,814.0,0.023628013833307
615,815.0,0.023857008316606438
616,816.0,0.026332454352617617
617,817.0,0.019968748690733312
618,818.0,0.015512275464169587
619,819.0,0.012594796704608413
620,820.0,0.01158526596874346
621,821.0,0.008650441548102966
622,822.0,0.008995967902189653
623,823.0,0.01376991541795713
624,824.0,0.017569802139586362
625,825.0,0.020189738929010277
626,826.0,0.028232287716876175
627,827.0,0.028606990390230246
628,828.0,0.029713165521929825
629,829.0,0.028439145139904993
630,830.0,0.021843395132688105
631,831.0,0.017528532600474163
632,832.0,0.018050950955156207
633,833.0,0.020076790744004477
634,834.0,0.0185467674018177
635,835.0,0.01707210103636751
636,836.0,0.021297102236187304
637,837.0,0.019873985823664665
638,838.0,0.017266943822271605
639,839.0,0.012127774827200054
640,840.0,0.009034138660220447
641,841.0,0.012389302643517073
642,842.0,0.012868495255074486
643,843.0,0.013628153158164766
644,844.0,0.014530199760767845
645,845.0,0.014307865361188771
646,846.0,0.018583131575488705
647,847.0,0.01996395114687708
648,848.0,0.01654778461472622
649,849.0,0.014958291847269095
650,850.0,0.01571473506533652
651,851.0,0.015842970215804997
652,852.0,0.01169608426002465
653,853.0,0.006703924396431167
654,854.0,0.003447618471827677
655,855.0,0.0008504141418001828
656,856.0,0.0035799252202894758
657,857.0,0.010136385608157585
658,858.0,0.01060220329286483
659,859.0,0.02070859181634981
660,860.0,0.026496069395757094
661,861.0,0.030377186949385595
662,862.0,0.029414877075148057
663,863.0,0.026647442354687464
664,864.0,0.02569793829297436
665,865.0,0.022852276689048677
666,866.0,0.020192406431651985
667,867.0,0.01961114719213505
668,868.0,0.019657221349378334
669,869.0,0.022295445607540567
670,870.0,0.02152007686961765
671,871.0,0.021891723541105915
672,872.0,0.0211643234596427
673,873.0,0.019011497954900234
674,874.0,0.021242525972865033
675,875.0,0.020449962951294486
676,876.0,0.019273711509470673
677,877.0,0.019605418215872198
678,878.0,0.021509438003078744
679,879.0,0.0193298689831835
680,880.0,0.020812830375568553
681,881.0,0.021122077037172025
682,882.0,0.01921864089505971
683,883.0,0.017254478039322292
684,884.0,0.018319853715916188
685,885.0,0.018092244406237266
686,886.0,0.01747415397309975
687,887.0,0.019964159443812055
688,888.0,0.021854951113815916
689,889.0,0.02235607863494622
690,890.0,0.022084495354895775
691,891.0,0.022537516436095795
692,892.0,0.021918116096860535
693,893.0,0.023688156620999778
694,894.0,0.02382322986301456
695,895.0,0.019393321173977646
696,896.0,0.01626119792562454
697,897.0,0.014287672264241765
698,898.0,0.009859399906012319
699,899.0,0.007914043872418383
700,900.0,0.006055895995242162
701,901.0,0.006925534575117913
702,902.0,0.009768436905500647
703,903.0,0.013408228348681451
704,904.0,0.018148241642818145
705,905.0,0.017390000817133947
706,906.0,0.019657063682824924
707,907.0,0.021181341479903942
708,908.0,0.018010509269669163
709,909.0,0.016881420442088926
710,910.0,0.011153068988232527
711,911.0,0.009639707522616388
712,912.0,0.012416131024410058
713,913.0,0.011678763760961473
714,914.0,0.010055798266720494
715,915.0,0.010811592657408723
716,916.0,0.01453291776495477
717,917.0,0.017367225518862394
718,918.0,0.015170238406654345
719,919.0,0.011404245213488698
720,920.0,0.009744243241137113
721,921.0,0.013805414008816838
722,922.0,0.015855955224785206
723,923.0,0.014411247457593259
724,924.0,0.011928422192459103
725,925.0,0.013100816573109263
726,926.0,0.01444818140972901
727,927.0,0.01701642204818643
728,928.0,0.018322957571526285
729,929.0,0.01898553740797248
730,930.0,0.023027603544804327
731,931.0,0.02722955650844179
732,932.0,0.027355169538986913
733,933.0,0.023530135567572757
734,934.0,0.019460512479344785
735,935.0,0.015295201163744299
736,936.0,0.011548445230215526
737,937.0,0.012428160340055224
738,938.0,0.014900797912274355
739,939.0,0.015889897719081954
740,940.0,0.021553160659474525
741,941.0,0.02521356246289513
742,942.0,0.025295008350479924
743,943.0,0.025801958226955104
744,944.0,0.027205235684467432
745,945.0,0.028892143478147905
746,946.0,0.022774181263024766
747,947.0,0.020550215402176577
748,948.0,0.024068557240859847
749,949.0,0.02489689618092578
750,950.0,0.02570305408575747
751,951.0,0.024152085058776345
752,952.0,0.0262193770915694
753,953.0,0.031067398688498636
754,954.0,0.03786025155926301
755,955.0,0.0413746668097919
756,956.0,0.03786743446194936
757,957.0,0.036389790205435556
758,958.0,0.03969929139666155
759,959.0,0.038847635591358884
760,960.0,0.031723630681893634
761,961.0,0.0294914568297175
762,962.0,0.026444129054325662
763,963.0,0.02717085025472022
764,964.0,0.03243300494934406
765,965.0,0.03520796122289663
766,966.0,0.036840138713525226
767,967.0,0.0399929852977995
768,968.0,0.04227776209852158
769,969.0,0.04593481771559847
770,970.0,0.049357404453598985
771,971.0,0.05463924407176251
772,972.0,0.05304022975256854
773,973.0,0.05748593436171145
774,974.0,0.06129091408372117
775,975.0,0.06407531081796623
776,976.0,0.06771635693865347
777,977.0,0.07445050279380383
778,978.0,0.07576611740204564
779,979.0,0.07752633025590537
780,980.0,0.08576792573889681
781,981.0,0.0917824037732884
782,982.0,0.09844705244119008
783,983.0,0.10987381625465721
784,984.0,0.12166881212961199
785,985.0,0.13818571904824548
786,986.0,0.15632694052595725
787,987.0,0.17572447826653526
788,988.0,0.1904985256002185
789,989.0,0.21031818004409758
790,990.0,0.23996891129346432
791,991.0,0.2736450124319126
792,992.0,0.31668180159279147
793,993.0,0.3716527692431185
794,994.0,0.44387319148016063
795,995.0,0.5281803016746254
796,996.0,0.6245497782824242
797,997.0,0.728069772225056
798,998.0,0.8311895150069973
799,999.0,0.9185055345102089
800,1000.0,0.9760453007066903
801,1001.0,1.0
802,1002.0,0.9824902699926297
803,1003.0,0.928121113505578
804,1004.0,0.8475248738213994
805,1005.0,0.7491355997031326
806,1006.0,0.6525929462537514
807,1007.0,0.5601661806225267
808,1008.0,0.48077092565413665
809,1009.0,0.4091522744121268
810,1010.0,0.3568131638918588
811,1011.0,0.31465539284910726
812,1012.0,0.28019879214994187
813,1013.0,0.25285600806873837
814,1014.0,0.2325608424045205
815,1015.0,0.2185209302461219
816,1016.0,0.2124206710189464
817,1017.0,0.20833235847372653
818,1018.0,0.2064032668283685
819,1019.0,0.21120065085478035
820,1020.0,0.22179329356334176
821,1021.0,0.23451145774655596
822,1022.0,0.2528710586773055
823,1023.0,0.2753763604857409
824,1024.0,0.3038553628188019
825,1025.0,0.3433645498592996
826,1026.0,0.3949941577102468
827,1027.0,0.44761292290038707
828,1028.0,0.4992891123319796
829,1029.0,0.5454155453509496
830,1030.0,0.5747598470218565
831,1031.0,0.5856230613635763
832,1032.0,0.5708742377224
833,1033.0,0.5351976683368997
834,1034.0,0.4809043899357471
835,1035.0,0.42396668052256814
836,1036.0,0.36395634393791865
837,1037.0,0.3088890921529223
838,1038.0,0.26209317530913206
839,1039.0,0.22085406091722903
840,1040.0,0.1876263835242428
841,1041.0,0.1626175202085165
842,1042.0,0.14892158713636197
843,1043.0,0.13361905094602403
844,1044.0,0.11620404624430505
845,1045.0,0.10781820654658321
846,1046.0,0.09904231794601918
847,1047.0,0.09121871679328818
848,1048.0,0.08013071649824992
849,1049.0,0.06726782688236561
850,1050.0,0.05844859526281721
851,1051.0,0.05473861696999159
852,1052.0,0.05101750238692732
853,1053.0,0.0465757004520404
854,1054.0,0.044186512360856925
855,1055.0,0.04966107233179282
856,1056.0,0.04742964823522254
857,1057.0,0.04116290966272213
858,1058.0,0.03494955984106426
859,1059.0,0.030012669343287383
860,1060.0,0.02667610300448478
861,1061.0,0.023759120581857328
862,1062.0,0.01998902167072454
863,1063.0,0.020977239992795764
864,1064.0,0.025545515917256345
865,1065.0,0.031302464445304205
866,1066.0,0.031299720859020407
867,1067.0,0.031005343050618858
868,1068.0,0.030576410901198645
869,1069.0,0.02904615140244268
870,1070.0,0.029752001586225308
871,1071.0,0.028622322075504556
872,1072.0,0.027730748745912
873,1073.0,0.025778690829339358
874,1074.0,0.025385050135509964
875,1075.0,0.02219615176203306
876,1076.0,0.019839873961809678
877,1077.0,0.01584102955429949
878,1078.0,0.014780838029036455
879,1079.0,0.018157508348233955
880,1080.0,0.021848145644892437
881,1081.0,0.02094831014757106
882,1082.0,0.019728292119408894
883,1083.0,0.02025631540099131
884,1084.0,0.017966260406970434
885,1085.0,0.017113637703701858
886,1086.0,0.011663599777648224
887,1087.0,0.014927643930130663
888,1088.0,0.01881996596400469
889,1089.0,0.02037476896422787
890,1090.0,0.018336434885971406
891,1091.0,0.014897655937986483
892,1092.0,0.013274079031113838
893,1093.0,0.011506239644886158
894,1094.0,0.01341594854530919
895,1095.0,0.01598158857523675
896,1096.0,0.016759502262099442
897,1097.0,0.024630653980609873
898,1098.0,0.026528751344489926
899,1099.0,0.025222412815550866
900,1100.0,0.02480848248040645
901,1101.0,0.019482863003505525
902,1102.0,0.020261505834159376
903,1103.0,0.014822434594460239
904,1104.0,0.01523940044173722
905,1105.0,0.013658693512693694
906,1106.0,0.009839327345264052
907,1107.0,0.008215766589727409
908,1108.0,0.0067259171705351195
909,1109.0,0.008928363965320554
910,1110.0,0.007165782964733647
911,1111.0,0.005402612035327759
912,1112.0,0.012834305275354882
913,1113.0,0.00996948615194558
914,1114.0,0.01411866348079549
915,1115.0,0.02060861652211233
916,1116.0,0.02115605142089355
917,1117.0,0.019673911822309535
918,1118.0,0.020137346847359728
919,1119.0,0.019710916345724572
920,1120.0,0.01557436739152552
921,1121.0,0.01494941907559896
922,1122.0,0.015511739066070122
923,1123.0,0.008272886425143766
924,1124.0,0.00933784458255941
925,1125.0,0.012400980540825748
926,1126.0,0.0116476906891702
927,1127.0,0.014217997659917516
928,1128.0,0.022853151812832297
929,1129.0,0.023494497780484323
930,1130.0,0.02632249284192005
931,1131.0,0.03324924022597932
932,1132.0,0.03386873443828598
933,1133.0,0.03338324143871446
934,1134.0,0.032510798607075043
935,1135.0,0.03307488942977799
936,1136.0,0.031377041004003556
937,1137.0,0.03238344304744022
938,1138.0,0.03363407330452642
939,1139.0,0.030841413125736787
940,1140.0,0.02990254946519528
941,1141.0,0.03490334954406743
942,1142.0,0.038235953783033315
943,1143.0,0.044246086778877855
944,1144.0,0.0519417075011625
945,1145.0,0.0642704973321464
946,1146.0,0.07346458854504159
947,1147.0,0.0862129381867739
948,1148.0,0.09904429297530165
949,1149.0,0.11701302284310577
950,1150.0,0.14092091731792197
951,1151.0,0.16776736871334066
952,1152.0,0.19143796302196117
953,1153.0,0.2079267328282426
954,1154.0,0.2187555814492159
955,1155.0,0.22361905974074614
956,1156.0,0.21494193506268353
957,1157.0,0.200411890976125
958,1158.0,0.1786059743001471
959,1159.0,0.15681298593216259
960,1160.0,0.13722960011048183
961,1161.0,0.11911419375252527
962,1162.0,0.10305951847194765
963,1163.0,0.08921770723165108
964,1164.0,0.07820187919211874
965,1165.0,0.07160675731669112
966,1166.0,0.060555451459031365
967,1167.0,0.05206638857392137
968,1168.0,0.046788888007595945
969,1169.0,0.040187520183327316
970,1170.0,0.03147278171374596
971,1171.0,0.027752193067034085
972,1172.0,0.02660472534246688
973,1173.0,0.02398968406895468
974,1174.0,0.023875875949021592
975,1175.0,0.02254482019353505
976,1176.0,0.02120003723599174
977,1177.0,0.02170660642653815
978,1178.0,0.023266729088209936
979,1179.0,0.02319010269594552
980,1180.0,0.022021001927052652
981,1181.0,0.02541462352703695
982,1182.0,0.024842711743942345
983,1183.0,0.02150148700489316
984,1184.0,0.02079974488605227
985,1185.0,0.019505601685304783
986,1186.0,0.019355384595522038
987,1187.0,0.013898195065370513
988,1188.0,0.009787494607466661
989,1189.0,0.006355858973178427
990,1190.0,0.004450199922197227
991,1191.0,0.005999131888965787
992,1192.0,0.004360450246825699
993,1193.0,0.009054582399232066
994,1194.0,0.01314749715115093
995,1195.0,0.014423308151242268
996,1196.0,0.022410933487116702
997,1197.0,0.02285393834822988
998,1198.0,0.02593149445752121
999,1199.0,0.025663675971642475
1000,1200.0,0.024421038666497457
1001,1201.0,0.024501413688520515
1002,1202.0,0.019106503761202476
1003,1203.0,0.019721420250610956
1004,1204.0,0.0164782538843626
1005,1205.0,0.013354506632561646
1006,1206.0,0.01625814359903157
1007,1207.0,0.01321054407733585
1008,1208.0,0.009683156347519274
1009,1209.0,0.008701391512720822
1010,1210.0,0.0068081934778538395
1011,1211.0,0.0034175685398785674
1012,1212.0,0.0
1013,1213.0,0.0033191710745381084
1014,1214.0,0.0062755818256745284
1015,1215.0,0.003393142737540892
1016,1216.0,0.004270481593222098
1017,1217.0,0.005735279635372649
1018,1218.0,0.004864175367758832
1019,1219.0,0.00501399829789881
1020,1220.0,0.004168168373722434
1021,1221.0,0.004346054325816744
1022,1222.0,0.008610553203832394
1023,1223.0,0.013094212796557992
1024,1224.0,0.014294813920706037
1025,1225.0,0.008009353593507568
1026,1226.0,0.009343526044149685
1027,1227.0,0.00995097154991016
1028,1228.0,0.007239456119648941
1029,1229.0,0.006370694526086454
1030,1230.0,0.007123064860319773
1031,1231.0,0.008994624333952718
1032,1232.0,0.010397599299340973
1033,1233.0,0.014468006472392285
1034,1234.0,0.014353552933528144
1035,1235.0,0.0151997458628538
1036,1236.0,0.017511341332469142
1037,1237.0,0.014581484177722674
1038,1238.0,0.012686939287782202
1039,1239.0,0.010990506067461152
1040,1240.0,0.009554336055067326
1041,1241.0,0.00729098951432894
1042,1242.0,0.003654638086883011
1043,1243.0,0.003662009556488185
1044,1244.0,0.005687046853524137
1045,1245.0,0.009658781844024144
1046,1246.0,0.013155646478321532
1047,1247.0,0.016369668081607985
1048,1248.0,0.018430278663917922
1049,1249.0,0.015302789515481884
1050,1250.0,0.014675903228949209
1051,1251.0,0.009888087205834312
1052,1252.0,0.005726607981605195
1053,1253.0,0.00465131483028849
1054,1254.0,0.006098500358037239
1055,1255.0,0.007727893572621675
1056,1256.0,0.013750726564124169
1057,1257.0,0.01840932079056828
1058,1258.0,0.01741782535604967
1059,1259.0,0.01642512942218091
1060,1260.0,0.016883001043456337
1061,1261.0,0.01512801537287709
1062,1262.0,0.01700860052278774
1063,1263.0,0.017763587289617584
1064,1264.0,0.018219428953590383
1065,1265.0,0.01851724646782872
1066,1266.0,0.01967832846566921
1067,1267.0,0.018042071002896627
1068,1268.0,0.01524343622789937
1069,1269.0,0.013581349478868458
1070,1270.0,0.013366463198571288
1071,1271.0,0.012783400122217802
1072,1272.0,0.011532083804619434
1073,1273.0,0.013152509474220779
1074,1274.0,0.016242577449357667
1075,1275.0,0.01799025998058422
1076,1276.0,0.016522567545800976
1077,1277.0,0.013988269240723002
1078,1278.0,0.011598897831782662
1079,1279.0,0.010166378464880752
1080,1280.0,0.012297008621535505
1081,1281.0,0.012652793801018325
1082,1282.0,0.01405600078115353
1083,1283.0,0.02026241360527958
1084,1284.0,0.021327638806826327
1085,1285.0,0.02084486445630603
1086,1286.0,0.014734660054982559
1087,1287.0,0.01093228705987438
1088,1288.0,0.006675765516067856
1089,1289.0,0.0018340635022347038
1090,1290.0,0.0036272478616061012
1091,1291.0,0.0016145544741414583
1092,1292.0,0.0019773317132387247
1093,1293.0,0.003257873993462972
1094,1294.0,0.005577976394243988
1095,1295.0,0.012094082745033919
1096,1296.0,0.014257868244448467
1097,1297.0,0.01973188244196726
1098,1298.0,0.020740684365957038
1099,1299.0,0.01785192651575212
1100,1300.0,0.01645526991672135
1101,1301.0,0.013515695195007517
1102,1302.0,0.011796878489524041
1103,1303.0,0.0074956020422198835
1104,1304.0,0.008090469443864642
1105,1305.0,0.01015962919982514
1106,1306.0,0.011399082868730061
1107,1307.0,0.015148387833907002
1108,1308.0,0.01692990367737119
1109,1309.0,0.015004142848998007
1110,1310.0,0.0184082209754308
1111,1311.0,0.023776933429461695
1112,1312.0,0.023207344769358165
1113,1313.0,0.01985860316636079
1114,1314.0,0.017546094776162355
1115,1315.0,0.016102860070530852
1116,1316.0,0.011481911710588162
1117,1317.0,0.008688999655338071
1118,1318.0,0.005200795591910172
1119,1319.0,0.004862505794760794
1120,1320.0,0.007162288835946751
1121,1321.0,0.011164437765869218
1122,1322.0,0.011977047150869913
1123,1323.0,0.01731343108301519
1124,1324.0,0.01782204457889069
1125,1325.0,0.020998824050283256
1126,1326.0,0.0204234158203936
1127,1327.0,0.018824644478570907
1128,1328.0,0.01632064263878437
1129,1329.0,0.016587553636824945
1130,1330.0,0.00962027768605742
1131,1331.0,0.0073321560771984675
1132,1332.0,0.006928062067893083
1133,1333.0,0.009182885781932614
1134,1334.0,0.006272148500218796
1135,1335.0,0.008962477671596223
1136,1336.0,0.014959859024939938
1137,1337.0,0.017384142940376605
1138,1338.0,0.01770259781400607
1139,1339.0,0.01667259131891722
1140,1340.0,0.013084742882039984
1141,1341.0,0.009434460601670079
1142,1342.0,0.010469911179182837
1143,1343.0,0.008461426428789108
1144,1344.0,0.004492169656343931
1145,1345.0,0.006527810737051411
1146,1346.0,0.01321568858997038
1147,1347.0,0.01578790596639101
1148,1348.0,0.013059790919620593
1149,1349.0,0.01546390875307565
1150,1350.0,0.011403081180056864
1151,1351.0,0.011250284246240734
1152,1352.0,0.015420213783225636
1153,1353.0,0.0132901433266076
1154,1354.0,0.013373617754053619
1155,1355.0,0.015535500434612165
1156,1356.0,0.021497943765087006
1157,1357.0,0.022523377371970344
1158,1358.0,0.018938549121127756
1159,1359.0,0.018649926655852897
1160,1360.0,0.012970617775083118
1161,1361.0,0.018046416875529585
1162,1362.0,0.01933569961937671
1163,1363.0,0.017400808774426922
1164,1364.0,0.01876925918092026
1165,1365.0,0.02425151348342329
1166,1366.0,0.026561254086245396
1167,1367.0,0.02388253870505732
1168,1368.0,0.01853849574507919
1169,1369.0,0.015842022433828023
1170,1370.0,0.01160860690575164
1171,1371.0,0.010974533286301392
1172,1372.0,0.012513624312592876
1173,1373.0,0.011280785451304357
1174,1374.0,0.01519755754790027
1175,1375.0,0.01875759106945222
1176,1376.0,0.0156349722007365
1177,1377.0,0.016923349643365244
1178,1378.0,0.013575418064452465
1179,1379.0,0.014129247883921342
1180,1380.0,0.014518690395278975
1181,1381.0,0.013456520355894942
1182,1382.0,0.013401581333021965
1183,1383.0,0.011280539483256387
1184,1384.0,0.012845446625237898
1185,1385.0,0.011175156981958046
1186,1386.0,0.01096939691970903
1187,1387.0,0.018183271023382054
1188,1388.0,0.017986798355686676
1189,1389.0,0.025000056513065264
1190,1390.0,0.025914046278997162
1191,1391.0,0.025126866477038223
1192,1392.0,0.022206669387818716
1193,1393.0,0.021073863278520455
1194,1394.0,0.01675915214931449
1195,1395.0,0.01568571322942879
1196,1396.0,0.014342329667473185
1197,1397.0,0.014734021561941783
1198,1398.0,0.011500805402839513
1199,1399.0,0.012510675547672975
1200,1400.0,0.010356103632213811
1201,1401.0,0.008498309573487671
1202,1402.0,0.01015280134577043
1203,1403.0,0.013677966394135934
1204,1404.0,0.016031641764010018
1205,1405.0,0.02272391518333956
1206,1406.0,0.02510394972835249
1207,1407.0,0.027808283153901825
1208,1408.0,0.030507168313743387
1209,1409.0,0.028869526104005366
1210,1410.0,0.026566308634427493
1211,1411.0,0.022796745648024856
1212,1412.0,0.026503615781887774
1213,1413.0,0.024097882991741367
1214,1414.0,0.025776478593703314
1215,1415.0,0.026095421470359544
1216,1416.0,0.029886088782364033
1217,1417.0,0.031426512965241606
1218,1418.0,0.03567814670583858
1219,1419.0,0.03713611530847769
1220,1420.0,0.03829719005835795
1221,1421.0,0.04070884592965811
1222,1422.0,0.04102007555554318
1223,1423.0,0.0381463029147469
1224,1424.0,0.0395570236133516
1225,1425.0,0.0364794600350873
1226,1426.0,0.03821040744541619
1227,1427.0,0.03746169373168393
1228,1428.0,0.04096398420640443
1229,1429.0,0.04349372778148869
1230,1430.0,0.049974335675639164
1231,1431.0,0.055186526872758615
1232,1432.0,0.06365140372078647
1233,1433.0,0.07071887294195109
1234,1434.0,0.0800029051456494
1235,1435.0,0.08703577120617069
1236,1436.0,0.0913440626691135
1237,1437.0,0.0957641156170543
1238,1438.0,0.10094544722104953
1239,1439.0,0.10939834409708173
1240,1440.0,0.12207402028157058
1241,1441.0,0.13721047896892913
1242,1442.0,0.16507052365868824
1243,1443.0,0.19263306946220132
1244,1444.0,0.2290948350168427
1245,1445.0,0.2658559058349481
1246,1446.0,0.3039382379318561
1247,1447.0,0.3419881031225581
1248,1448.0,0.3723461103137563
1249,1449.0,0.3918118579751501
1250,1450.0,0.3967585124043826
1251,1451.0,0.39075618100926124
1252,1452.0,0.37295878652963854
1253,1453.0,0.3422651485197977
1254,1454.0,0.30576877760032056
1255,1455.0,0.2670365845618093
1256,1456.0,0.23155179880233118
1257,1457.0,0.19770558028660284
1258,1458.0,0.16831201136715837
1259,1459.0,0.14474134624707574
1260,1460.0,0.12334266393577781
1261,1461.0,0.10703150326325911
1262,1462.0,0.09268201653342864
1263,1463.0,0.08301046479626016
1264,1464.0,0.07555186693916921
1265,1465.0,0.06865687291009721
1266,1466.0,0.06064566421619401
1267,1467.0,0.05789101359326467
1268,1468.0,0.058885718679934154
1269,1469.0,0.05938710771168151
1270,1470.0,0.057664740984501583
1271,1471.0,0.04949227283986918
1272,1472.0,0.04437588415201842
1273,1473.0,0.04120743156354521
1274,1474.0,0.03994329618922194
1275,1475.0,0.037328273850054085
1276,1476.0,0.0353313970565934
1277,1477.0,0.03973251571473176
1278,1478.0,0.04035709764025767
1279,1479.0,0.042211681856197815
1280,1480.0,0.040852211035527705
1281,1481.0,0.03398630128963997
1282,1482.0,0.0363231266064873
1283,1483.0,0.035559227170797826
1284,1484.0,0.039672438112137096
1285,1485.0,0.03650086561991895
1286,1486.0,0.036987793441538803
1287,1487.0,0.03971099120171047
1288,1488.0,0.03510595252003492
1289,1489.0,0.0312517376799544
1290,1490.0,0.030522217315569398
1291,1491.0,0.029664186470616947
1292,1492.0,0.03467273798520135
1293,1493.0,0.03507436054415785
1294,1494.0,0.03797613733690614
1295,1495.0,0.037108129989048576
1296,1496.0,0.04163928693077252
1297,1497.0,0.03981463143474768
1298,1498.0,0.03603778126586813
1299,1499.0,0.028733912599989447
1300,1500.0,0.025834765691159837
1301,1501.0,0.022107592506796604
1302,1502.0,0.022932096190421095
1303,1503.0,0.023727643233626333
1304,1504.0,0.02590618894142966
1305,1505.0,0.028307481759119048
1306,1506.0,0.03379952401479906
1307,1507.0,0.02948625863355314
1308,1508.0,0.03032300918734316
1309,1509.0,0.02433061740217436
1310,1510.0,0.02243310544488095
1311,1511.0,0.02027969526580105
1312,1512.0,0.023126807757856725
1313,1513.0,0.02294295836836241
1314,1514.0,0.02403466271026229
1315,1515.0,0.023824149039941973
1316,1516.0,0.029579946862013307
1317,1517.0,0.030038251465535924
1318,1518.0,0.03384771161267114
1319,1519.0,0.03306034757359519
1320,1520.0,0.035129515495565235
1321,1521.0,0.033687675617539686
1322,1522.0,0.036855624820616446
1323,1523.0,0.03466932508198168
1324,1524.0,0.034782746635059744
1325,1525.0,0.03361646941684263
1326,1526.0,0.03356048687964129
1327,1527.0,0.03357423751178086
1328,1528.0,0.03385016471670127
1329,1529.0,0.027041125243095567
1330,1530.0,0.02420332239765135
1331,1531.0,0.022470967365583797
1332,1532.0,0.02530812408503917
1333,1533.0,0.025750032086158586
1334,1534.0,0.028016146590624118
1335,1535.0,0.0291110209678582
1336,1536.0,0.02787272685085181
1337,1537.0,0.03194265465088935
1338,1538.0,0.03106615516068656
1339,1539.0,0.029984274124713127
1340,1540.0,0.03349393869697607
1341,1541.0,0.03658441516582152
1342,1542.0,0.03635233449026834
1343,1543.0,0.03593725870706488
1344,1544.0,0.03627530298438583
1345,1545.0,0.03519609203906713
1346,1546.0,0.03509089424991414
1347,1547.0,0.03545935117781865
1348,1548.0,0.033506095741942146
1349,1549.0,0.0373308851205285
1350,1550.0,0.03995389402192154
1351,1551.0,0.04204830480403785
1352,1552.0,0.04062987086923957
1353,1553.0,0.04342921656585305
1354,1554.0,0.04758763338454333
1355,1555.0,0.04928750083227328
1356,1556.0,0.050501105290611754
1357,1557.0,0.050467918517561695
1358,1558.0,0.0529305398897644
1359,1559.0,0.0522731887828748
1360,1560.0,0.0522021415056367
1361,1561.0,0.054073290955908994
1362,1562.0,0.058892475091874195
1363,1563.0,0.06570573264295607
1364,1564.0,0.07360870840571786
1365,1565.0,0.07589445778763536
1366,1566.0,0.07972397517124129
1367,1567.0,0.08685587698820987
1368,1568.0,0.09347549540386042
1369,1569.0,0.09676320783404928
1370,1570.0,0.1031344919313934
1371,1571.0,0.1109124172611746
1372,1572.0,0.12025532975398841
1373,1573.0,0.13237048016964695
1374,1574.0,0.148166253540147
1375,1575.0,0.1666156366946098
1376,1576.0,0.1911452765154017
1377,1577.0,0.2193104913784368
1378,1578.0,0.2573966087695825
1379,1579.0,0.29536341496608165
1380,1580.0,0.3363252671598764
1381,1581.0,0.3643595717681933
1382,1582.0,0.38347645678935904
1383,1583.0,0.39410537425358083
1384,1584.0,0.39515497520243964
1385,1585.0,0.3817900474602756
1386,1586.0,0.35802484095088627
1387,1587.0,0.33225866404443694
1388,1588.0,0.31604690127929597
1389,1589.0,0.29672883139829503
1390,1590.0,0.28770695482243025
1391,1591.0,0.28188427418228845
1392,1592.0,0.2875671997809303
1393,1593.0,0.3037825221430926
1394,1594.0,0.32714201516357205
1395,1595.0,0.35537204680518863
1396,1596.0,0.39544592563480274
1397,1597.0,0.44690989568938183
1398,1598.0,0.506178082708536
1399,1599.0,0.5639924294005577
1400,1600.0,0.612846199601328
1401,1601.0,0.6479738962946686
1402,1602.0,0.6609835515211826
1403,1603.0,0.6525598290769662
1404,1604.0,0.615502800279512
1405,1605.0,0.5579966115626138
1406,1606.0,0.49093218218132967
1407,1607.0,0.4226264802386013
1408,1608.0,0.3600583910719813
1409,1609.0,0.3067179937407208
1410,1610.0,0.26093909638890933
1411,1611.0,0.22873033947785804
1412,1612.0,0.20284063620621118
1413,1613.0,0.18482658466751173
1414,1614.0,0.16740095587335133
1415,1615.0,0.1546621448749115
1416,1616.0,0.14212043368385383
1417,1617.0,0.13337846075866666
1418,1618.0,0.1251722259941285
1419,1619.0,0.11267133527781169
1420,1620.0,0.10752459115043186
1421,1621.0,0.10122073442578124
1422,1622.0,0.09327133254207569
1423,1623.0,0.08371148845443273
1424,1624.0,0.07747329993882318
1425,1625.0,0.0732393987714259
1426,1626.0,0.06559718347465211
1427,1627.0,0.060980801157947156
1428,1628.0,0.05437209710662345
1429,1629.0,0.04784413740284516
1430,1630.0,0.04615842135293537
1431,1631.0,0.045645403230646774
1432,1632.0,0.045462839054235184
1433,1633.0,0.0420658758862682
1434,1634.0,0.047097516268552145
1435,1635.0,0.048978782961182306
1436,1636.0,0.048405958395102276
1437,1637.0,0.046708958563795165
1438,1638.0,0.04522450857408819
1439,1639.0,0.0475786835883046
1440,1640.0,0.042201037107484164
1441,1641.0,0.04472911663772971
1442,1642.0,0.041557454805012634
1443,1643.0,0.041128206287377594
1444,1644.0,0.046703395639830635
1445,1645.0,0.04642554198501093
1446,1646.0,0.04466716989992267
1447,1647.0,0.04543711387934987
1448,1648.0,0.04623576686137652
1449,1649.0,0.042049281089770844
1450,1650.0,0.039276239122912414
1451,1651.0,0.03940787664097254
1452,1652.0,0.03369955748839177
1453,1653.0,0.035021334976654744
1454,1654.0,0.0375874921094116
1455,1655.0,0.0391850698503633
1456,1656.0,0.04213809775009871
1457,1657.0,0.04515463164489211
1458,1658.0,0.04547321946604816
1459,1659.0,0.04294594058376201
1460,1660.0,0.045987228290055894
1461,1661.0,0.045336792959200824
1462,1662.0,0.04233865407139697
1463,1663.0,0.04020920612580513
1464,1664.0,0.04031606622588513
1465,1665.0,0.037135683601348696
1466,1666.0,0.03329927738584019
1467,1667.0,0.02868362990594691
1468,1668.0,0.026415319485782515
1469,1669.0,0.024270311343924475
1470,1670.0,0.026491569716219913
1471,1671.0,0.03132269281368935
1472,1672.0,0.03496276933376869
1473,1673.0,0.03860839736522032
1474,1674.0,0.03735282074088145
1475,1675.0,0.03365702112145162
1476,1676.0,0.02999331939395913
1477,1677.0,0.029553573961915464
1478,1678.0,0.029795967090645116
1479,1679.0,0.0303246358990588
1480,1680.0,0.03150191752763872
1481,1681.0,0.03391776553764583
1482,1682.0,0.034290910738032046
1483,1683.0,0.03628151137597038
1484,1684.0,0.031100061594764545
1485,1685.0,0.02935110403077241
1486,1686.0,0.025343146224004125
1487,1687.0,0.028694118430173457
1488,1688.0,0.03218257102119242
1489,1689.0,0.03448181523749918
1490,1690.0,0.031339779611379286
1491,1691.0,0.03264557965354904
1492,1692.0,0.03511500673678025
1493,1693.0,0.03751676935568119
1494,1694.0,0.03742696424674086
1495,1695.0,0.040115344647327085
1496,1696.0,0.039430062729184756
1497,1697.0,0.04601956313693061
1498,1698.0,0.05087947594715069
1499,1699.0,0.04912096041383295
1500,1700.0,0.04528707694812226
1501,1701.0,0.04602542701645668
1502,1702.0,0.04446689830460774
1503,1703.0,0.0385803539826689
1504,1704.0,0.033244185542884726
1505,1705.0,0.03370881852185363
1506,1706.0,0.03307142488515836
1507,1707.0,0.03774046925740629
1508,1708.0,0.04089611773135834
1509,1709.0,0.040938140613233025
1510,1710.0,0.0412578515229554
1511,1711.0,0.04115122001445
1512,1712.0,0.038370020212343786
1513,1713.0,0.03211930438433022
1514,1714.0,0.029736180153717783
1515,1715.0,0.029012435840625482
1516,1716.0,0.029733911625129138
1517,1717.0,0.03108400136357658
1518,1718.0,0.03047600494329174
1519,1719.0,0.033484816111591154
1520,1720.0,0.03445703837778464
1521,1721.0,0.033715366385723845
1522,1722.0,0.03299182751487764
1523,1723.0,0.03386003837522065
1524,1724.0,0.034124178442286296
1525,1725.0,0.035339907453697555
1526,1726.0,0.03746936865049418
1527,1727.0,0.03535262217783502
1528,1728.0,0.030587395152214206
1529,1729.0,0.03264765659254825
1530,1730.0,0.03504363707215474
1531,1731.0,0.03128033899592903
1532,1732.0,0.030278085745581915
1533,1733.0,0.03684175575388939
1534,1734.0,0.03660762466612273
1535,1735.0,0.03710237841242818
1536,1736.0,0.03904817387347209
1537,1737.0,0.0345807565424096
1538,1738.0,0.03060214657017575
1539,1739.0,0.03350754297272773
1540,1740.0,0.03538405220429513
1541,1741.0,0.035944614556628014
1542,1742.0,0.04142044493243105
1543,1743.0,0.04735111422178769
1544,1744.0,0.04353762092787236
1545,1745.0,0.04165761676180889
1546,1746.0,0.04018307164677467
1547,1747.0,0.035252502734565136
1548,1748.0,0.03190606233246596
1549,1749.0,0.03315359061755841
1550,1750.0,0.03550668173313373
1551,1751.0,0.03539592640736222
1552,1752.0,0.038858654113306426
1553,1753.0,0.04215914557674767
1554,1754.0,0.043378043599116144
1555,1755.0,0.04585969763127598
1556,1756.0,0.046891057413276545
1557,1757.0,0.0496212376055512
1558,1758.0,0.05039779831230983
1559,1759.0,0.0490580585564025
1560,1760.0,0.046811462393155465
1561,1761.0,0.038764916300404545
1562,1762.0,0.03865986816770533
1563,1763.0,0.035695313262672806
1564,1764.0,0.03632899416454807
1565,1765.0,0.0347579498695797
1566,1766.0,0.03680753062981694
1567,1767.0,0.039729630908161416
1568,1768.0,0.0401952437453172
1569,1769.0,0.03906081971334265
1570,1770.0,0.04090263103664541
1571,1771.0,0.04100625538065723
1572,1772.0,0.04340749232494292
1573,1773.0,0.04379385927056255
1574,1774.0,0.04637927511408654
1575,1775.0,0.04414450947535712
1576,1776.0,0.04506996527050878
1577,1777.0,0.043160567758929375
1578,1778.0,0.0421782166526487
1579,1779.0,0.0397475317350353
1580,1780.0,0.03925588678369133
1581,1781.0,0.03953901378400695
1582,1782.0,0.04156795255956298
1583,1783.0,0.047140624463047606
1584,1784.0,0.04649246692206711
1585,1785.0,0.04487227222577967
1586,1786.0,0.04081852248521961
1587,1787.0,0.03894603716632717
1588,1788.0,0.041576201319043174
1589,1789.0,0.036797880285707255
1590,1790.0,0.037186893415516085
1591,1791.0,0.03722592186863469
1592,1792.0,0.03873581235340414
1593,1793.0,0.045505024402962384
1594,1794.0,0.049293345926717975
1595,1795.0,0.0474088688597964
1596,1796.0,0.046294424909270215
1597,1797.0,0.05162865362467455
1598,1798.0,0.0526778721798273
1599,1799.0,0.05656477474850424
1600,1800.0,0.056153178552107004
1601,1801.0,0.051136181327885596
1602,1802.0,0.04944595746767592
1603,1803.0,0.047911452343356115
1604,1804.0,0.052284647611143945
1605,1805.0,0.050347010524046304
1606,1806.0,0.05011880025408063
1607,1807.0,0.0493805431430997
1608,1808.0,0.04439090429002929
1609,1809.0,0.04742015709729307
1610,1810.0,0.043743115247563816
1611,1811.0,0.03898364828755844
1612,1812.0,0.040383049070102026
1613,1813.0,0.04351969590026768
1614,1814.0,0.049116114684485665
1615,1815.0,0.055708790550510805
1616,1816.0,0.0565019270943564
1617,1817.0,0.055039716595889826
1618,1818.0,0.049294743428972033
1619,1819.0,0.04746273458983979
1620,1820.0,0.04213026757528232
1621,1821.0,0.0393738009201206
1622,1822.0,0.04065306243478864
1623,1823.0,0.04393504324793979
1624,1824.0,0.044060625289292325
1625,1825.0,0.04507661570315613
1626,1826.0,0.045518960024950976
1627,1827.0,0.04443674437261399
1628,1828.0,0.04526843264759544
1629,1829.0,0.04524827208894125
1630,1830.0,0.045867965857244286
1631,1831.0,0.04995253798076078
1632,1832.0,0.05082374704688082
1633,1833.0,0.05412900392763882
1634,1834.0,0.05524223018249226
1635,1835.0,0.05363688603685784
1636,1836.0,0.05307590360884846
1637,1837.0,0.04994676020201447
1638,1838.0,0.048213801343321164
1639,1839.0,0.051413537765759396
1640,1840.0,0.051922201815438135
1641,1841.0,0.051233794512025504
1642,1842.0,0.05133872878025541
1643,1843.0,0.05218322064068104
1644,1844.0,0.0515923190382462
1645,1845.0,0.0541593066199219
1646,1846.0,0.0469835167661436
1647,1847.0,0.04376067175108523
1648,1848.0,0.043059482274882606
1649,1849.0,0.04915426107191357
1650,1850.0,0.04787155470840628
1651,1851.0,0.051325303677553356
1652,1852.0,0.054913430895603445
1653,1853.0,0.05907631677318176
1654,1854.0,0.060377753769710905
1655,1855.0,0.06109035394549544
1656,1856.0,0.05250674251826816
1657,1857.0,0.05175453969566642
1658,1858.0,0.048786547655412627
1659,1859.0,0.04587172943104394
1660,1860.0,0.041650100925079724
1661,1861.0,0.04412276508249229
1662,1862.0,0.04796545430667994
1663,1863.0,0.05274323500923212
1664,1864.0,0.05366889315095409
1665,1865.0,0.05478091950775135
1666,1866.0,0.05571230021870675
1667,1867.0,0.05704078294485726
1668,1868.0,0.05291860072419993
1669,1869.0,0.05092756484504077
1670,1870.0,0.04954406239820617
1671,1871.0,0.05500172904562161
1672,1872.0,0.05571922103117782
1673,1873.0,0.054894614329338634
1674,1874.0,0.054792256947241484
1675,1875.0,0.05485606174579283
1676,1876.0,0.056784019725662986
1677,1877.0,0.05319910931086213
1678,1878.0,0.0522648791275416
1679,1879.0,0.05012041294847819
1680,1880.0,0.05347673827438031
1681,1881.0,0.0632951318580633
1682,1882.0,0.059773069037239855
1683,1883.0,0.06189936845157767
1684,1884.0,0.06285837447077187
1685,1885.0,0.05955318063020774
1686,1886.0,0.06012938020527389
1687,1887.0,0.05456846211815435
1688,1888.0,0.053023507077852916
1689,1889.0,0.05368170466293035
1690,1890.0,0.060122594637795186
1691,1891.0,0.06800365426501855
1692,1892.0,0.06708761624542
1693,1893.0,0.06900394644134884
1694,1894.0,0.06551915472495441
1695,1895.0,0.05948603611923188
1696,1896.0,0.0564746165543684
1697,1897.0,0.05549029609839014
1698,1898.0,0.0516248061212189
1699,1899.0,0.05451874198496685
1700,1900.0,0.056717023030088576
1701,1901.0,0.062015813763918834
1702,1902.0,0.06717287703793212
1703,1903.0,0.06777997884992501
1704,1904.0,0.06909601466196563
1705,1905.0,0.07351494275032605
1706,1906.0,0.07320428567800898
1707,1907.0,0.07376105801312197
1708,1908.0,0.07215302444536428
1709,1909.0,0.072104765700889
1710,1910.0,0.07263632008018578
1711,1911.0,0.07496331041260526
1712,1912.0,0.0777141014314692
1713,1913.0,0.07633169844794738
1714,1914.0,0.07586667220440724
1715,1915.0,0.07876824490396928
1716,1916.0,0.07544638671217598
1717,1917.0,0.07207336709991638
1718,1918.0,0.07243719753619096
1719,1919.0,0.07195829952240523
1720,1920.0,0.06802362338940945
1721,1921.0,0.06220503019389265
1722,1922.0,0.06346405133675696
1723,1923.0,0.0602235358841224
1724,1924.0,0.06481089357825152
1725,1925.0,0.06863057001652906
1726,1926.0,0.07355083160421466
1727,1927.0,0.07545028946657498
1728,1928.0,0.07899911944561348
1729,1929.0,0.0792708564377017
1730,1930.0,0.07639633090072635
1731,1931.0,0.07187789749535009
1732,1932.0,0.06814720175398353
1733,1933.0,0.06560408582382422
1734,1934.0,0.06605142285303876
1735,1935.0,0.06472125244676744
1736,1936.0,0.06678832347146883
1737,1937.0,0.06653665082641107
1738,1938.0,0.06778379307564195
1739,1939.0,0.07042866790920714
1740,1940.0,0.07589849430361226
1741,1941.0,0.07505936686993349
1742,1942.0,0.07312829059458016
1743,1943.0,0.07925116271294694
1744,1944.0,0.07652105649495797
1745,1945.0,0.08172061275554393
1746,1946.0,0.08417741788978475
1747,1947.0,0.0835794443411725
1748,1948.0,0.08280368960701114
1749,1949.0,0.08242422951634146
1750,1950.0,0.08087710332793874
1751,1951.0,0.07363685064292136
1752,1952.0,0.07426496410584336
1753,1953.0,0.0794972599952132
1754,1954.0,0.08194646957512298
1755,1955.0,0.08984336087111784
1756,1956.0,0.09230912282224578
1757,1957.0,0.08987942520914693
1758,1958.0,0.0912809470203364
1759,1959.0,0.08789327471821809
1760,1960.0,0.08862137172869353
1761,1961.0,0.08388603122031538
1762,1962.0,0.08634444136083755
1763,1963.0,0.08627890083667257
1764,1964.0,0.08744423161775111
1765,1965.0,0.08428616530058032
1766,1966.0,0.08214306608721662
1767,1967.0,0.07895359016222443
1768,1968.0,0.08067937222828345
1769,1969.0,0.07958888928523589
1770,1970.0,0.08657251955579096
1771,1971.0,0.08931500803652867
1772,1972.0,0.09017634959822105
1773,1973.0,0.09270184136483636
1774,1974.0,0.09479360733263699
1775,1975.0,0.09570967158800096
1776,1976.0,0.09752552563048898
1777,1977.0,0.0946814295739839
1778,1978.0,0.09553468300162207
1779,1979.0,0.09186362681614563
1780,1980.0,0.09322675421559291
1781,1981.0,0.09055351069114241
1782,1982.0,0.09035802991702298
1783,1983.0,0.09669952411406377
1784,1984.0,0.096296718065575
1785,1985.0,0.09989688556895868
1786,1986.0,0.09991169957634013
1787,1987.0,0.10121690739814333
1788,1988.0,0.10412269863929466
1789,1989.0,0.10651012192829687
1790,1990.0,0.10935848092868247
1791,1991.0,0.10683118761620854
1792,1992.0,0.10866980628061809
1793,1993.0,0.11226959760656846
1794,1994.0,0.10831194187837591
1795,1995.0,0.10656752755393432
1796,1996.0,0.10392405081360312
1797,1997.0,0.1009815169133059
1798,1998.0,0.0979085230497104
1799,1999.0,0.09487366641948436
1800,2000.0,0.0920455442192955
