pixel_index,raman_shift_cm-1,intensity
0,200.000,-5.172294
1,201.000,-12.193538
2,202.000,-5.6504365
3,203.000,0.892665
4,204.000,-7.376657
5,205.000,-2.306291
6,206.000,3.127641
7,207.000,-9.235067
8,208.000,-8.165857
9,209.000,3.383837
10,210.000,-4.017449
11,211.000,6.860024
12,212.000,-2.226795
13,213.000,-1.77054
14,214.000,3.603222
15,215.000,8.964849
16,216.000,5.736878
17,217.000,4.547597
18,218.000,-6.81021
19,219.000,-3.479256
20,220.000,7.225202
21,221.000,-10.163015
22,222.000,-1.039963
23,223.000,2.621934
24,224.000,-5.073894
25,225.000,2.086743
26,226.000,-2.004868
27,227.000,6.310274
28,228.000,1.27454
29,229.000,-3.996049
30,230.000,-3.010825
31,231.000,-7.795591
32,232.000,-2.106697
33,233.000,-9.42435
34,234.000,3.495965
35,235.000,-4.496484
36,236.000,5.336198
37,237.000,-0.353475
38,238.000,-4.387238
39,239.000,0.062009
40,240.000,5.613037
41,241.000,4.96444
42,242.000,-4.213331
43,243.000,-0.342758
44,244.000,-1.923376
45,245.000,4.703221
46,246.000,-1.829829
47,247.000,5.621717
48,248.000,1.558458
49,249.000,-3.77807
50,250.000,-4.711058
51,251.000,1.19715
52,252.000,-9.174227
53,253.000,-7.06608
54,254.000,-1.8217125000000003
55,255.000,3.422655
56,256.000,-1.87277
57,257.000,2.556428
58,258.000,1.873553
59,259.000,2.032926
60,260.000,-1.464883
61,261.000,-3.874969
62,262.000,-0.506863
63,263.000,6.141825
64,264.000,-2.688373
65,265.000,7.642407
66,266.000,11.146095
67,267.000,6.461470500000001
68,268.000,1.776846
69,269.000,4.535756
70,270.000,3.407148
71,271.000,0.855044
72,272.000,3.787812
73,273.000,1.2074835
74,274.000,-1.372845
75,275.000,7.310373
76,276.000,4.802228
77,277.000,-0.234702
78,278.000,3.245893
79,279.000,8.889458
80,280.000,-0.051447
81,281.000,-1.261632
82,282.000,9.354268
83,283.000,4.609488
84,284.000,-4.160764
85,285.000,-5.006653
86,286.000,-11.938454
87,287.000,5.63843
88,288.000,-8.743195
89,289.000,2.063688
90,290.000,2.914393
91,291.000,2.747771
92,292.000,3.3194295
93,293.000,3.891088
94,294.000,2.581067
95,295.000,3.404621
96,296.000,4.147535
97,297.000,4.890449
98,298.000,-10.251324
99,299.000,-6.517756
100,300.000,2.481965
101,301.000,-8.505207
102,302.000,-1.381571
103,303.000,-2.221794
104,304.000,-5.346796
105,305.000,-3.012863
106,306.000,-4.825594
107,307.000,2.330971
108,308.000,0.342191
109,309.000,-9.397283
110,310.000,-3.086307
111,311.000,5.166881
112,312.000,-5.182405
113,313.000,-7.865931
114,314.000,-8.892402
115,315.000,-0.510147
116,316.000,-8.300234
117,317.000,3.523451
118,318.000,-9.897262
119,319.000,-4.892112
120,320.000,-10.255772
121,321.000,-1.388246
122,322.000,1.298673
123,323.000,3.985592
124,324.000,-0.467542
125,325.000,9.650845
126,326.000,-2.477391
127,327.000,7.532832
128,328.000,6.729582000000001
129,329.000,5.926332
130,330.000,3.488411
131,331.000,-5.879415
132,332.000,-8.663664
133,333.000,9.042421
134,334.000,-3.851487
135,335.000,4.57116
136,336.000,-3.611258
137,337.000,-4.665906
138,338.000,1.70462
139,339.000,-1.649351
140,340.000,6.849715
141,341.000,-4.049561
142,342.000,0.108222
143,343.000,4.591077
144,344.000,4.91013
145,345.000,4.778158
146,346.000,-0.986678
147,347.000,0.259168
148,348.000,2.544962
149,349.000,0.390635
150,350.000,-3.333437
151,351.000,0.433678
152,352.000,3.004922
153,353.000,9.442551
154,354.000,2.989218
155,355.000,1.308661
156,356.000,0.104724
157,357.000,1.964837
158,358.000,2.80527
159,359.000,7.628396
160,360.000,-6.550111
161,361.000,2.75943
162,362.000,-1.937818
163,363.000,4.249189
164,364.000,-4.98743
165,365.000,-7.819393
166,366.000,-5.74357
167,367.000,-2.829743
168,368.000,10.347338
169,369.000,3.941482
170,370.000,-0.903542
171,371.000,1.166699
172,372.000,8.937332
173,373.000,-1.450596
174,374.000,2.473841
175,375.000,-1.276522
176,376.000,3.922754
177,377.000,3.319447
178,378.000,-1.856188
179,379.000,-6.717397
180,380.000,-3.151986
181,381.000,3.264947
182,382.000,6.358595
183,383.000,-9.261588
184,384.000,-3.55386
185,385.000,0.893781
186,386.000,-0.352363
187,387.000,2.82741
188,388.000,-9.550384
189,389.000,-3.668733
190,390.000,4.835039
191,391.000,1.818561
192,392.000,6.542682
193,393.000,-1.511239
194,394.000,-0.974103
195,395.000,-6.934276
196,396.000,8.325685
197,397.000,-8.975204
198,398.000,3.900454
199,399.000,11.421483
200,400.000,5.36298
201,401.000,5.395067
202,402.000,5.427154
203,403.000,-10.453988
204,404.000,-2.374585
205,405.000,2.181641
206,406.000,-5.257993
207,407.000,2.616821
208,408.000,2.875857
209,409.000,2.18183
210,410.000,10.265192
211,411.000,-1.725755
212,412.000,-4.354053
213,413.000,1.791713
214,414.000,-4.217654
215,415.000,9.169339
216,416.000,-4.718528
217,417.000,-7.070987
218,418.000,-0.458065
219,419.000,14.921402
220,420.000,4.714923
221,421.000,3.351408
222,422.000,0.796326
223,423.000,1.257254
224,424.000,-8.542773
225,425.000,-2.174847
226,426.000,-8.707602
227,427.000,-5.26531
228,428.000,7.092662
229,429.000,1.974923
230,430.000,3.232847
231,431.000,-0.588188
232,432.000,0.398348
233,433.000,-1.521443
234,434.000,-4.649324
235,435.000,2.231184
236,436.000,4.694078
237,437.000,-0.91061
238,438.000,-10.971345
239,439.000,-10.744455
240,440.000,-6.605401
241,441.000,3.63334
242,442.000,-9.957604
243,443.000,8.169222
244,444.000,-5.395543
245,445.000,-4.060363
246,446.000,6.278187
247,447.000,9.945168
248,448.000,-8.474046
249,449.000,-2.086789
250,450.000,-4.564906
251,451.000,7.295709
252,452.000,-7.799305
253,453.000,-12.507135
254,454.000,-12.276955
255,455.000,-3.6948495
256,456.000,4.887256
257,457.000,-2.871068
258,458.000,5.004973
259,459.000,-5.75509
260,460.000,-10.194217
261,461.000,3.105366
262,462.000,-6.395345
263,463.000,-2.012386
264,464.000,-2.524839
265,465.000,2.969667
266,466.000,7.778661
267,467.000,-4.520367
268,468.000,-2.538302
269,469.000,0.976389
270,470.000,11.389612
271,471.000,0.140931
272,472.000,1.6679764999999998
273,473.000,3.195022
274,474.000,3.269907
275,475.000,1.352931
276,476.000,-5.780655
277,477.000,6.658455
278,478.000,3.924449
279,479.000,0.34153
280,480.000,-7.952529
281,481.000,-6.354597500000001
282,482.000,-4.756666
283,483.000,-1.4649800000000002
284,484.000,1.826706
285,485.000,6.480327
286,486.000,3.732018
287,487.000,-3.168
288,488.000,-5.172815
289,489.000,7.969366
290,490.000,5.466637
291,491.000,5.8486665
292,492.000,6.230696
293,493.000,0.846805
294,494.000,-5.655782
295,495.000,-0.354199
296,496.000,-3.572726
297,497.000,-3.747184
298,498.000,-2.241649
299,499.000,2.212483
300,500.000,4.615304500000001
301,501.000,7.018126
302,502.000,0.632013
303,503.000,3.631299
304,504.000,-4.503984
305,505.000,-1.7392
306,506.000,-0.089741
307,507.000,3.557452
308,508.000,-6.310803
309,509.000,5.089004
310,510.000,17.80909
311,511.000,6.283216
312,512.000,-0.103615
313,513.000,1.221937
314,514.000,-3.819944
315,515.000,-8.266018
316,516.000,0.182264
317,517.000,-6.400299
318,518.000,-3.243204
319,519.000,-1.548677
320,520.000,3.302358
321,521.000,10.398149
322,522.000,-7.907197
323,523.000,3.525958
324,524.000,16.856816
325,525.000,1.878247
326,526.000,11.902412
327,527.000,-1.670031
328,528.000,-0.025685
329,529.000,-3.602313
330,530.000,-9.89703
331,531.000,4.586399
332,532.000,-2.371255
333,533.000,-2.251138
334,534.000,5.675018
335,535.000,14.511892
336,536.000,4.100958
337,537.000,-4.420538
338,538.000,-1.268666
339,539.000,4.19178
340,540.000,11.076875
341,541.000,-6.430023
342,542.000,-9.30487
343,543.000,-12.275886
344,544.000,1.514994
345,545.000,0.697554
346,546.000,0.077383
347,547.000,7.224347000000001
348,548.000,14.371311
349,549.000,1.104296
350,550.000,-0.167481
351,551.000,-9.105544
352,552.000,-2.280809
353,553.000,0.084402
354,554.000,0.907051
355,555.000,2.35959
356,556.000,-0.063591
357,557.000,1.732736
358,558.000,2.527887
359,559.000,3.720003
360,560.000,15.340265
361,561.000,-1.498184
362,562.000,3.2987
363,563.000,6.476892
364,564.000,-7.033716
365,565.000,7.939821
366,566.000,-0.932047
367,567.000,-4.57131
368,568.000,9.079175
369,569.000,-0.26663
370,570.000,-4.426757
371,571.000,-0.895343
372,572.000,-3.136342
373,573.000,-0.59595
374,574.000,-1.786931
375,575.000,-7.067537
376,576.000,3.590497
377,577.000,7.42663
378,578.000,5.237967
379,579.000,-10.321634
380,580.000,3.020682
381,581.000,-7.832029
382,582.000,5.535743
383,583.000,3.487884
384,584.000,-1.756899
385,585.000,-0.80837
386,586.000,0.02298
387,587.000,0.85433
388,588.000,3.210815
389,589.000,-6.378697
390,590.000,5.232257
391,591.000,7.466672
392,592.000,-0.404221
393,593.000,8.100323
394,594.000,14.195204
395,595.000,4.124313
396,596.000,5.240596
397,597.000,-1.169963
398,598.000,5.14887
399,599.000,3.073584
400,600.000,4.278041
401,601.000,11.132099
402,602.000,12.475091
403,603.000,24.599159
404,604.000,7.465538
405,605.000,16.090076
406,606.000,16.820658
407,607.000,15.276834
408,608.000,16.060887
409,609.000,25.523466
410,610.000,24.715362
411,611.000,38.742123
412,612.000,40.339478
413,613.000,62.815589
414,614.000,66.105717
415,615.000,90.665494
416,616.000,109.103694
417,617.000,133.144179
418,618.000,152.33116
419,619.000,174.29421
420,620.000,170.4799825
421,621.000,166.665755
422,622.000,154.631808
423,623.000,125.652465
424,624.000,99.301004
425,625.000,85.768617
426,626.000,64.422697
427,627.000,55.871775
428,628.000,50.399579
429,629.000,27.218722
430,630.000,32.844507
431,631.000,25.53328
432,632.000,14.633769
433,633.000,18.857434
434,634.000,9.006401
435,635.000,1.651054
436,636.000,15.527101
437,637.000,14.973444
438,638.000,14.89523
439,639.000,9.537076
440,640.000,11.325403
441,641.000,10.404665
442,642.000,4.780768
443,643.000,1.89936
444,644.000,6.808657
445,645.000,-9.779682
446,646.000,8.76112
447,647.000,1.942459
448,648.000,14.236349
449,649.000,-6.800743
450,650.000,3.283965
451,651.000,2.374581
452,652.000,-7.382011
453,653.000,9.535218
454,654.000,-3.026675
455,655.000,-0.406573
456,656.000,-1.01564
457,657.000,4.695612
458,658.000,12.558848
459,659.000,8.795797
460,660.000,0.781067
461,661.000,-0.074933
462,662.000,-11.179929
463,663.000,1.966936
464,664.000,9.948095
465,665.000,-1.80343
466,666.000,-9.367014
467,667.000,-7.621404
468,668.000,2.729401
469,669.000,2.590938
470,670.000,-0.311189
471,671.000,-2.214956
472,672.000,-0.500162
473,673.000,8.728012
474,674.000,3.096149
475,675.000,-6.523249
476,676.000,2.713756
477,677.000,11.265433
478,678.000,2.611111
479,679.000,-1.054022
480,680.000,7.914596
481,681.000,4.086742
482,682.000,-3.4792
483,683.000,-1.13448
484,684.000,1.6962565
485,685.000,4.526993
486,686.000,-5.492971
487,687.000,-3.28174
488,688.000,2.114508
489,689.000,5.424438
490,690.000,14.736635
491,691.000,6.191461
492,692.000,-1.709335
493,693.000,2.127792
494,694.000,2.425444
495,695.000,-5.148179
496,696.000,3.643598
497,697.000,4.830022
498,698.000,6.274356
499,699.000,6.400629
500,700.000,-4.47346
501,701.000,-2.565383
502,702.000,5.359525
503,703.000,0.977332
504,704.000,6.121064
505,705.000,-5.356037
506,706.000,-8.804585
507,707.000,4.126471
508,708.000,4.403583
509,709.000,0.950414
510,710.000,-6.369709
511,711.000,1.557784
512,712.000,-5.444282
513,713.000,-6.623413
514,714.000,7.267441
515,715.000,5.991166
516,716.000,0.584574
517,717.000,-3.164305
518,718.000,-2.436448
519,719.000,7.202426
520,720.000,11.700024
521,721.000,6.1159645000000005
522,722.000,0.531905
523,723.000,11.273896
524,724.000,9.933011
525,725.000,8.592126
526,726.000,4.72015
527,727.000,8.375758
528,728.000,2.388974
529,729.000,7.837589
530,730.000,-0.919118
531,731.000,2.459869
532,732.000,4.940477
533,733.000,-0.442523
534,734.000,-0.144778
535,735.000,-4.70457
536,736.000,2.605097
537,737.000,5.170149
538,738.000,5.692067
539,739.000,3.092243
540,740.000,4.277749
541,741.000,9.588745
542,742.000,1.088348
543,743.000,4.257143
544,744.000,10.738238
545,745.000,2.455513
546,746.000,-1.807131
547,747.000,8.525815
548,748.000,8.145111
549,749.000,4.896271
550,750.000,-2.275049
551,751.000,2.220032
552,752.000,-1.188887
553,753.000,-1.533998
554,754.000,3.722289
555,755.000,4.817108
556,756.000,6.492218
557,757.000,5.667138
558,758.000,-1.855642
559,759.000,7.018303
560,760.000,1.734479
561,761.000,3.54973
562,762.000,2.526378
563,763.000,8.947258
564,764.000,-4.383655
565,765.000,10.015931
566,766.000,6.376582
567,767.000,2.899453
568,768.000,7.911369
569,769.000,0.161881
570,770.000,4.052548
571,771.000,-6.483501
572,772.000,4.12322
573,773.000,14.559085
574,774.000,15.339366
575,775.000,1.443866
576,776.000,10.19254
577,777.000,19.694885
578,778.000,7.40736
579,779.000,17.273096
580,780.000,17.662206
581,781.000,11.398286
582,782.000,17.397196
583,783.000,14.783294
584,784.000,23.707181
585,785.000,26.241315
586,786.000,29.387682
587,787.000,38.71826
588,788.000,37.575118
589,789.000,48.762227
590,790.000,65.619518
591,791.000,68.739332
592,792.000,88.924431
593,793.000,87.04131100000001
594,794.000,85.158191
595,795.000,95.102756
596,796.000,91.328909
597,797.000,93.472699
598,798.000,87.204551
599,799.000,79.079192
600,800.000,57.654962
601,801.000,47.419707
602,802.000,38.594034
603,803.000,39.471671
604,804.000,26.699125
605,805.000,17.564706
606,806.000,30.369479
607,807.000,19.301852
608,808.000,18.412456
609,809.000,16.525108
610,810.000,12.105683
611,811.000,10.590201
612,812.000,19.192719
613,813.000,11.070536
614,814.000,0.725781
615,815.000,8.903718
616,816.000,8.766893
617,817.000,12.5857035
618,818.000,16.404514
619,819.000,18.50085
620,820.000,0.202714
621,821.000,11.730833
622,822.000,-1.167299
623,823.000,6.40597
624,824.000,-5.016778
625,825.000,10.94727
626,826.000,-0.383127
627,827.000,1.173019
628,828.000,6.057881
629,829.000,6.830899
630,830.000,-2.159843
631,831.000,8.047593
632,832.000,9.090267
633,833.000,8.74503
634,834.000,7.678806
635,835.000,-5.711342
636,836.000,5.812936
637,837.000,5.116817
638,838.000,1.514293
639,839.000,-3.18535
640,840.000,-8.2756
641,841.000,2.076395
642,842.000,-2.309334
643,843.000,-10.466124
644,844.000,-10.934373
645,845.000,5.845108
646,846.000,4.262218
647,847.000,10.711447
648,848.000,6.175149
649,849.000,11.86917
650,850.000,-2.545023
651,851.000,11.645365
652,852.000,-1.057047
653,853.000,1.650197
654,854.000,10.150272
655,855.000,1.587116
656,856.000,0.489671
657,857.000,-6.144708
658,858.000,-0.713202
659,859.000,-8.022186
660,860.000,-6.359095
661,861.000,-5.024119
662,862.000,10.087244
663,863.000,6.286432
664,864.000,-0.098654
665,865.000,-9.793183
666,866.000,1.325783
667,867.000,-11.131227
668,868.000,6.145356
669,869.000,2.8215459999999997
670,870.000,-0.502264
671,871.000,8.124902
672,872.000,9.892798
673,873.000,-3.754929
674,874.000,4.395899
675,875.000,5.901193
676,876.000,-1.43258
677,877.000,8.439458
678,878.000,-2.121651
679,879.000,1.179684
680,880.000,1.676986
681,881.000,1.551399
682,882.000,5.217285
683,883.000,-7.402959
684,884.000,-0.36194
685,885.000,2.931772
686,886.000,3.641173
687,887.000,5.233442
688,888.000,13.324957
689,889.000,12.90749
690,890.000,2.940765
691,891.000,-2.031349
692,892.000,-9.575891
693,893.000,9.189005
694,894.000,8.725011
695,895.000,8.04156
696,896.000,4.279425
697,897.000,0.51729
698,898.000,-3.244845
699,899.000,-0.745858
700,900.000,-6.262092
701,901.000,3.732427
702,902.000,4.377229
703,903.000,-2.694602
704,904.000,0.209485
705,905.000,-2.79616
706,906.000,-3.470338
707,907.000,-4.113613
708,908.000,-3.031954
709,909.000,-1.88201
710,910.000,-7.324312
711,911.000,-5.301559
712,912.000,3.149823
713,913.000,6.944429
714,914.000,1.185153
715,915.000,-5.03054
716,916.000,5.669866
717,917.000,-3.508685
718,918.000,-3.847198
719,919.000,0.742533
720,920.000,4.038345
721,921.000,-12.18029
722,922.000,-3.776439
723,923.000,6.195904
724,924.000,1.40284
725,925.000,2.501348
726,926.000,13.470609
727,927.000,7.6047
728,928.000,-1.416706
729,929.000,-1.878341
730,930.000,7.122946
731,931.000,-11.161016
732,932.000,1.761805
733,933.000,11.296506
734,934.000,12.041486
735,935.000,3.648718
736,936.000,5.43665
737,937.000,-2.233283
738,938.000,6.50567
739,939.000,1.069439
740,940.000,3.12425
741,941.000,4.065485
742,942.000,-0.725327
743,943.000,4.432008
744,944.000,2.15492
745,945.000,-2.031912
746,946.000,8.387796
747,947.000,5.094215
748,948.000,16.726306
749,949.000,12.147175
750,950.000,15.528721
751,951.000,8.542514
752,952.000,6.308046
753,953.000,8.93918
754,954.000,7.801323
755,955.000,-2.938919
756,956.000,4.90409
757,957.000,7.337655
758,958.000,1.203667
759,959.000,8.22644
760,960.000,6.502112
761,961.000,16.135141
762,962.000,8.423146
763,963.000,-2.740247
764,964.000,3.810785
765,965.000,6.605471
766,966.000,9.400157
767,967.000,16.008892
768,968.000,4.021877
769,969.000,1.924164
770,970.000,12.420215
771,971.000,15.714025
772,972.000,4.775355
773,973.000,13.159051
774,974.000,13.995142
775,975.000,16.332696
776,976.000,19.509189999999997
777,977.000,22.685684
778,978.000,12.373113
779,979.000,21.315801
780,980.000,32.911385
781,981.000,19.851287
782,982.000,28.280178
783,983.000,30.022612
784,984.000,25.461143
785,985.000,41.102301
786,986.000,32.058778
787,987.000,44.761956
788,988.000,48.385849
789,989.000,65.024765
790,990.000,74.430851
791,991.000,75.896275
792,992.000,104.149384
793,993.000,131.339398
794,994.000,166.707781
795,995.000,192.828643
796,996.000,264.82
797,997.000,357.176753
798,998.000,501.408186
799,999.000,696.593725
800,1000.000,895.503697
801,1001.000,895.3924115
802,1002.000,895.281126
803,1003.000,695.219684
804,1004.000,506.458534
805,1005.000,354.378926
806,1006.000,275.580561
807,1007.000,217.70668
808,1008.000,165.185994
809,1009.000,134.937313
810,1010.000,111.979429
811,1011.000,100.287628
812,1012.000,80.007636
813,1013.000,67.866541
814,1014.000,64.419457
815,1015.000,54.176198
816,1016.000,57.446224
817,1017.000,61.959947
818,1018.000,57.440499
819,1019.000,63.455327
820,1020.000,72.692719
821,1021.000,68.325742
822,1022.000,73.821285
823,1023.000,74.625682
824,1024.000,90.826076
825,1025.000,127.65368
826,1026.000,164.214216
827,1027.000,191.281882
828,1028.000,258.815502
829,1029.000,327.791455
830,1030.000,388.01586
831,1031.000,364.61988166666663
832,1032.000,341.22390333333334
833,1033.000,317.827925
834,1034.000,250.911427
835,1035.000,192.272488
836,1036.000,141.585837
837,1037.000,120.560049
838,1038.000,78.720087
839,1039.000,73.25481
840,1040.000,63.001722
841,1041.000,65.909506
842,1042.000,49.395065
843,1043.000,29.843866
844,1044.000,34.791965
845,1045.000,31.391113
846,1046.000,25.06821
847,1047.000,28.783735
848,1048.000,10.921841
849,1049.000,17.531178
850,1050.000,13.764444
851,1051.000,17.869457
852,1052.000,8.423696
853,1053.000,25.860412
854,1054.000,16.283705
855,1055.000,9.0552
856,1056.000,19.565689
857,1057.000,7.284819
858,1058.000,15.267699
859,1059.000,16.514093
860,1060.000,6.832809
861,1061.000,5.4891305
862,1062.000,4.145452
863,1063.000,5.659216
864,1064.000,5.983998
865,1065.000,8.844061
866,1066.000,10.212278
867,1067.000,7.548991
868,1068.000,8.511107
869,1069.000,4.765011
870,1070.000,7.028319
871,1071.000,12.410049
872,1072.000,-5.588109
873,1073.000,4.019518
874,1074.000,-9.366496
875,1075.000,3.68955
876,1076.000,-1.301617
877,1077.000,1.850146
878,1078.000,-1.114384
879,1079.000,-0.600145
880,1080.000,1.944086
881,1081.000,-1.131272
882,1082.000,3.629763
883,1083.000,5.783773
884,1084.000,15.65582
885,1085.000,10.840166
886,1086.000,3.856322
887,1087.000,4.80547
888,1088.000,2.471573
889,1089.000,5.958301
890,1090.000,-2.95814
891,1091.000,5.778594
892,1092.000,5.098047
893,1093.000,2.194213
894,1094.000,18.787668
895,1095.000,18.387913
896,1096.000,11.263245
897,1097.000,7.773602
898,1098.000,3.274593
899,1099.000,2.38595
900,1100.000,-2.052629
901,1101.000,-1.221493
902,1102.000,3.209575
903,1103.000,-4.570318
904,1104.000,-8.789237
905,1105.000,-0.186374
906,1106.000,11.105062
907,1107.000,5.223721
908,1108.000,1.809029
909,1109.000,5.064703
910,1110.000,11.407226
911,1111.000,1.218168
912,1112.000,6.586871
913,1113.000,-3.98563
914,1114.000,-5.669892
915,1115.000,4.619518
916,1116.000,-10.279335
917,1117.000,2.753087
918,1118.000,9.348211
919,1119.000,-1.229346
920,1120.000,2.755076
921,1121.000,1.246533
922,1122.000,-1.84417
923,1123.000,4.864832
924,1124.000,13.487088
925,1125.000,13.386737
926,1126.000,8.571718
927,1127.000,12.484331
928,1128.000,12.597812
929,1129.000,9.970471
930,1130.000,0.815766
931,1131.000,2.783462
932,1132.000,11.621763
933,1133.000,11.265865
934,1134.000,2.764602
935,1135.000,21.153732
936,1136.000,19.383009
937,1137.000,19.80788
938,1138.000,10.058021
939,1139.000,17.508572
940,1140.000,3.835041
941,1141.000,11.254743
942,1142.000,18.551072
943,1143.000,28.79479
944,1144.000,26.013362
945,1145.000,29.617323
946,1146.000,39.908812
947,1147.000,43.968926
948,1148.000,53.153886
949,1149.000,63.115058
950,1150.000,79.721214
951,1151.000,89.529846
952,1152.000,97.488907
953,1153.000,126.963281
954,1154.000,134.055629
955,1155.000,145.507961
956,1156.000,140.086612
957,1157.000,128.530887
958,1158.000,117.089092
959,1159.000,93.925837
960,1160.000,68.848301
961,1161.000,70.194316
962,1162.000,48.206071
963,1163.000,44.896645
964,1164.000,42.871668
965,1165.000,39.565587
966,1166.000,24.394477
967,1167.000,30.791851
968,1168.000,14.102414
969,1169.000,20.999847
970,1170.000,27.677964
971,1171.000,28.295774
972,1172.000,38.201775
973,1173.000,33.425763
974,1174.000,27.486678
975,1175.000,38.679007
976,1176.000,53.43891
977,1177.000,55.3454
978,1178.000,53.743705
979,1179.000,68.796451
980,1180.000,82.704771
981,1181.000,109.807103
982,1182.000,113.335664
983,1183.000,123.647318
984,1184.000,117.168011
985,1185.000,105.258988
986,1186.000,76.385655
987,1187.000,68.426987
988,1188.000,55.556254
989,1189.000,41.907646
990,1190.000,41.687742
991,1191.000,32.084735
992,1192.000,28.455199
993,1193.000,28.173327
994,1194.000,18.324224
995,1195.000,23.280311
996,1196.000,14.594644
997,1197.000,13.629607
998,1198.000,8.042949
999,1199.000,2.935862
1000,1200.000,6.6836135
1001,1201.000,10.431365
1002,1202.000,14.902411
1003,1203.000,8.625292
1004,1204.000,10.463802
1005,1205.000,5.077281
1006,1206.000,11.556843
1007,1207.000,11.294951
1008,1208.000,20.634042
1009,1209.000,0.886912
1010,1210.000,-4.582543
1011,1211.000,-2.907724
1012,1212.000,0.622003
1013,1213.000,-4.834366
1014,1214.000,5.41351
1015,1215.000,13.763866
1016,1216.000,5.262482
1017,1217.000,5.378935
1018,1218.000,0.678197
1019,1219.000,2.986863
1020,1220.000,3.297183
1021,1221.000,8.1546
1022,1222.000,7.365757
1023,1223.000,-2.775405
1024,1224.000,0.757772
1025,1225.000,6.516444
1026,1226.000,10.008903
1027,1227.000,6.129419
1028,1228.000,7.842914
1029,1229.000,2.990616
1030,1230.000,2.107658
1031,1231.000,15.268759
1032,1232.000,1.8689
1033,1233.000,1.061066
1034,1234.000,-8.250948
1035,1235.000,9.034796
1036,1236.000,-3.237973
1037,1237.000,-2.273138
1038,1238.000,-5.795667
1039,1239.000,8.94455
1040,1240.000,0.525518
1041,1241.000,-4.400442
1042,1242.000,-1.601304
1043,1243.000,-0.265153
1044,1244.000,-7.065965
1045,1245.000,0.5186
1046,1246.000,4.747303
1047,1247.000,-0.548265
1048,1248.000,1.072412
1049,1249.000,-7.809713
1050,1250.000,5.886973
1051,1251.000,-4.722553
1052,1252.000,3.857109
1053,1253.000,7.986541
1054,1254.000,0.412087
1055,1255.000,0.689892
1056,1256.000,9.402753
1057,1257.000,4.357655
1058,1258.000,-1.090609
1059,1259.000,2.238671
1060,1260.000,-1.359289
1061,1261.000,-3.118106
1062,1262.000,5.679368
1063,1263.000,0.731712
1064,1264.000,3.607766
1065,1265.000,-2.298955
1066,1266.000,7.05342
1067,1267.000,-1.227919
1068,1268.000,2.6007345
1069,1269.000,6.429388
1070,1270.000,8.217072
1071,1271.000,-2.924791
1072,1272.000,2.932725
1073,1273.000,-8.212252
1074,1274.000,-15.028187
1075,1275.000,-3.246098
1076,1276.000,-0.146891
1077,1277.000,-5.164701
1078,1278.000,8.316128
1079,1279.000,2.3546460000000007
1080,1280.000,-3.606836
1081,1281.000,-5.50584
1082,1282.000,-1.157807
1083,1283.000,-9.053201
1084,1284.000,3.899063
1085,1285.000,4.245226
1086,1286.000,-1.795549
1087,1287.000,4.66907
1088,1288.000,-2.745806
1089,1289.000,1.538158
1090,1290.000,-2.681305
1091,1291.000,11.048029
1092,1292.000,4.4291835
1093,1293.000,-2.189662
1094,1294.000,0.663445
1095,1295.000,10.449007
1096,1296.000,-1.461725
1097,1297.000,6.53059
1098,1298.000,0.028263
1099,1299.000,6.148879
1100,1300.000,-1.95624
1101,1301.000,-0.369439
1102,1302.000,-4.422352
1103,1303.000,8.916001
1104,1304.000,-2.123043
1105,1305.000,2.686246
1106,1306.000,10.731865
1107,1307.000,-4.106799
1108,1308.000,4.653162
1109,1309.000,-1.70277
1110,1310.000,1.122935
1111,1311.000,-1.769123
1112,1312.000,-8.219845
1113,1313.000,-3.93292
1114,1314.000,-5.023869
1115,1315.000,3.012632
1116,1316.000,1.710753
1117,1317.000,-1.2802
1118,1318.000,4.724082
1119,1319.000,14.247745
1120,1320.000,-1.067142
1121,1321.000,2.026946
1122,1322.000,1.110334
1123,1323.000,3.031422
1124,1324.000,-8.958275
1125,1325.000,-2.252521
1126,1326.000,-2.32677
1127,1327.000,1.772941
1128,1328.000,10.52538
1129,1329.000,-7.813561
1130,1330.000,5.252278
1131,1331.000,5.175859
1132,1332.000,-2.279449
1133,1333.000,-6.381096
1134,1334.000,3.138388
1135,1335.000,-3.893057
1136,1336.000,2.685016
1137,1337.000,3.56486
1138,1338.000,-0.06503
1139,1339.000,0.424382
1140,1340.000,-3.379687
1141,1341.000,-8.592529
1142,1342.000,12.291817
1143,1343.000,5.697745
1144,1344.000,10.76128
1145,1345.000,3.552287
1146,1346.000,-11.91007
1147,1347.000,1.204611
1148,1348.000,0.037059
1149,1349.000,2.739757
1150,1350.000,3.597432
1151,1351.000,-2.84716
1152,1352.000,-8.483973
1153,1353.000,0.929579
1154,1354.000,-3.528774
1155,1355.000,1.885087
1156,1356.000,-4.25936
1157,1357.000,4.841583
1158,1358.000,11.038788
1159,1359.000,1.983588
1160,1360.000,-1.101741
1161,1361.000,4.52414
1162,1362.000,5.047303
1163,1363.000,3.100765
1164,1364.000,1.154227
1165,1365.000,4.688757
1166,1366.000,1.669213
1167,1367.000,-2.097686
1168,1368.000,6.26433
1169,1369.000,6.64467
1170,1370.000,6.415118
1171,1371.000,2.24359
1172,1372.000,-8.557385
1173,1373.000,9.580754
1174,1374.000,-3.394126
1175,1375.000,10.707303
1176,1376.000,8.323309
1177,1377.000,-1.1222
1178,1378.000,5.410612
1179,1379.000,1.846146
1180,1380.000,0.626064
1181,1381.000,7.959225
1182,1382.000,11.519701
1183,1383.000,10.139751
1184,1384.000,0.251105
1185,1385.000,2.88948
1186,1386.000,5.221821
1187,1387.000,-6.607427
1188,1388.000,8.430149
1189,1389.000,13.065493
1190,1390.000,3.207461
1191,1391.000,14.893264
1192,1392.000,-3.683558
1193,1393.000,4.268998
1194,1394.000,3.994787
1195,1395.000,10.242553
1196,1396.000,10.639668
1197,1397.000,5.800772
1198,1398.000,-5.089512
1199,1399.000,-5.979223
1200,1400.000,7.747054
1201,1401.000,-2.214002
1202,1402.000,10.361238
1203,1403.000,15.010808
1204,1404.000,-1.35755
1205,1405.000,5.033462
1206,1406.000,4.801101
1207,1407.000,13.198978
1208,1408.000,5.468625
1209,1409.000,16.356664
1210,1410.000,0.461966
1211,1411.000,0.631148
1212,1412.000,3.649605
1213,1413.000,16.036442
1214,1414.000,7.906816
1215,1415.000,7.548991
1216,1416.000,19.218018
1217,1417.000,5.938488
1218,1418.000,7.402244
1219,1419.000,11.485743
1220,1420.000,12.158438
1221,1421.000,11.348363
1222,1422.000,25.176182
1223,1423.000,18.940764
1224,1424.000,21.449021
1225,1425.000,24.539783
1226,1426.000,15.67035
1227,1427.000,18.883004
1228,1428.000,18.5320075
1229,1429.000,18.181011
1230,1430.000,17.642749
1231,1431.000,24.970831
1232,1432.000,35.474863
1233,1433.000,23.002048
1234,1434.000,32.227311
1235,1435.000,50.564355
1236,1436.000,43.301815
1237,1437.000,51.997251
1238,1438.000,60.348551
1239,1439.000,60.824705
1240,1440.000,61.640284
1241,1441.000,80.7519995
1242,1442.000,99.863715
1243,1443.000,110.1480255
1244,1444.000,120.432336
1245,1445.000,140.622941
1246,1446.000,174.390958
1247,1447.000,177.979609
1248,1448.000,205.28534
1249,1449.000,215.970951
1250,1450.000,213.843602
1251,1451.000,208.343972
1252,1452.000,204.742168
1253,1453.000,185.468065
1254,1454.000,161.801079
1255,1455.000,145.177331
1256,1456.000,128.45808
1257,1457.000,111.454543
1258,1458.000,97.840552
1259,1459.000,91.375995
1260,1460.000,68.215978
1261,1461.000,59.376869
1262,1462.000,60.547711
1263,1463.000,52.991629
1264,1464.000,45.013759500000006
1265,1465.000,37.03589
1266,1466.000,46.326169
1267,1467.000,35.194308
1268,1468.000,31.572441
1269,1469.000,28.902458
1270,1470.000,23.344483
1271,1471.000,10.395817
1272,1472.000,14.729795
1273,1473.000,23.210013
1274,1474.000,24.873783
1275,1475.000,11.595735
1276,1476.000,19.407147
1277,1477.000,18.192419
1278,1478.000,21.094153
1279,1479.000,22.209999
1280,1480.000,12.799099
1281,1481.000,11.446332
1282,1482.000,11.604399
1283,1483.000,16.918692
1284,1484.000,7.797986
1285,1485.000,6.482251
1286,1486.000,14.554823
1287,1487.000,5.465038
1288,1488.000,12.887977
1289,1489.000,3.711936
1290,1490.000,3.577143
1291,1491.000,11.094704
1292,1492.000,8.128873
1293,1493.000,7.659797
1294,1494.000,5.036608
1295,1495.000,-0.115983
1296,1496.000,5.735498
1297,1497.000,0.497176
1298,1498.000,2.324382
1299,1499.000,2.300867
1300,1500.000,2.660544
1301,1501.000,2.190865
1302,1502.000,14.70701
1303,1503.000,3.686677
1304,1504.000,-0.721292
1305,1505.000,3.680865
1306,1506.000,-3.033981
1307,1507.000,-7.208164
1308,1508.000,0.177131
1309,1509.000,2.566835
1310,1510.000,-3.34264
1311,1511.000,8.14705
1312,1512.000,7.082146
1313,1513.000,-4.542238
1314,1514.000,6.333011
1315,1515.000,0.313591
1316,1516.000,2.39808
1317,1517.000,1.469354
1318,1518.000,9.181918
1319,1519.000,4.61804
1320,1520.000,7.353337
1321,1521.000,8.950146
1322,1522.000,4.775046
1323,1523.000,7.523217
1324,1524.000,4.167463
1325,1525.000,0.355316
1326,1526.000,-3.228065
1327,1527.000,11.123941
1328,1528.000,7.217707
1329,1529.000,4.287738
1330,1530.000,0.800589
1331,1531.000,2.57876
1332,1532.000,6.115381
1333,1533.000,5.031094
1334,1534.000,8.329539
1335,1535.000,5.386772
1336,1536.000,-7.360027
1337,1537.000,0.401195
1338,1538.000,5.13766
1339,1539.000,8.81848
1340,1540.000,-0.281459
1341,1541.000,4.373078
1342,1542.000,11.277461
1343,1543.000,1.669718
1344,1544.000,14.894344
1345,1545.000,-1.529925
1346,1546.000,6.52365
1347,1547.000,9.500487
1348,1548.000,2.497918
1349,1549.000,4.699582
1350,1550.000,4.53048
1351,1551.000,0.098517
1352,1552.000,23.622628
1353,1553.000,12.544371
1354,1554.000,16.883808
1355,1555.000,9.03516
1356,1556.000,14.555326
1357,1557.000,17.189802
1358,1558.000,11.806309
1359,1559.000,7.240985
1360,1560.000,14.395339
1361,1561.000,26.085674
1362,1562.000,21.901187
1363,1563.000,11.578254
1364,1564.000,16.863719
1365,1565.000,17.574343
1366,1566.000,23.375526999999998
1367,1567.000,29.176711
1368,1568.000,20.292497
1369,1569.000,25.76619
1370,1570.000,40.968274
1371,1571.000,39.52673
1372,1572.000,43.449058
1373,1573.000,58.597412
1374,1574.000,55.664265
1375,1575.000,66.168738
1376,1576.000,76.32843
1377,1577.000,88.842931
1378,1578.000,119.600989
1379,1579.000,143.148431
1380,1580.000,170.13116
1381,1581.000,181.245293
1382,1582.000,216.497285
1383,1583.000,221.876707
1384,1584.000,225.623776
1385,1585.000,211.576444
1386,1586.000,186.350586
1387,1587.000,161.843727
1388,1588.000,150.998498
1389,1589.000,144.8023235
1390,1590.000,138.606149
1391,1591.000,140.152645
1392,1592.000,140.953724
1393,1593.000,145.236292
1394,1594.000,150.341561
1395,1595.000,183.303328
1396,1596.000,210.616319
1397,1597.000,262.976832
1398,1598.000,329.088563
1399,1599.000,411.992519
1400,1600.000,517.31132
1401,1601.000,596.253879
1402,1602.000,593.37195
1403,1603.000,590.490021
1404,1604.000,505.046195
1405,1605.000,401.537725
1406,1606.000,319.824129
1407,1607.000,260.012974
1408,1608.000,199.520572
1409,1609.000,156.216897
1410,1610.000,131.028675
1411,1611.000,93.466296
1412,1612.000,85.565184
1413,1613.000,77.962634
1414,1614.000,56.350654
1415,1615.000,52.806933
1416,1616.000,47.136046
1417,1617.000,59.597382
1418,1618.000,45.942618
1419,1619.000,29.056532
1420,1620.000,33.586253
1421,1621.000,30.545031
1422,1622.000,17.080988
1423,1623.000,19.241897
1424,1624.000,24.714668
1425,1625.000,22.954309
1426,1626.000,26.630287
1427,1627.000,25.693714
1428,1628.000,15.268654
1429,1629.000,4.843594
1430,1630.000,19.09371
1431,1631.000,16.438599
1432,1632.000,11.85349
1433,1633.000,24.826178
1434,1634.000,14.313299
1435,1635.000,1.936841
1436,1636.000,11.469911
1437,1637.000,4.56966
1438,1638.000,13.808455
1439,1639.000,17.379298
1440,1640.000,-1.069707
1441,1641.000,9.690779
1442,1642.000,5.715996
1443,1643.000,0.7513385000000001
1444,1644.000,-4.213319
1445,1645.000,3.371895
1446,1646.000,-3.663361
1447,1647.000,9.01497
1448,1648.000,2.687283
1449,1649.000,-0.535239
1450,1650.000,7.612934
1451,1651.000,8.542403
1452,1652.000,4.649158
1453,1653.000,-0.120973
1454,1654.000,7.582293
1455,1655.000,3.217423
1456,1656.000,14.25397
1457,1657.000,3.345052
1458,1658.000,4.422919
1459,1659.000,-4.384954
1460,1660.000,3.231226
1461,1661.000,13.818817
1462,1662.000,16.26074
1463,1663.000,4.018922
1464,1664.000,-0.626272
1465,1665.000,14.410809
1466,1666.000,4.298997
1467,1667.000,8.194131
1468,1668.000,1.606433
1469,1669.000,-5.500414
1470,1670.000,11.942483
1471,1671.000,6.731645
1472,1672.000,6.918436
1473,1673.000,3.809076
1474,1674.000,-4.935026
1475,1675.000,13.737749
1476,1676.000,11.906653
1477,1677.000,3.377445
1478,1678.000,19.74453
1479,1679.000,8.865029
1480,1680.000,4.372675
1481,1681.000,-0.564576
1482,1682.000,-3.289411
1483,1683.000,-4.47722
1484,1684.000,1.939081
1485,1685.000,-1.843909
1486,1686.000,5.39034
1487,1687.000,1.927564
1488,1688.000,13.342279
1489,1689.000,-4.25788
1490,1690.000,1.592347
1491,1691.000,5.851118
1492,1692.000,0.03197
1493,1693.000,-0.219072
1494,1694.000,-7.583026
1495,1695.000,7.788286
1496,1696.000,8.690801
1497,1697.000,-2.720163
1498,1698.000,12.149713
1499,1699.000,6.786843
1500,1700.000,9.79224
1501,1701.000,-1.814351
1502,1702.000,7.356839
1503,1703.000,2.1135685000000004
1504,1704.000,-3.129702
1505,1705.000,-3.747352
1506,1706.000,6.364208
1507,1707.000,-2.007775
1508,1708.000,-2.494123
1509,1709.000,3.422805
1510,1710.000,0.000389
1511,1711.000,-0.572044
1512,1712.000,-4.328431
1513,1713.000,8.423653
1514,1714.000,-5.361219
1515,1715.000,3.69345
1516,1716.000,-0.621475
1517,1717.000,1.748707
1518,1718.000,-1.976979
1519,1719.000,0.9605885000000001
1520,1720.000,3.898156
1521,1721.000,1.54435
1522,1722.000,13.257668
1523,1723.000,-2.699263
1524,1724.000,4.987956
1525,1725.000,-7.10579
1526,1726.000,12.801589
1527,1727.000,9.127598
1528,1728.000,-5.405389
1529,1729.000,-0.233479
1530,1730.000,-5.875765
1531,1731.000,-3.977826
1532,1732.000,-11.455857
1533,1733.000,-0.849906
1534,1734.000,3.107601
1535,1735.000,-2.159988
1536,1736.000,7.097723
1537,1737.000,-2.119945
1538,1738.000,2.013611
1539,1739.000,-6.286773
1540,1740.000,-3.871338
1541,1741.000,4.539245
1542,1742.000,4.659637
1543,1743.000,-3.923904
1544,1744.000,-3.581023
1545,1745.000,-1.741874
1546,1746.000,-2.941092
1547,1747.000,-1.950297
1548,1748.000,-0.273114
1549,1749.000,3.141919
1550,1750.000,7.978616
1551,1751.000,0.677615
1552,1752.000,7.503267
1553,1753.000,-2.641194
1554,1754.000,0.070402
1555,1755.000,4.948615
1556,1756.000,-2.399687
1557,1757.000,-1.449546
1558,1758.000,4.981715
1559,1759.000,0.98705
1560,1760.000,5.890294
1561,1761.000,7.10161
1562,1762.000,-4.814613
1563,1763.000,-1.346983
1564,1764.000,2.144415
1565,1765.000,-4.134908
1566,1766.000,7.051379
1567,1767.000,-2.353054
1568,1768.000,3.595393
1569,1769.000,9.381572
1570,1770.000,-1.266693
1571,1771.000,2.791677
1572,1772.000,1.735418
1573,1773.000,4.693222
1574,1774.000,0.556004
1575,1775.000,9.109246
1576,1776.000,2.90892
1577,1777.000,1.314975
1578,1778.000,-1.073032
1579,1779.000,0.636957
1580,1780.000,-1.01403
1581,1781.000,-7.793313
1582,1782.000,9.972628
1583,1783.000,0.385756
1584,1784.000,12.237822
1585,1785.000,10.320788
1586,1786.000,-3.01978
1587,1787.000,0.192978
1588,1788.000,9.043631
1589,1789.000,0.81424
1590,1790.000,-2.923576
1591,1791.000,-5.728055
1592,1792.000,-6.118564
1593,1793.000,-4.272842
1594,1794.000,6.467623
1595,1795.000,-2.75253
1596,1796.000,1.031931
1597,1797.000,10.970489
1598,1798.000,7.8734
1599,1799.000,5.940315
1600,1800.000,11.875839
1601,1801.000,-2.421924
1602,1802.000,-0.828176
1603,1803.000,-5.074948
1604,1804.000,10.524592
1605,1805.000,-3.014465
1606,1806.000,2.140626
1607,1807.000,7.885303
1608,1808.000,0.126289
1609,1809.000,2.580604
1610,1810.000,1.56636
1611,1811.000,-5.953981
1612,1812.000,12.173571
1613,1813.000,1.960353
1614,1814.000,0.35047
1615,1815.000,5.797564
1616,1816.000,-2.479422
1617,1817.000,0.9130734999999999
1618,1818.000,4.305569
1619,1819.000,5.730339
1620,1820.000,10.954669
1621,1821.000,-0.651281
1622,1822.000,-3.170817
1623,1823.000,-4.917306
1624,1824.000,2.273536
1625,1825.000,11.245107
1626,1826.000,-0.543319
1627,1827.000,3.434027
1628,1828.000,6.922764
1629,1829.000,-3.548208
1630,1830.000,-3.263627
1631,1831.000,8.532498
1632,1832.000,-5.754302
1633,1833.000,-1.562751
1634,1834.000,3.944291
1635,1835.000,0.140072
1636,1836.000,7.388344
1637,1837.000,6.879041
1638,1838.000,5.368237
1639,1839.000,-3.916393
1640,1840.000,-6.411403
1641,1841.000,-1.161544
1642,1842.000,-3.481019
1643,1843.000,-2.779431
1644,1844.000,-5.131511
1645,1845.000,3.456289
1646,1846.000,-5.681732
1647,1847.000,2.076903
1648,1848.000,2.950444
1649,1849.000,2.538044
1650,1850.000,-8.277026
1651,1851.000,12.856183
1652,1852.000,2.017341
1653,1853.000,4.840608
1654,1854.000,-2.399528
1655,1855.000,0.873671
1656,1856.000,0.91764
1657,1857.000,0.541504
1658,1858.000,4.140287
1659,1859.000,9.098711
1660,1860.000,2.042014
1661,1861.000,-3.646582
1662,1862.000,-2.59048
1663,1863.000,3.217618
1664,1864.000,1.839515
1665,1865.000,-8.553414
1666,1866.000,-3.400164
1667,1867.000,0.637221
1668,1868.000,-8.317534
1669,1869.000,-1.61967
1670,1870.000,2.917072
1671,1871.000,13.286716
1672,1872.000,-10.537169
1673,1873.000,1.422235
1674,1874.000,-0.176023
1675,1875.000,0.887077
1676,1876.000,-5.404653
1677,1877.000,14.270923
1678,1878.000,1.428951
1679,1879.000,-9.978884
1680,1880.000,-3.341019
1681,1881.000,2.397362
1682,1882.000,5.05364
1683,1883.000,-3.165426
1684,1884.000,7.3986
1685,1885.000,7.403623
1686,1886.000,5.98597
1687,1887.000,4.568317
1688,1888.000,-6.867391
1689,1889.000,-2.593946
1690,1890.000,-6.528267
1691,1891.000,4.089796
1692,1892.000,15.7374
1693,1893.000,6.171358999999999
1694,1894.000,-3.394682
1695,1895.000,-1.958906
1696,1896.000,-2.904812
1697,1897.000,1.77102
1698,1898.000,-5.046161
1699,1899.000,-8.448635
1700,1900.000,-6.728582
1701,1901.000,3.474144
1702,1902.000,-6.316354
1703,1903.000,-4.030627
1704,1904.000,4.875855
1705,1905.000,-8.527812
1706,1906.000,-4.950651
1707,1907.000,2.079914
1708,1908.000,-4.519657
1709,1909.000,8.666186
1710,1910.000,-5.929145
1711,1911.000,-3.998962
1712,1912.000,-5.484952
1713,1913.000,-11.79384
1714,1914.000,0.058062
1715,1915.000,-1.991268
1716,1916.000,-10.135474
1717,1917.000,-0.253501
1718,1918.000,-8.205107
1719,1919.000,9.3757
1720,1920.000,6.523293
1721,1921.000,-3.681533
1722,1922.000,8.089173
1723,1923.000,3.857005
1724,1924.000,2.377619
1725,1925.000,7.507674
1726,1926.000,-2.092955
1727,1927.000,5.502261
1728,1928.000,9.663266
1729,1929.000,3.057743
1730,1930.000,1.998567
1731,1931.000,4.440172
1732,1932.000,11.940405
1733,1933.000,9.088078
1734,1934.000,6.235751
1735,1935.000,-5.758948
1736,1936.000,2.773052
1737,1937.000,-3.181501
1738,1938.000,-2.983895
1739,1939.000,-5.645193
1740,1940.000,1.342846
1741,1941.000,1.031975
1742,1942.000,-2.44357
1743,1943.000,-3.320437
1744,1944.000,-1.251363
1745,1945.000,-6.632413
1746,1946.000,-1.3823474999999998
1747,1947.000,3.867718
1748,1948.000,0.26756350000000007
1749,1949.000,-3.332591
1750,1950.000,-2.654902
1751,1951.000,-6.855801
1752,1952.000,-5.905978
1753,1953.000,-9.217785
1754,1954.000,7.137813
1755,1955.000,-6.157354
1756,1956.000,4.598441
1757,1957.000,9.442425
1758,1958.000,4.414602
1759,1959.000,2.705488
1760,1960.000,-3.516972
1761,1961.000,0.548766
1762,1962.000,-3.387414
1763,1963.000,1.968747
1764,1964.000,-5.361862
1765,1965.000,9.988709
1766,1966.000,11.343824
1767,1967.000,-3.011286
1768,1968.000,-1.118472
1769,1969.000,-7.420565
1770,1970.000,-7.834017
1771,1971.000,3.744561
1772,1972.000,-0.39309
1773,1973.000,-6.759132
1774,1974.000,-5.509123
1775,1975.000,5.692971
1776,1976.000,8.939406
1777,1977.000,-4.459196
1778,1978.000,-5.594122
1779,1979.000,-3.863762
1780,1980.000,4.788931
1781,1981.000,4.207781
1782,1982.000,2.420799
1783,1983.000,-0.795318
1784,1984.000,-6.238757
1785,1985.000,2.087215
1786,1986.000,0.425392
1787,1987.000,13.164932
1788,1988.000,-0.332849
1789,1989.000,-3.655971
1790,1990.000,-2.65527
1791,1991.000,-0.567343
1792,1992.000,-3.401187
1793,1993.000,-4.259045
1794,1994.000,-0.374828
1795,1995.000,8.181832
1796,1996.000,11.248882
1797,1997.000,0.154564
1798,1998.000,1.135127
1799,1999.000,7.766333
1800,2000.000,4.997857
