pixel_index,raman_shift_cm-1,intensity
0,-227.07541099402548,0.05468837796224509
1,-224.00086937835948,0.07414779606687578
2,-220.92754621666617,0.08412183386463261
3,-217.8554409116803,0.08699201748722457
4,-214.7845528665095,0.08513987306636062
5,-211.7148814846431,0.0809469267337497
6,-208.64642616993686,0.08001720791266743
7,-205.57918632661517,0.08597294817881342
8,-202.51316135927758,0.0883472957691362
9,-199.4483506729031,0.09226131978412153
10,-196.3847536728394,0.08946311810944158
11,-193.3223697648005,0.08238417659545762
12,-190.26119835488217,0.07661186864490359
13,-187.20123884953577,0.07484413961662977
14,-184.14249065560512,0.061817852237110026
15,-181.08495318027883,0.04989013313684511
16,-178.02862583113583,0.04980269369932753
17,-174.973508016128,0.058291431151030804
18,-171.91959914354769,0.05811140920620162
19,-168.86689862209053,0.059604647966468124
20,-165.8154058608056,0.059623620003218476
21,-162.7651202691107,0.06333102478897472
22,-159.7160412567986,0.0656808053793397
23,-156.66816823401135,0.0657653643590762
24,-153.62150061129205,0.06401773183153829
25,-150.5760377995178,0.0649927436708192
26,-147.5317792099559,0.06929829384504313
27,-144.48872425422724,0.07112225076435158
28,-141.44687234433863,0.06983180250053184
29,-138.40622289263294,0.07004007183667803
30,-135.36677531184557,0.06317872863996378
31,-132.32852901506322,0.06078886005796173
32,-129.29148341574984,0.05368594614962458
33,-126.25563792772716,0.050663202724533035
34,-123.22099196517911,0.05532619843282014
35,-120.187544942656,0.05362751392613486
36,-117.15529627508333,0.058024191744757314
37,-114.12424537774,0.059631478155689595
38,-111.09439166626491,0.06353712542928998
39,-108.06573455668291,0.06507810790289173
40,-105.03827346534196,0.06498721850172484
41,-102.01200780900199,0.06603733570196021
42,-98.9869370047439,0.06268278358187986
43,-95.96306047003883,0.06627312745865092
44,-92.94037762270493,0.0675738825578501
45,-89.9188878809268,0.06266311389133469
46,-86.8985906632468,0.061966102132095496
47,-83.87948538858895,0.06081981931927315
48,-80.86157147619818,0.05887456156447888
49,-77.84484834572058,0.05978585445681318
50,-74.82931541714704,0.06197994204751774
51,-71.81497211081319,0.057729503061785044
52,-68.80181784744282,0.051739249268117696
53,-65.7898520481045,0.05530878190653256
54,-62.77907413421591,0.04799563161613952
55,-59.769483527580704,0.04667008247966638
56,-56.76107965033213,0.0476433491505018
57,-53.753861924989415,0.04926673185878911
58,-50.74782977439922,0.04926701449646181
59,-47.74298262179635,0.046978068723886476
60,-44.73931989076255,0.04162551648764719
61,-41.73684100522001,0.0509539627947957
62,-38.73554538947254,0.08578837429256055
63,-35.73543246816876,0.12791788336271825
64,-32.73650166631288,0.15225361843522017
65,-29.738752409275584,0.1680883992909029
66,-26.742184122767984,0.16703707711889054
67,-23.746796232869837,0.1504652804963293
68,-20.752588166005665,0.12847353590921165
69,-17.759559348966455,0.09131941219913765
70,-14.767709208896637,0.056439417510480656
71,-11.77703717327892,0.04356827889631541
72,-8.787542669977649,0.0481179037976097
73,-5.799225127184598,0.05029531472780283
74,-2.8120839734580017,0.05199073205616377
75,0.1738813622904553,0.050789378442139266
76,3.1586714507956386,0.05725808377026287
77,6.142286862438964,0.06004732692611058
78,9.124728167252735,0.07185561885779926
79,12.105995934922307,0.07418897409545978
80,15.086090734764412,0.06701410209091317
81,18.06501313575317,0.06608547842157896
82,21.0427637065266,0.057563843401074524
83,24.01934301533891,0.05169960381761791
84,26.994751630119058,0.04905900364347791
85,29.9689901184382,0.04596157732228303
86,32.94205904751406,0.0524995202309174
87,35.91395898421305,0.04997899994540952
88,38.88469049505901,0.05358826256659037
89,41.85425414622015,0.0510368467124916
90,44.82265050351339,0.041308887643179276
91,47.78988013242171,0.04917687082619296
92,50.755943598057314,0.048202963431320626
93,53.72084146519629,0.05361704488483171
94,56.68457429826995,0.05614298365012423
95,59.64714266135616,0.05919481460756176
96,62.60854711817284,0.06282251250874855
97,65.56878823211912,0.06016474067648891
98,68.52786656621905,0.057766440619619455
99,71.48578268316918,0.06013246779947506
100,74.44253714531268,0.06142569128503277
101,77.39813051463491,0.061995852517668586
102,80.35256335279811,0.0666642278287009
103,83.30583622110028,0.06915236099099796
104,86.25794968049891,0.06651254797445531
105,89.20890429161112,0.061800765744800513
106,92.15870061470054,0.05712372663894595
107,95.10733920969905,0.051757003262722576
108,98.05482063617856,0.0474325979202598
109,101.00114545337274,0.05012089514693083
110,103.94631422017478,0.049421631262493534
111,106.89032749514179,0.04993125505844325
112,109.83318583646226,0.059010739626218854
113,112.77488980200373,0.06340370054094374
114,115.71543994928464,0.06260220798615752
115,118.65483683548084,0.0574639404428988
116,121.59308101742988,0.05346799515769262
117,124.5301730516137,0.04929873430766653
118,127.46611349418032,0.04628014116247109
119,130.4009029009503,0.04525323971456976
120,133.33454182738433,0.04725057204057261
121,136.26703082860251,0.05067338564712577
122,139.19837045939548,0.05354821822017167
123,142.12856127420469,0.05535881144375864
124,145.05760382714203,0.05851996893631161
125,147.98549867196158,0.0574360346320894
126,150.91224636209435,0.054721656949214326
127,153.83784745061575,0.05452363023755989
128,156.76230249028885,0.051729257017997465
129,159.6856120335082,0.04787901755381325
130,162.60777663234518,0.04735285835884521
131,165.52879683853513,0.04005860662221823
132,168.44867320345986,0.036005180076411084
133,171.36740627818034,0.035700525082010014
134,174.28499661341704,0.04248372737377032
135,177.20144475954353,0.044888678126755684
136,180.11675126660808,0.0450387381304435
137,183.03091668430773,0.046847547428242466
138,185.9439415620185,0.04519408003273453
139,188.85582644877394,0.04459151110444937
140,191.76657189327136,0.04797090826060763
141,194.67617844386555,0.04710531843871982
142,197.58464664858818,0.04457607994704673
143,200.49197705513484,0.04905148094485841
144,203.3981702108433,0.05257102810515486
145,206.30322666275205,0.05356094566974384
146,209.20714695754194,0.0548024164889789
147,212.1099316415684,0.056495290158888045
148,215.01158126084218,0.060529772969681886
149,217.91209636105955,0.060818919078435056
150,220.8114774875612,0.060235506442068903
151,223.70972518537346,0.05966218831769561
152,226.60683999917555,0.04946476713079906
153,229.50282247332592,0.0464968535920328
154,232.39767315183815,0.04268137659032668
155,235.29139257841368,0.0411159391628485
156,238.18398129639385,0.0411427208825176
157,241.07543984881437,0.046267341679715614
158,243.9657687783596,0.05180177045543523
159,246.85496862740607,0.04951072467425014
160,249.74303993797454,0.05076039951515178
161,252.62998325176721,0.053269232082930114
162,255.5157991101587,0.05133331126385486
163,258.40048805418536,0.04756727992137593
164,261.28405062456926,0.046575905345384055
165,264.1664873616724,0.04667715955000742
166,267.04779880557277,0.04614738001646664
167,269.927985495971,0.05183959151782986
168,272.8070479722706,0.05517710822830963
169,275.68498677353483,0.06005691191886042
170,278.56180243851026,0.06856905106178346
171,281.4374955055943,0.07707467988581895
172,284.31206651287863,0.08193495249764803
173,287.1855159981124,0.07907802507142672
174,290.05784449872596,0.0711185390954663
175,292.9290525518157,0.06329410345049304
176,295.79914069415923,0.05257373407680846
177,298.6681094621982,0.048083693041604265
178,301.5359593920596,0.046126845572487696
179,304.4026910195281,0.048326933733764
180,307.2683048800846,0.045466100427453644
181,310.1328015088674,0.050517626278150186
182,312.9961814407004,0.05023344356308669
183,315.8584452100628,0.044546937053678556
184,318.7195933511367,0.04382507329003031
185,321.5796263977551,0.0447204457133469
186,324.43854488344937,0.04786589676877348
187,327.29634934140427,0.05280344738392015
188,330.15304030450073,0.057259858323714476
189,333.00861830528163,0.05869543005528515
190,335.86308387597524,0.05810938736089907
191,338.7164375484824,0.0622714834439466
192,341.56867985437896,0.05593519806907014
193,344.41981132492816,0.04955909251181863
194,347.26983249105945,0.05147837329382213
195,350.11874388339237,0.046987767138950066
196,352.96654603221003,0.0432150826246677
197,355.8132394674879,0.0339484648847768
198,358.6588247188739,0.031345158416933076
199,361.50330231568853,0.032982039009479276
200,364.34667278694656,0.034212705130191715
201,367.18893666132885,0.03552011384054802
202,370.0300944672039,0.03685430172396447
203,372.87014673262166,0.040888195353399145
204,375.70909398528926,0.04821300096146321
205,378.54693675263206,0.05150106086787464
206,381.38367556173273,0.04771306101037682
207,384.2193109393596,0.04490941959468967
208,387.0538434119536,0.04594625411860242
209,389.8872735056541,0.04389559682877238
210,392.71960174626884,0.042637771407694036
211,395.5508286592954,0.04512049077982897
212,398.38095476991055,0.04313344725775668
213,401.2099806029678,0.03983252561861266
214,404.03790668301065,0.04190420809411522
215,406.86473353426834,0.04252877586758748
216,409.6904616806424,0.04241401045332839
217,412.5150916457266,0.045257043558328505
218,415.33862395279385,0.047135910702897896
219,418.1610591248025,0.04524444937906541
220,420.98239768439873,0.04731000145008352
221,423.80264015390344,0.050110060199227736
222,426.62178705533177,0.046117121359910626
223,429.43983891038016,0.04411604044557043
224,432.25679624043056,0.039019089164807896
225,435.07265956654624,0.036913213437490815
226,437.88742940947594,0.03455092551926523
227,440.70110628967143,0.036945003532372386
228,443.5136907272397,0.04248835513881193
229,446.3251832420058,0.04253767349163994
230,449.13558435346084,0.0402988033190919
231,451.9448945807859,0.039310664517349006
232,454.75311444285626,0.03824927841405859
233,457.5602444582285,0.03498295881078682
234,460.36628514514473,0.029978006308315316
235,463.1712370215392,0.030303938063152094
236,465.975100605036,0.028891227244312496
237,468.77787641294276,0.03056945988709055
238,471.5795649622568,0.031333401230822136
239,474.3801667696657,0.029942340937479106
240,477.17968235154234,0.031192557321119356
241,479.9781122239474,0.028722308106024837
242,482.7754569026446,0.028327097197007167
243,485.57171690307007,0.029715478432907255
244,488.366892740363,0.03282915825805764
245,491.1609849293417,0.025227771024435016
246,493.95399398452065,0.0
247,496.7459204201002,0.07324754124518118
248,499.5367647499835,0.31760577199767137
249,502.3265274877527,0.6140169421854182
250,505.1152091466843,0.8488191205592849
251,507.90281023974916,0.9769388945203231
252,510.68933127960787,1.0
253,513.4747727786088,0.9064946815538943
254,516.2591352488033,0.7131433102354334
255,519.042419201924,0.4432528199057829
256,521.8246251493955,0.15656857558058376
257,524.6057536023563,0.01140123249059488
258,527.3858050716087,0.018825536163900976
259,530.164780067669,0.04826765957028269
260,532.9426791007386,0.05757692485183368
261,535.7195026807113,0.05946014605638362
262,538.4952513171797,0.061886141898863274
263,541.269925519428,0.05245618014533093
264,544.0435257964417,0.0425697543800167
265,546.816052656887,0.0466906503429992
266,549.5875066091377,0.04585855343642479
267,552.3578881612575,0.046918153200898614
268,555.1271978210065,0.044923275650141786
269,557.8954360958431,0.04188901925916257
270,560.6626034929227,0.04574256796024715
271,563.4287005190837,0.041545490445108184
272,566.1937276808738,0.04089712507407436
273,568.9576854845378,0.0329142314936317
274,571.7205744360139,0.027439176089686303
275,574.4823950409286,0.03891909039319528
276,577.24314780462,0.04415527694187047
277,580.0028332321244,0.03909253762672144
278,582.7614518281554,0.03600468791832479
279,585.5190040971511,0.03446704973927488
280,588.2754905432241,0.039425783211212775
281,591.03091167021,0.03938978534485653
282,593.7852679816207,0.042119701960046205
283,596.5385599806779,0.0381312083109241
284,599.2907881702974,0.037316631676757805
285,602.0419530531067,0.0364950961478371
286,604.7920551314188,0.037223721061822104
287,607.5410949072497,0.029793355743187623
288,610.2890728823161,0.028509574254783673
289,613.0359895580419,0.03228154767679855
290,615.7818454355433,0.03663773337465448
291,618.5266410156394,0.038480524044368546
292,621.270376798854,0.033829662965054685
293,624.0130532853992,0.033901451189511295
294,626.754670975207,0.032492354710309854
295,629.4952303678996,0.0300853249239086
296,632.2347319627996,0.029594762445749597
297,634.9731762589437,0.029671704795535016
298,637.7105637550605,0.029400187275645168
299,640.4468949495773,0.03361811992373942
300,643.1821703406396,0.033115964521116495
301,645.9163904260802,0.03234859452510996
302,648.6495557034375,0.03170736544373905
303,651.3816666699701,0.04399901231374789
304,654.1127238226196,0.05339412642466718
305,656.8427276580353,0.0581773623175875
306,659.5716786725867,0.05902318935297043
307,662.2995773623245,0.05634794355662015
308,665.0264242230239,0.05015994376239497
309,667.7522197501436,0.048311430672959434
310,670.4769644388757,0.04580626760227985
311,673.200658784089,0.03878077365690012
312,675.9233032803793,0.03402967558802452
313,678.6448984220364,0.037223571192386395
314,681.3654447030575,0.040243743328265184
315,684.0849426171408,0.0340138835202506
316,686.8033926577108,0.032506489851431286
317,689.5207953178779,0.029409778296398025
318,692.2371510904618,0.03075240243718862
319,694.9524604680048,0.03418617356279257
320,697.6667239427369,0.04150968967730473
321,700.3799420066017,0.04196461223619093
322,703.0921151512676,0.0459012459858654
323,705.8032438680756,0.04499270159805289
324,708.5133286481126,0.04406023481076086
325,711.2223699821474,0.03959822035775768
326,713.9303683606643,0.036852584877771155
327,716.6373242738678,0.034466038370980515
328,719.3432382116547,0.029665721055716906
329,722.0481106636465,0.025640819925305012
330,724.75194211915,0.03128443543786061
331,727.4547330672143,0.03022591111813351
332,730.1564839965738,0.03219936237997384
333,732.8571953956874,0.02869470837862093
334,735.5568677527044,0.02738932490125206
335,738.2555015555091,0.03766759832731501
336,740.9530972916803,0.04194314750237308
337,743.6496554485169,0.047576926705842716
338,746.345176513021,0.049148127889637384
339,749.0396609719147,0.04914647993662238
340,751.7331093116188,0.05091938046324892
341,754.425522018281,0.046381419480017186
342,757.1168995777538,0.04040381380910186
343,759.8072424755994,0.03291161295812962
344,762.4965511970959,0.030291526075729557
345,765.1848262272372,0.040537350335289345
346,767.8720680507158,0.04017559964651063
347,770.5582771519621,0.03563461754579859
348,773.243454015094,0.035990695719222005
349,775.9275991239563,0.03558987337859272
350,778.6107129621093,0.04562346997270176
351,781.2927960128236,0.04898806334559824
352,783.9738487590829,0.04820668982950499
353,786.6538716835804,0.04992419184344559
354,789.3328652687427,0.0481868408674544
355,792.0108299966865,0.04552600010748412
356,794.6877663492614,0.03455571750980525
357,797.363674808029,0.024801936308416747
358,800.0385558542536,0.025107795495387303
359,802.712409968937,0.024806551904802066
360,805.3852376327733,0.031300794117147555
361,808.0570393261964,0.031034351263597878
362,810.7278155293366,0.03699714906945153
363,813.3975667220486,0.04230284834005605
364,816.0662933839099,0.0437622450414496
365,818.733995994205,0.03972660812455452
366,821.4006750319322,0.040546242047917645
367,824.0663309758297,0.04405614914605626
368,826.7309643043277,0.04635934051077058
369,829.3945754955876,0.042942638044061475
370,832.057165027491,0.037503168306990645
371,834.7187333776203,0.038775820863186476
372,837.3792810232933,0.04128982631330588
373,840.0388084415438,0.04384610521030255
374,842.6973161091279,0.039516683991831315
375,845.354804502505,0.036253725428732106
376,848.0112740978694,0.040160824718204396
377,850.6667253711255,0.042994361119462685
378,853.321158797906,0.04582849372522967
379,855.9745748535535,0.046581493740355084
380,858.626974013137,0.04666059551150065
381,861.278356751444,0.0496380224502148
382,863.9287235429949,0.0445056293641164
383,866.5780748620027,0.04359551848178705
384,869.2264111824304,0.04379342780569486
385,871.873732977938,0.047239357251538876
386,874.5200407219226,0.04742167739672231
387,877.1653348875041,0.05096025014828146
388,879.8096159475161,0.055465252193094484
389,882.4528843745104,0.05451664982971998
390,885.095140640774,0.048555759302524114
391,887.7363852183079,0.04121309228579777
392,890.3766185788353,0.03178918235088919
393,893.0158411938087,0.027636656997381347
394,895.654053534394,0.029829675471103028
395,898.2912560714842,0.025686389636201207
396,900.9274492757097,0.03386733141264765
397,903.5626336173952,0.04421369763001274
398,906.1968095666161,0.0545854715237401
399,908.829977593153,0.05932869256549988
400,911.4621381665326,0.05882638895804504
401,914.0932917559843,0.061080685023457766
402,916.7234388304693,0.06188649756831266
403,919.352579858675,0.06317565470306032
404,921.9807153090136,0.06351592463372153
405,924.6078456496307,0.0594766241444088
406,927.2339713483767,0.07239121409672584
407,929.8590928728509,0.08007687531911047
408,932.4832106903636,0.08660544441514328
409,935.1063252679547,0.08846296942397419
410,937.7284370723927,0.08842229354852432
411,940.3495465701707,0.0867415419502555
412,942.9696542275043,0.09074003488697203
413,945.5887605103511,0.09179944242110138
414,948.2068658843738,0.0896866037892609
415,950.823970814977,0.09013873191569144
416,953.4400757672942,0.09416337134149377
417,956.0551812061793,0.09718072948302783
418,958.6692875962152,0.09934900905872691
419,961.2823954017157,0.09569705411724275
420,963.8945050867214,0.09742451160794378
421,966.5056171149979,0.09232416603980222
422,969.1157319500566,0.09928137555559362
423,971.7248500551033,0.10459841300820688
424,974.3329718931099,0.10362054402562815
425,976.9400979267551,0.10464966107610468
426,979.5462286184558,0.0958782390605312
427,982.1513644303593,0.08825611864481128
428,984.7555058243315,0.0802761265570425
429,987.358653261989,0.07284588503438223
430,989.9608072046597,0.06606530888050913
431,992.5619681134027,0.0577277668878347
432,995.16213644903,0.06029026529362779
433,997.7613126720499,0.06530933907564772
434,1000.3594972427323,0.06040290852727607
435,1002.9566906210653,0.059660048630110304
436,1005.5528932667677,0.05747676085041498
437,1008.1481056392877,0.05765842219641677
438,1010.7423281978195,0.05846470696205264
439,1013.3355614012689,0.06131117736086642
440,1015.9278057082994,0.06046060486169467
441,1018.5190615772766,0.05713703346550137
442,1021.1093294663236,0.05800196048460438
443,1023.6986098332798,0.05404569323544084
444,1026.2869031357325,0.0491152433075999
445,1028.8742098309892,0.047049295435834644
446,1031.4605303761048,0.05171984190524086
447,1034.0458652278508,0.05231025696268699
448,1036.6302148427415,0.05363347049850611
449,1039.2135796770353,0.05592262788607932
450,1041.7959601867021,0.05269940844884225
451,1044.3773568274669,0.04840203251452179
452,1046.9577700547788,0.048351369823444804
453,1049.5372003238233,0.04649377071274485
454,1052.1156480895245,0.04992373062960266
455,1054.6931138065365,0.054194687998662894
456,1057.2695979292482,0.05947317334118476
457,1059.8451009117953,0.06132095202027931
458,1062.419623208031,0.05943824927972187
459,1064.9931652715704,0.06629872582990452
460,1067.565727555736,0.06550674602135385
461,1070.1373105136029,0.06475634093587751
462,1072.707914597981,0.06489684551211426
463,1075.277540261415,0.06960873425512315
464,1077.84618795619,0.06355388552108324
465,1080.4138581343232,0.06436029953270524
466,1082.9805512475734,0.06480023679083932
467,1085.546267747435,0.0583537427113395
468,1088.1110080851313,0.049742152076526755
469,1090.6747727116488,0.05581906530122581
470,1093.2375620776863,0.05748261072067334
471,1095.799376633693,0.05611504393511104
472,1098.3602168298557,0.06053452529999604
473,1100.92008311609,0.06359658434670791
474,1103.4789759420687,0.05893115057091339
475,1106.0368957571914,0.06163485269077159
476,1108.5938430105978,0.06417185692863274
477,1111.1498181511688,0.05880648439597091
478,1113.7048216275305,0.05523954502857048
479,1116.2588538880304,0.05264667122517558
480,1118.8119153807802,0.05245175328501552
481,1121.3640065536185,0.04649444152241742
482,1123.9151278541233,0.04618255660996897
483,1126.465279729621,0.04289777047533271
484,1129.0144626271633,0.04452563320078485
485,1131.5626769935714,0.045603704677321624
486,1134.109923275374,0.051336279377517
487,1136.6562019188698,0.05437071527698227
488,1139.2015133700716,0.05292505376789819
489,1141.7458580747661,0.051212690589632744
490,1144.2892364784525,0.05280585168056532
491,1146.8316490263883,0.047670639478163
492,1149.3730961635692,0.04737308574123554
493,1151.9135783347351,0.04690040221489022
494,1154.4530959843635,0.05748554548988991
495,1156.9916495566863,0.060009990987583986
496,1159.5292394956605,0.07087768846516411
497,1162.0658662450005,0.07694881396667788
498,1164.6015302481644,0.08016352504399453
499,1167.1362319483435,0.08490175541544741
500,1169.6699717884842,0.08441039895369107
501,1172.2027502112687,0.07741543725919328
502,1174.7345676591274,0.06987891154909817
503,1177.2654245742367,0.0670051169078041
504,1179.7953213985088,0.06923537253133907
505,1182.3242585736111,0.06227241830252046
506,1184.8522365409544,0.06939820804587712
507,1187.3792557416857,0.07369251420823215
508,1189.9053166167153,0.08063441913521158
509,1192.4304196066757,0.08415362127866254
510,1194.9545651519616,0.08005336735129316
511,1197.4777536927086,0.07085669706249606
512,1199.9999856687998,0.06165132950490906
513,1202.5212615198593,0.05620100973262767
514,1205.0415816852667,0.05150805547543576
515,1207.5609466041412,0.045865451055443617
516,1210.0793567153528,0.044385896364014674
517,1212.5968124575152,0.04945087436735753
518,1215.1133142689887,0.05697188154253667
519,1217.6288625878867,0.059721180273262564
520,1220.1434578520618,0.06403552211424152
521,1222.657100499122,0.06366974148540464
522,1225.1697909664233,0.06873266710930294
523,1227.681529691058,0.07172177445653091
524,1230.1923171098854,0.07367791893274647
525,1232.7021536594966,0.06757320830546161
526,1235.2110397762394,0.06401608431764651
527,1237.7189758962086,0.06473853361842957
528,1240.225962455255,0.06106394166121916
529,1242.7319998889593,0.05830485400200903
530,1245.2370886326764,0.06043318839849119
531,1247.741229121488,0.061728373178068174
532,1250.2444217902478,0.06828568083292291
533,1252.7466670735412,0.07153674647466865
534,1255.247965405708,0.07832626196724347
535,1257.7483172208501,0.07444023719458817
536,1260.2477229528,0.07645748798014236
537,1262.7461830351517,0.07715027744116067
538,1265.243697901265,0.07207204698715262
539,1267.7402679842141,0.0701658627001596
540,1270.2358937168556,0.06301324384196788
541,1272.7305755317902,0.05572689132393118
542,1275.224313861368,0.05500161348766147
543,1277.7171091376845,0.05263542862762645
544,1280.2089617925988,0.05905358785353748
545,1282.6998722577105,0.05828512958216937
546,1285.1898409643802,0.06564318414924415
547,1287.6788683437146,0.0703111293894073
548,1290.1669548265825,0.07256374865778968
549,1292.6541008436006,0.07511560148239158
550,1295.140306825126,0.07078058593827549
551,1297.6255732012955,0.06916791909885114
552,1300.1099004019702,0.0694282555585151
553,1302.5932888567909,0.06430887847445957
554,1305.0757389951361,0.06465971031781001
555,1307.5572512461333,0.05983899377035492
556,1310.0378260386883,0.05899796766880074
557,1312.517463801432,0.05415947669901377
558,1314.9961649627696,0.060245288310912595
559,1317.4739299508547,0.06444032942359329
560,1319.9507591935933,0.0711495168857911
561,1322.4266531186558,0.07450239644982597
562,1324.9016121534542,0.07324160598027504
563,1327.3756367251617,0.07154723667198448
564,1329.8487272607094,0.07463191300689975
565,1332.3208841867781,0.07152080286860761
566,1334.792107929824,0.07195635408629301
567,1337.2623989160293,0.0728492909295733
568,1339.7317575713466,0.0750322986587321
569,1342.2001843214903,0.07673174882931418
570,1344.6676795919316,0.07832234833700535
571,1347.1342438078816,0.07206009515810104
572,1349.5998773943304,0.06829529970340083
573,1352.064580776005,0.06299774896063588
574,1354.5283543774078,0.06509385678189558
575,1356.9911986227871,0.06554895477102302
576,1359.4531139361504,0.06821005946746786
577,1361.914100741267,0.07253592117488177
578,1364.3741594616586,0.07507920877725861
579,1366.8332905206128,0.07841292615936561
580,1369.2914943411704,0.07646677478493741
581,1371.7487713461244,0.0752361067167397
582,1374.2051219580385,0.07353017576974506
583,1376.660546599231,0.06603642971520494
584,1379.1150456917755,0.06594464592821357
585,1381.568619657509,0.06312933506030877
586,1384.0212689180232,0.060030271221745965
587,1386.4729938946764,0.06194334874822507
588,1388.9237950085744,0.06509648862450457
589,1391.3736726806048,0.06851544389399072
590,1393.822627331388,0.07340761046560343
591,1396.270659381328,0.08160490036886843
592,1398.7177692505725,0.08658736404768408
593,1401.1639573590414,0.08390011847779628
594,1403.6092241264016,0.08572538889785437
595,1406.0535699721024,0.08664237418212148
596,1408.4969953153336,0.08838306402124783
597,1410.9395005750544,0.0825789415128272
598,1413.3810861699883,0.07835626675946557
599,1415.8217525186153,0.07464919757994226
600,1418.26150003918,0.0705584294597551
601,1420.7003291496849,0.06601734603030508
602,1423.1382402679042,0.05956874184484771
603,1425.5752338113614,0.05501800028886826
604,1428.0113101973577,0.05675338646423535
605,1430.44646984294,0.06141083931912045
606,1432.8807131649253,0.0673582890946787
607,1435.3140405799031,0.06602737421540122
608,1437.7464525042096,0.07128235053786293
609,1440.1779493539525,0.07205679228453522
610,1442.6085315450125,0.07366324863096035
611,1445.038199493012,0.06975663541535876
612,1447.466953613352,0.06659043946004099
613,1449.8947943211977,0.07181706364105665
614,1452.321722031477,0.07118921388062087
615,1454.7477371588761,0.07280061784246195
616,1457.1728401178552,0.07541889653015964
617,1459.597031322629,0.07879424295174202
618,1462.0203111871872,0.08246035125728896
619,1464.4426801252746,0.08487674799708933
620,1466.8641385504056,0.08781705840295666
621,1469.2846868758695,0.08436164400192507
622,1471.7043255147018,0.07719176014942876
623,1474.1230548797191,0.07512557353785515
624,1476.5408753834993,0.06990281799885523
625,1478.9577874383817,0.06353859855270591
626,1481.373791456476,0.06001316418118094
627,1483.7888878496642,0.05702829564833459
628,1486.2030770295808,0.05911381617744139
629,1488.6163594076395,0.06417135177257612
630,1491.0287353950107,0.0671131782108992
631,1493.4402054026461,0.07008763089735151
632,1495.8507698412484,0.06867313618468847
633,1498.2604291213006,0.07224576227294713
634,1500.6691836530408,0.07491007767638316
635,1503.0770338464883,0.0764329300301985
636,1505.4839801114133,0.07792179485720344
637,1507.890022857377,0.07437221708256159
638,1510.2951624936857,0.0765508542732772
639,1512.6993994294323,0.07847900637562438
640,1515.1027340734656,0.0774920720180112
641,1517.5051668344058,0.07730384071500657
642,1519.906698120646,0.07410892849648672
643,1522.307328340347,0.06948111655983567
644,1524.7070579014403,0.0660433731556135
645,1527.1058872116157,0.061280981012644634
646,1529.5038166783536,0.06339591874136187
647,1531.9008467088845,0.06775011451554568
648,1534.2969777102094,0.07459337569822382
649,1536.6922100891163,0.07709766086029318
650,1539.0865442521467,0.08121669093963799
651,1541.479980605616,0.08098842022735427
652,1543.8725195556272,0.07516381770308006
653,1546.2641615080233,0.064184209235952
654,1548.6549068684392,0.060273457343458875
655,1551.0447560422754,0.055812467194698
656,1553.4337094347045,0.06338315728716692
657,1555.8217674506718,0.06912959902659783
658,1558.2089304948884,0.07548324308225143
659,1560.5951989718396,0.0742837475539812
660,1562.9805732857897,0.07708882477271697
661,1565.3650538407626,0.0715746924413331
662,1567.7486410405647,0.06508566120786478
663,1570.1313352887644,0.05710546611541694
664,1572.5131369887174,0.060074469075024624
665,1574.8940465435346,0.060594720337252835
666,1577.2740643561137,0.06385386856927043
667,1579.6531908291172,0.0682864620049006
668,1582.031426364983,0.07346783162233186
669,1584.4087713659267,0.07261157137290755
670,1586.7852262339247,0.07020587211613051
671,1589.1607913707476,0.06809930348681253
672,1591.5354671779146,0.0665500008997096
673,1593.909254056739,0.06328472799775142
674,1596.2821524083056,0.06807924526402946
675,1598.6541626334576,0.07516302642378535
676,1601.0252851328335,0.0819214331460225
677,1603.3955203068267,0.08765500977612431
678,1605.7648685556253,0.08775899352444451
679,1608.1333302791763,0.08560577363781065
680,1610.5009058772073,0.08281076752321673
681,1612.867595749217,0.08319601609865251
682,1615.2334002944992,0.07769354855978869
683,1617.5983199120947,0.0719156853350192
684,1619.962355000834,0.06908493205771897
685,1622.3255059593234,0.07018386342404416
686,1624.6877731859472,0.06952522250670438
687,1627.049157078861,0.06638457349678747
688,1629.4096580359974,0.0670570413080716
689,1631.7692764550675,0.06597194549364696
690,1634.1280127335554,0.06808378322570915
691,1636.4858672687255,0.0698869406403103
692,1638.8428404576282,0.06799238025616623
693,1641.1989326970636,0.06489816950012267
694,1643.5541443836398,0.06034617824041793
695,1645.9084759137236,0.05623493857026644
696,1648.2619276834628,0.05913436286656918
697,1650.6145000887846,0.0648143989120793
698,1652.9661935254007,0.06956126115963354
699,1655.3170083887935,0.07309183907833976
700,1657.666945074222,0.07336605029733018
701,1660.0160039767238,0.07178281434297246
702,1662.3641854911154,0.06616049196501063
703,1664.711490011999,0.06268595935596877
704,1667.0579179337508,0.0603766482253999
705,1669.4034696505214,0.060356691221773964
706,1671.7481455562474,0.06825506365733551
707,1674.0919460446394,0.07442091427788897
708,1676.434871509193,0.07213445398603364
709,1678.7769223431812,0.07672547459221464
710,1681.1180989396512,0.07071585685824529
711,1683.4584016914375,0.06881087661753432
712,1685.797830991158,0.06504849113699016
713,1688.136387231194,0.0657404803100439
714,1690.4740708037232,0.06202704691642173
715,1692.810882100693,0.06332589755550419
716,1695.1468215138482,0.06241763065883848
717,1697.4818894346954,0.06030147624270336
718,1699.8160862545324,0.05965869433161256
719,1702.149412364433,0.05944010231535169
720,1704.4818681552629,0.060819794856192
721,1706.8134540176536,0.0699763221392411
722,1709.1441703420262,0.07447765538721635
723,1711.4740175185896,0.0774463795588667
724,1713.8029959373248,0.07815806064425058
725,1716.1311059879915,0.07702904737720695
726,1718.4583480601545,0.07121987807306436
727,1720.7847225431333,0.07178865546624613
728,1723.110229826044,0.06925106693915761
729,1725.4348702977852,0.0650643215421022
730,1727.7586443470352,0.0667809052575746
731,1730.081552362259,0.07001255677775504
732,1732.403594731696,0.07158673946732426
733,1734.724771843383,0.07300229697392915
734,1737.0450840851213,0.0735847570550808
735,1739.3645318445174,0.0687127059274389
736,1741.683115508944,0.06652983841198823
737,1744.0008354655695,0.06846005641941971
738,1746.3176921013392,0.06547702626696501
739,1748.633685802988,0.06164427123466776
740,1750.9488169570254,0.06329022627946936
741,1753.263085949757,0.06348693187141946
742,1755.5764931672713,0.06466584276015078
743,1757.8890389954274,0.06740151928247419
744,1760.2007238198912,0.07091956710268427
745,1762.511548026103,0.06846689138256372
746,1764.8215119992794,0.07085178933765161
747,1767.1306161244388,0.07060505445994732
748,1769.4388607863727,0.06970849021171552
749,1771.7462463696693,0.06186698039957098
750,1774.0527732586936,0.06470021107846224
751,1776.3584418375956,0.06590938495684041
752,1778.6632524903239,0.06094803099149716
753,1780.9672056005973,0.06236476485734459
754,1783.270301551937,0.06350641471571376
755,1785.5725407276345,0.061558500911270575
756,1787.8739235107776,0.06788722216049183
757,1790.1744502842498,0.0681120612086968
758,1792.4741214306966,0.06851981946348076
759,1794.772937332577,0.06756170336884752
760,1797.070898372122,0.07270693152719153
761,1799.3680049313523,0.07331375643663797
762,1801.6642573920826,0.0670756385125149
763,1803.9596561359112,0.0670158261181916
764,1806.254201544219,0.06432448571050253
765,1808.5478939981813,0.059634466834920206
766,1810.8407338787647,0.06116440766493574
767,1813.1327215667177,0.05788119757401632
768,1815.4238574425797,0.055480429889641567
769,1817.7141418866759,0.054012072675439976
770,1820.0035752791296,0.05325963385013143
771,1822.292157999839,0.0532730815707896
772,1824.5798904285045,0.056725351552725865
773,1826.8667729446122,0.060793638105033285
774,1829.1528059274356,0.0651282192371508
775,1831.4379897560289,0.06924614290921827
776,1833.722324809258,0.07227309372136831
777,1836.0058114657609,0.070661827522657
778,1838.2884501039653,0.06842590814667326
779,1840.570241102104,0.0639832354486503
780,1842.8511848381886,0.060439743327009146
781,1845.1312816900154,0.05722088432922585
782,1847.4105320351882,0.059239525620829105
783,1849.6889362510901,0.0596093440518969
784,1851.9664947148906,0.05907143950467528
785,1854.2432078035692,0.05847516136033681
786,1856.5190758938754,0.052174891874543494
787,1858.7940993623613,0.055483772798596995
788,1861.0682785853749,0.05886753305812571
789,1863.3416139390413,0.06072741920728363
790,1865.614105799288,0.06450244084448081
791,1867.8857545418323,0.06950147464328928
792,1870.1565605421877,0.07260194807417861
793,1872.4265241756464,0.06543535363013603
794,1874.6956458173076,0.05972594767657212
795,1876.9639258420602,0.053725093184043206
796,1879.2313646245743,0.04929801951791725
797,1881.497962539329,0.055129671619142555
798,1883.7637199605838,0.0515436378250753
799,1886.0286372624043,0.05123841980422187
800,1888.292714818632,0.051541096964452734
801,1890.5559530029152,0.052484985080374996
802,1892.8183521886924,0.04824960263644287
803,1895.0799127491978,0.04470540907102444
804,1897.3406350574537,0.04634892850438658
805,1899.6005194862712,0.050024281472828926
806,1901.859566408278,0.05850432782191895
807,1904.117776195878,0.06307083167715515
808,1906.3751492212643,0.06140060180858695
809,1908.631685856438,0.06374403732470321
810,1910.8873864731981,0.0635312377807092
811,1913.14225144312,0.06127015161730624
812,1915.3962811375925,0.0581598584419648
813,1917.6494759277841,0.06050381595311357
814,1919.9018361846695,0.06077453257077677
815,1922.15336227902,0.06380160814736621
816,1924.4040545813916,0.06493865201409697
817,1926.6539134621419,0.06148776369803208
818,1928.9029392914342,0.05738756691891146
819,1931.1511324392054,0.05842525302033887
820,1933.3984932752048,0.057506328499933514
821,1935.6450221689809,0.05679579155939825
822,1937.8907194898668,0.058458640444536296
823,1940.135585606999,0.061620561884156634
824,1942.3796208893075,0.06417486426465872
825,1944.6228257055188,0.06827821908280665
826,1946.8652004241658,0.06468779780509581
827,1949.1067454135632,0.06322932940696019
828,1951.3474610418323,0.061821103093108135
829,1953.5873476768948,0.063743919468941
830,1955.826405686458,0.05710700202127122
831,1958.0646354380378,0.05465881512734481
832,1960.3020372989474,0.0548755491925249
833,1962.5386116362865,0.05591697318803118
834,1964.7743588169665,0.05994808588424279
835,1967.0092792076948,0.06162303944265499
836,1969.2433731749666,0.06351484988869589
837,1971.476641085086,0.07041148363410266
838,1973.7090833041532,0.07592623284632095
839,1975.9407001980674,0.07507130574204562
840,1978.171492132523,0.06970360675405586
841,1980.401459473018,0.062279575789297076
842,1982.6306025848478,0.055238999035621364
843,1984.8589218331072,0.051837697060638226
844,1987.0864175826928,0.04989403718880624
845,1989.3130901982931,0.04934141455852038
846,1991.5389400444087,0.052711211219418214
847,1993.7639674853272,0.05307547246003939
848,1995.9881728851403,0.05392317172884119
849,1998.2115566077484,0.05752755789230373
850,2000.4341190168443,0.05960029763983674
851,2002.65586047592,0.061107319607305616
852,2004.8767813482743,0.05928410978968318
853,2007.0968819969958,0.0690857569690113
854,2009.316162784986,0.07242628620453181
855,2011.5346240749395,0.07675826659122774
856,2013.7522662293607,0.07520370508374986
857,2015.9690896105492,0.07013577345759796
858,2018.185094580596,0.06529325201233792
859,2020.4002815014185,0.06715446493474307
860,2022.6146507347041,0.06637666257393247
861,2024.8282026419763,0.07205280983062935
862,2027.0409375845343,0.07080161985744479
863,2029.2528559234845,0.07273193711886815
864,2031.4639580197536,0.0679680917468944
865,2033.6742442340428,0.06312996515438293
866,2035.8837149268772,0.05875048879243923
867,2038.09237045857,0.05368889107459149
868,2040.3002111892497,0.05389890305828749
869,2042.507237478841,0.05602480289621842
870,2044.7134496870758,0.058384571860927006
871,2046.9188481734755,0.06234382970794666
872,2049.12343329739,0.06781099206060735
873,2051.32720541794,0.07387011336514093
874,2053.5301648940895,0.08059614694624423
875,2055.7323120845617,0.08151079083084764
876,2057.9336473479284,0.08183501087624268
877,2060.134171042523,0.07910406182729118
878,2062.333883526516,0.07597423027765426
879,2064.5327851578672,0.07012232802989399
880,2066.73087629434,0.06267249565641318
881,2068.9281572935056,0.0539911275998688
882,2071.1246285127486,0.0546283937928321
883,2073.320290309241,0.06027098164238177
884,2075.515143039968,0.061684391931066694
885,2077.7091870617223,0.06351503609031525
886,2079.9024227310993,0.06272361443848841
887,2082.0948504045027,0.06718736831054879
888,2084.2864704381336,0.06710557074127903
889,2086.4772831880064,0.0679156870152839
890,2088.6672890099385,0.06794402609206347
891,2090.856488259558,0.06438444115614442
892,2093.0448812922846,0.0623996105381382
893,2095.2324684633622,0.06353834625877357
894,2097.419250127828,0.05915735804740232
895,2099.605226640541,0.054802360878130965
896,2101.790398356142,0.05282154746442131
897,2103.9747656291042,0.055846224512478185
898,2106.158328813691,0.055974194316281915
899,2108.3410882639737,0.0582265785039248
900,2110.5230443338387,0.060971320832066835
901,2112.704197376977,0.060519625491868054
902,2114.884547746881,0.061792691656003616
903,2117.0640957968603,0.06670571449873848
904,2119.242841880026,0.06746474599959433
905,2121.420786349293,0.06471929549960247
906,2123.5979295573934,0.0655722051448247
907,2125.774271856864,0.06770028783998677
908,2127.949813600042,0.06509987513091074
909,2130.1245551390834,0.06260889764950175
910,2132.298496825952,0.0604938284027733
911,2134.4716390124054,0.06007865432143101
912,2136.643982050032,0.06197957749009952
913,2138.815526290215,0.06494757868975622
914,2140.9862720841543,0.06799177204988684
915,2143.1562197828384,0.06582460114734927
916,2145.3253697370933,0.06992052102783539
917,2147.4937222975414,0.07430084422141475
918,2149.6612778146123,0.07150469847963078
919,2151.828036638544,0.06263124524832857
920,2153.993999119393,0.06894735176644096
921,2156.1591656070163,0.07285000485290265
922,2158.323536451089,0.07324839636535013
923,2160.487112001087,0.07064215246750424
924,2162.6498926063073,0.06682156591348436
925,2164.811878615847,0.06136197915130288
926,2166.973070378622,0.06259028658548704
927,2169.133468243349,0.05620924700991835
928,2171.2930725585697,0.05288560846069594
929,2173.4518836726174,0.04349312289942645
930,2175.60990193366,0.05297913933189937
931,2177.767127689652,0.05483920916854265
932,2179.92356128838,0.0588657580879122
933,2182.0792030774255,0.059754576571636284
934,2184.2340534042023,0.05721423749311258
935,2186.388112615904,0.06062914947134945
936,2188.541381059567,0.06386241499774685
937,2190.6938590820178,0.05788770889654517
938,2192.8455470299114,0.06017484133542501
939,2194.9964452497065,0.05953249815335912
940,2197.146554087676,0.06322173349709354
941,2199.295873889901,0.06410642431890737
942,2201.444405002281,0.06819859268861271
943,2203.5921477705233,0.06892001665604082
944,2205.7391025401575,0.06593763504839996
945,2207.8852696565077,0.07166684152271569
946,2210.030649464731,0.07052805588588451
947,2212.175242309782,0.0698239669382463
948,2214.319048536445,0.06992929853238011
949,2216.4620684892993,0.06852086511550833
950,2218.6043025127465,0.07122765251452849
951,2220.7457509510136,0.0676660544491859
952,2222.8864141481163,0.06451424382086192
953,2225.026292447905,0.06440352940502159
954,2227.165386194038,0.06100549606754094
955,2229.3036957299796,0.06271365429774357
956,2231.4412213990213,0.06119281071233523
957,2233.577963544262,0.06422028667649586
958,2235.7139225086166,0.0631361405172472
959,2237.849098634815,0.0622786918199858
960,2239.983492265398,0.06664408380249552
961,2242.117103742733,0.06334231935205055
962,2244.2499334089803,0.06279034127861502
963,2246.381981606141,0.06723642217580941
964,2248.5132486760167,0.0705353386341233
965,2250.643734960226,0.07565147508000868
966,2252.7734408002084,0.07567353512055786
967,2254.902366537208,0.07699657821719086
968,2257.0305125122945,0.07564037015245778
969,2259.1578790663593,0.07244594083513974
970,2261.2844665400926,0.06892879756757547
971,2263.4102752740105,0.06697083044898228
972,2265.535305608446,0.06314970642176956
973,2267.6595578835545,0.059905216677895494
974,2269.7830324392853,0.060018554562985015
975,2271.9057296154297,0.057144651891595635
976,2274.027649751588,0.05280734304597189
977,2276.1487931871693,0.054975468326821056
978,2278.26916026141,0.05229950417282937
979,2280.3887513133554,0.05463849293472923
980,2282.507566681875,0.057770721243238
981,2284.625606705647,0.06232072049729386
982,2286.7428717231837,0.06075267875893525
983,2288.8593620727975,0.06150174185974979
984,2290.975078092627,0.06570870791713232
985,2293.0900201206287,0.07050914532491356
986,2295.2041884945684,0.07159807209793322
987,2297.3175835520456,0.07353863453651432
988,2299.430205630472,0.07105160564378138
989,2301.542055067063,0.07038216174371378
990,2303.653132198877,0.06926540682119031
991,2305.7634373627698,0.06854237150175832
992,2307.8729708954315,0.06502387604385737
993,2309.9817331333684,0.07148337159366454
994,2312.089724412893,0.07649639317438474
995,2314.1969450701513,0.07981315012803887
996,2316.3033954411053,0.08234128828544493
997,2318.4090758615343,0.08453047505424144
998,2320.513986667032,0.08354125988249723
999,2322.61812819302,0.0766424417021982
1000,2324.7215007747395,0.07097850032942646
1001,2326.8241047472466,0.06712400651072445
1002,2328.9259404454224,0.060674056191937865
1003,2331.027008203963,0.06341952887351802
1004,2333.12730835739,0.05988909572811211
1005,2335.2268412400344,0.05792669472852281
1006,2337.325607186067,0.06444365320724638
1007,2339.423606529461,0.06415183381012347
1008,2341.5208396040184,0.06546972938939048
1009,2343.6173067433656,0.06016207084922974
1010,2345.7130082809404,0.060103006712743864
1011,2347.8079445500066,0.06122070843889196
1012,2349.9021158836536,0.0614834333589511
1013,2351.995522614785,0.06421362331011085
1014,2354.0881650761316,0.06705478732477808
1015,2356.180043600236,0.06944071387775355
1016,2358.271158519477,0.07309508374549617
1017,2360.361510166044,0.07233065365369086
1018,2362.4510988719544,0.07592397263563842
1019,2364.539924969043,0.0757730020182165
1020,2366.6279887889696,0.07420928502251904
1021,2368.715290663218,0.07108295430542594
1022,2370.801830923089,0.06624414252381704
1023,2372.887609899707,0.05954298233457225
