pixel_index,raman_shift_cm-1,intensity
0,200.000,331.175835
1,201.000,328.842935
2,202.000,336.101759
3,203.000,340.918615
4,204.000,346.017415
5,205.000,340.665744
6,206.000,337.499169
7,207.000,336.915097
8,208.000,346.92616
9,209.000,353.053469
10,210.000,345.693651
11,211.000,337.470514
12,212.000,339.935526
13,213.000,356.101045
14,214.000,348.535223
15,215.000,337.743301
16,216.000,348.4533
17,217.000,342.796673
18,218.000,346.822039
19,219.000,348.492659
20,220.000,347.964927
21,221.000,356.39038
22,222.000,353.518084
23,223.000,351.187692
24,224.000,358.010977
25,225.000,361.362342
26,226.000,347.356323
27,227.000,356.506526
28,228.000,352.99606
29,229.000,358.676443
30,230.000,352.814885
31,231.000,361.512758
32,232.000,361.999713
33,233.000,361.240609
34,234.000,357.619881
35,235.000,362.372298
36,236.000,359.044664
37,237.000,358.30578
38,238.000,368.631339
39,239.000,361.473317
40,240.000,375.999183
41,241.000,374.126122
42,242.000,358.690086
43,243.000,373.16135
44,244.000,365.771068
45,245.000,373.433704
46,246.000,374.352347
47,247.000,363.016373
48,248.000,374.404017
49,249.000,375.128615
50,250.000,383.295364
51,251.000,371.295891
52,252.000,383.675238
53,253.000,373.51677
54,254.000,378.987687
55,255.000,376.798624
56,256.000,391.401087
57,257.000,386.986421
58,258.000,399.037188
59,259.000,389.169148
60,260.000,391.259671
61,261.000,392.107085
62,262.000,384.297799
63,263.000,388.392986
64,264.000,397.792388
65,265.000,388.188858
66,266.000,392.580276
67,267.000,392.200664
68,268.000,396.86504
69,269.000,391.903235
70,270.000,394.062674
71,271.000,397.316501
72,272.000,397.366931
73,273.000,392.446746
74,274.000,403.900282
75,275.000,391.624911
76,276.000,393.10053
77,277.000,393.504911
78,278.000,407.895546
79,279.000,400.825125
80,280.000,398.058833
81,281.000,397.966412
82,282.000,408.208029
83,283.000,400.252114
84,284.000,399.849817
85,285.000,412.068588
86,286.000,402.10794
87,287.000,408.258327
88,288.000,411.058372
89,289.000,409.334127
90,290.000,412.589989
91,291.000,421.856821
92,292.000,411.633657
93,293.000,408.091236
94,294.000,405.539875
95,295.000,416.246239
96,296.000,416.276994
97,297.000,420.897997
98,298.000,417.440114
99,299.000,418.273096
100,300.000,417.737593
101,301.000,419.868704
102,302.000,424.871612
103,303.000,422.552341
104,304.000,426.362528
105,305.000,438.093635
106,306.000,430.48907
107,307.000,419.086887
108,308.000,439.874883
109,309.000,432.492061
110,310.000,425.689428
111,311.000,437.714125
112,312.000,433.312903
113,313.000,430.45201
114,314.000,431.279834
115,315.000,430.059078
116,316.000,437.248377
117,317.000,444.313773
118,318.000,436.892983
119,319.000,442.311876
120,320.000,451.985658
121,321.000,434.390302
122,322.000,444.170256
123,323.000,441.73499
124,324.000,438.167778
125,325.000,439.319147
126,326.000,446.334647
127,327.000,449.982878
128,328.000,445.144711
129,329.000,449.616357
130,330.000,454.580241
131,331.000,452.984544
132,332.000,457.376595
133,333.000,455.893556
134,334.000,457.015036
135,335.000,466.009836
136,336.000,459.753302
137,337.000,457.756547
138,338.000,462.206041
139,339.000,453.399504
140,340.000,457.857093
141,341.000,465.612932
142,342.000,465.609819
143,343.000,472.087969
144,344.000,463.834545
145,345.000,455.972854
146,346.000,477.406623
147,347.000,473.258025
148,348.000,461.326976
149,349.000,476.914281
150,350.000,469.834899
151,351.000,459.739257
152,352.000,469.084257
153,353.000,469.537712
154,354.000,483.122182
155,355.000,469.811842
156,356.000,474.030913
157,357.000,474.881617
158,358.000,475.259111
159,359.000,473.04047
160,360.000,480.832603
161,361.000,486.973275
162,362.000,485.251879
163,363.000,476.939783
164,364.000,476.603845
165,365.000,485.215741
166,366.000,481.262776
167,367.000,482.722816
168,368.000,477.428392
169,369.000,500.213453
170,370.000,495.015357
171,371.000,484.678531
172,372.000,496.978763
173,373.000,500.593144
174,374.000,479.210812
175,375.000,491.265567
176,376.000,493.24369
177,377.000,500.47454
178,378.000,496.870894
179,379.000,497.232961
180,380.000,499.282371
181,381.000,511.770792
182,382.000,514.630145
183,383.000,499.541915
184,384.000,498.155206
185,385.000,520.890969
186,386.000,499.881348
187,387.000,503.344751
188,388.000,508.031183
189,389.000,511.738884
190,390.000,516.042512
191,391.000,513.244235
192,392.000,506.695326
193,393.000,516.00035
194,394.000,515.49517
195,395.000,526.291964
196,396.000,515.976413
197,397.000,509.081712
198,398.000,511.871741
199,399.000,527.882264
200,400.000,516.981217
201,401.000,508.637038
202,402.000,518.822637
203,403.000,523.351097
204,404.000,531.529331
205,405.000,519.356048
206,406.000,530.490633
207,407.000,532.311171
208,408.000,524.393056
209,409.000,528.515022
210,410.000,541.3096
211,411.000,542.069308
212,412.000,537.934195
213,413.000,535.848566
214,414.000,541.743731
215,415.000,535.127954
216,416.000,536.460762
217,417.000,532.929619
218,418.000,539.186777
219,419.000,539.724069
220,420.000,557.921886
221,421.000,541.188117
222,422.000,551.036317
223,423.000,552.401777
224,424.000,544.428457
225,425.000,553.633397
226,426.000,534.626965
227,427.000,549.329391
228,428.000,554.976525
229,429.000,536.520038
230,430.000,545.027621
231,431.000,559.395652
232,432.000,552.59485
233,433.000,548.626568
234,434.000,554.054173
235,435.000,554.121344
236,436.000,562.805823
237,437.000,562.265857
238,438.000,558.94571
239,439.000,557.720699
240,440.000,562.47631
241,441.000,571.838443
242,442.000,567.070739
243,443.000,569.900463
244,444.000,566.254037
245,445.000,560.499695
246,446.000,565.079127
247,447.000,574.34633
248,448.000,572.154056
249,449.000,567.208695
250,450.000,564.022611
251,451.000,575.493147
252,452.000,573.892215
253,453.000,574.927687
254,454.000,576.156755
255,455.000,580.940593
256,456.000,582.108674
257,457.000,587.220703
258,458.000,588.125521
259,459.000,591.655726
260,460.000,589.610637
261,461.000,583.869216
262,462.000,586.66877
263,463.000,591.072305
264,464.000,587.359004
265,465.000,593.632244
266,466.000,598.373231
267,467.000,587.761171
268,468.000,583.064524
269,469.000,601.968047
270,470.000,596.033072
271,471.000,601.300034
272,472.000,590.17679
273,473.000,609.69229
274,474.000,604.850871
275,475.000,600.788628
276,476.000,600.560168
277,477.000,604.483599
278,478.000,603.929064
279,479.000,604.387642
280,480.000,600.473615
281,481.000,615.900605
282,482.000,609.219916
283,483.000,611.03993
284,484.000,612.285447
285,485.000,598.715582
286,486.000,617.165769
287,487.000,613.167126
288,488.000,614.546919
289,489.000,617.842352
290,490.000,612.731207
291,491.000,624.769881
292,492.000,616.679045
293,493.000,616.578022
294,494.000,617.973672
295,495.000,625.247268
296,496.000,629.918473
297,497.000,623.023625
298,498.000,618.684077
299,499.000,635.2725
300,500.000,623.66052
301,501.000,638.374577
302,502.000,632.035502
303,503.000,629.327971
304,504.000,630.835736
305,505.000,638.606193
306,506.000,642.331363
307,507.000,636.967365
308,508.000,645.000368
309,509.000,653.00413
310,510.000,640.397035
311,511.000,635.915959
312,512.000,637.653122
313,513.000,636.805533
314,514.000,642.478713
315,515.000,643.144334
316,516.000,640.707841
317,517.000,653.01217
318,518.000,635.33679
319,519.000,644.254953
320,520.000,665.447348
321,521.000,660.759916
322,522.000,658.848295
323,523.000,659.634731
324,524.000,668.697625
325,525.000,662.467808
326,526.000,660.902732
327,527.000,654.240767
328,528.000,662.365414
329,529.000,659.591038
330,530.000,660.945468
331,531.000,662.086525
332,532.000,667.294791
333,533.000,666.776408
334,534.000,675.174639
335,535.000,663.185508
336,536.000,671.321728
337,537.000,684.692838
338,538.000,674.967911
339,539.000,683.12628
340,540.000,683.957242
341,541.000,686.238853
342,542.000,683.972044
343,543.000,672.466498
344,544.000,680.352205
345,545.000,680.883416
346,546.000,675.08277
347,547.000,682.804691
348,548.000,679.301227
349,549.000,678.023807
350,550.000,690.499631
351,551.000,690.191618
352,552.000,687.547013
353,553.000,687.192998
354,554.000,690.873425
355,555.000,692.983071
356,556.000,694.127566
357,557.000,697.490735
358,558.000,696.42671
359,559.000,702.597063
360,560.000,704.650133
361,561.000,704.900301
362,562.000,700.017249
363,563.000,701.542351
364,564.000,709.098953
365,565.000,706.558899
366,566.000,708.736796
367,567.000,695.301621
368,568.000,695.314379
369,569.000,714.803035
370,570.000,716.026601
371,571.000,723.683156
372,572.000,720.927349
373,573.000,719.213408
374,574.000,719.268895
375,575.000,711.903542
376,576.000,727.062246
377,577.000,719.447294
378,578.000,727.396277
379,579.000,726.901712
380,580.000,728.662332
381,581.000,733.723035
382,582.000,726.774813
383,583.000,728.748376
384,584.000,727.306239
385,585.000,731.561204
386,586.000,745.21698
387,587.000,734.454792
388,588.000,745.179806
389,589.000,744.4738
390,590.000,745.367804
391,591.000,747.310308
392,592.000,737.935864
393,593.000,747.824815
394,594.000,756.715367
395,595.000,744.654836
396,596.000,750.242581
397,597.000,748.145151
398,598.000,756.006504
399,599.000,749.539478
400,600.000,767.6722
401,601.000,757.872885
402,602.000,753.137913
403,603.000,775.56908
404,604.000,773.287028
405,605.000,773.473496
406,606.000,776.780537
407,607.000,775.07068
408,608.000,780.034483
409,609.000,790.553743
410,610.000,797.439081
411,611.000,804.427895
412,612.000,808.573559
413,613.000,815.061135
414,614.000,830.045338
415,615.000,854.760779
416,616.000,877.869841
417,617.000,892.350208
418,618.000,918.323092
419,619.000,951.014939
420,620.000,957.542264
421,621.000,950.216291
422,622.000,918.319109
423,623.000,899.664815
424,624.000,876.152699
425,625.000,861.865987
426,626.000,836.106595
427,627.000,843.011335
428,628.000,829.123323
429,629.000,823.968398
430,630.000,809.858462
431,631.000,813.583835
432,632.000,819.417576
433,633.000,800.337325
434,634.000,810.460181
435,635.000,812.098263
436,636.000,803.357565
437,637.000,812.26039
438,638.000,805.463222
439,639.000,815.06428
440,640.000,811.232895
441,641.000,809.912349
442,642.000,821.215088
443,643.000,814.830167
444,644.000,818.437104
445,645.000,804.253796
446,646.000,808.367637
447,647.000,818.16685
448,648.000,819.519257
449,649.000,814.722426
450,650.000,820.735529
451,651.000,810.732891
452,652.000,819.414438
453,653.000,812.316161
454,654.000,822.329561
455,655.000,818.471323
456,656.000,818.658887
457,657.000,823.972055
458,658.000,835.680031
459,659.000,819.856234
460,660.000,823.477394
461,661.000,834.663684
462,662.000,826.894054
463,663.000,841.236078
464,664.000,833.147396
465,665.000,833.553891
466,666.000,836.354965
467,667.000,845.86955
468,668.000,840.568322
469,669.000,840.954627
470,670.000,840.587912
471,671.000,830.92859
472,672.000,836.221479
473,673.000,851.666622
474,674.000,848.934499
475,675.000,848.279324
476,676.000,850.307875
477,677.000,844.469201
478,678.000,851.006354
479,679.000,844.824026
480,680.000,853.829484
481,681.000,848.451193
482,682.000,852.709852
483,683.000,857.972004
484,684.000,854.551422
485,685.000,861.660079
486,686.000,861.774989
487,687.000,862.461341
488,688.000,869.518493
489,689.000,853.997687
490,690.000,854.533756
491,691.000,869.080789
492,692.000,872.301378
493,693.000,880.001076
494,694.000,873.744699
495,695.000,875.465642
496,696.000,866.464299
497,697.000,877.558143
498,698.000,878.366254
499,699.000,869.269989
500,700.000,871.510362
501,701.000,877.506274
502,702.000,881.187266
503,703.000,863.075385
504,704.000,882.453343
505,705.000,884.705093
506,706.000,883.548438
507,707.000,887.500922
508,708.000,889.926945
509,709.000,882.414228
510,710.000,892.274697
511,711.000,889.564342
512,712.000,886.692493
513,713.000,894.919203
514,714.000,903.887835
515,715.000,887.499911
516,716.000,887.641614
517,717.000,888.941989
518,718.000,912.026626
519,719.000,899.956095
520,720.000,902.41261
521,721.000,899.35512
522,722.000,899.738066
523,723.000,894.526931
524,724.000,909.019058
525,725.000,910.86373
526,726.000,898.758175
527,727.000,905.670791
528,728.000,908.778653
529,729.000,914.40236
530,730.000,917.339632
531,731.000,923.947598
532,732.000,926.699126
533,733.000,926.244301
534,734.000,929.205642
535,735.000,915.482663
536,736.000,920.480792
537,737.000,931.99797
538,738.000,928.198944
539,739.000,927.912195
540,740.000,917.261174
541,741.000,919.317383
542,742.000,936.198573
543,743.000,935.205925
544,744.000,932.72638
545,745.000,933.374398
546,746.000,926.848594
547,747.000,940.789223
548,748.000,946.129209
549,749.000,951.140815
550,750.000,942.95243
551,751.000,942.807341
552,752.000,938.837007
553,753.000,954.138965
554,754.000,958.43375
555,755.000,945.913933
556,756.000,952.745767
557,757.000,952.962213
558,758.000,950.401818
559,759.000,940.297302
560,760.000,954.535004
561,761.000,961.837766
562,762.000,951.010004
563,763.000,956.129591
564,764.000,942.972927
565,765.000,971.913531
566,766.000,968.763451
567,767.000,967.616584
568,768.000,967.332963
569,769.000,966.778693
570,770.000,971.815763
571,771.000,972.158624
572,772.000,974.315266
573,773.000,977.44915
574,774.000,980.324812
575,775.000,990.868781
576,776.000,974.983135
577,777.000,987.476494
578,778.000,984.526325
579,779.000,983.979668
580,780.000,979.361592
581,781.000,1000.224246
582,782.000,993.970537
583,783.000,999.077491
584,784.000,1010.605588
585,785.000,1006.103177
586,786.000,1018.331358
587,787.000,1024.223329
588,788.000,1037.096543
589,789.000,1047.248451
590,790.000,1046.243624
591,791.000,1068.398616
592,792.000,1074.317319
593,793.000,1086.872144
594,794.000,1093.411345
595,795.000,1103.323746
596,796.000,1090.008473
597,797.000,1092.886351
598,798.000,1089.738177
599,799.000,1071.574422
600,800.000,1076.587407
601,801.000,1052.340301
602,802.000,1051.733822
603,803.000,1042.538082
604,804.000,1037.818583
605,805.000,1031.860171
606,806.000,1033.091378
607,807.000,1034.402212
608,808.000,1028.768699
609,809.000,1038.146045
610,810.000,1041.555517
611,811.000,1023.100126
612,812.000,1037.33354
613,813.000,1033.677499
614,814.000,1034.37759
615,815.000,1048.169127
616,816.000,1041.221152
617,817.000,1036.675034
618,818.000,1036.513882
619,819.000,1023.288396
620,820.000,1041.777277
621,821.000,1033.55649
622,822.000,1040.048037
623,823.000,1040.558675
624,824.000,1046.744131
625,825.000,1054.200362
626,826.000,1048.977324
627,827.000,1051.792112
628,828.000,1043.843887
629,829.000,1049.09852
630,830.000,1052.106367
631,831.000,1039.992839
632,832.000,1062.031011
633,833.000,1046.653934
634,834.000,1044.448493
635,835.000,1063.09694
636,836.000,1067.189739
637,837.000,1051.453705
638,838.000,1053.191877
639,839.000,1076.748212
640,840.000,1059.962529
641,841.000,1048.59721
642,842.000,1058.046911
643,843.000,1074.956066
644,844.000,1068.12446
645,845.000,1069.911907
646,846.000,1073.979214
647,847.000,1071.921814
648,848.000,1067.105677
649,849.000,1060.77908
650,850.000,1074.26532
651,851.000,1066.134957
652,852.000,1073.739579
653,853.000,1085.878307
654,854.000,1079.817348
655,855.000,1078.180736
656,856.000,1079.469471
657,857.000,1084.712911
658,858.000,1087.109387
659,859.000,1074.935909
660,860.000,1085.205372
661,861.000,1095.642905
662,862.000,1091.132513
663,863.000,1083.273513
664,864.000,1085.045097
665,865.000,1078.010497
666,866.000,1086.88145
667,867.000,1102.543679
668,868.000,1093.745338
669,869.000,1090.293399
670,870.000,1093.228074
671,871.000,1097.281972
672,872.000,1098.569098
673,873.000,1098.346713
674,874.000,1097.118393
675,875.000,1106.81498
676,876.000,1113.48954
677,877.000,1102.113514
678,878.000,1103.536678
679,879.000,1115.183592
680,880.000,1100.528269
681,881.000,1107.025699
682,882.000,1109.568884
683,883.000,1114.107607
684,884.000,1112.714775
685,885.000,1110.308308
686,886.000,1118.754508
687,887.000,1111.028763
688,888.000,1108.963507
689,889.000,1108.51261
690,890.000,1126.437912
691,891.000,1112.78815
692,892.000,1127.155185
693,893.000,1129.76065
694,894.000,1131.841342
695,895.000,1127.2154
696,896.000,1126.237848
697,897.000,1131.304639
698,898.000,1128.491777
699,899.000,1125.600571
700,900.000,1142.114053
701,901.000,1130.478459
702,902.000,1147.884141
703,903.000,1141.461185
704,904.000,1136.909129
705,905.000,1143.526325
706,906.000,1149.545421
707,907.000,1135.157931
708,908.000,1139.132488
709,909.000,1139.662081
710,910.000,1148.212642
711,911.000,1150.912961
712,912.000,1149.926534
713,913.000,1146.64903
714,914.000,1149.113478
715,915.000,1160.672714
716,916.000,1161.518788
717,917.000,1156.872397
718,918.000,1149.488245
719,919.000,1162.388844
720,920.000,1161.614829
721,921.000,1162.67471
722,922.000,1172.808695
723,923.000,1168.622714
724,924.000,1159.124395
725,925.000,1160.455517
726,926.000,1175.799758
727,927.000,1170.027079
728,928.000,1175.391237
729,929.000,1170.707907
730,930.000,1166.928192
731,931.000,1175.850711
732,932.000,1184.901022
733,933.000,1178.866167
734,934.000,1171.36373
735,935.000,1177.569834
736,936.000,1177.76465
737,937.000,1183.111789
738,938.000,1189.511303
739,939.000,1196.546845
740,940.000,1187.409285
741,941.000,1184.80801
742,942.000,1189.164745
743,943.000,1190.112513
744,944.000,1188.784956
745,945.000,1192.79639
746,946.000,1193.982545
747,947.000,1188.259135
748,948.000,1199.94253
749,949.000,1195.823093
750,950.000,1193.447514
751,951.000,1203.648105
752,952.000,1199.149103
753,953.000,1213.903618
754,954.000,1207.684744
755,955.000,1206.667042
756,956.000,1203.068191
757,957.000,1206.57296
758,958.000,1215.531019
759,959.000,1207.752958
760,960.000,1217.896796
761,961.000,1202.213051
762,962.000,1217.510233
763,963.000,1222.729054
764,964.000,1221.410311
765,965.000,1220.932769
766,966.000,1228.629923
767,967.000,1219.087245
768,968.000,1220.006488
769,969.000,1228.271212
770,970.000,1236.642327
771,971.000,1233.859754
772,972.000,1232.014041
773,973.000,1236.965103
774,974.000,1239.88776
775,975.000,1231.93103
776,976.000,1224.814743
777,977.000,1237.950751
778,978.000,1237.709823
779,979.000,1245.955807
780,980.000,1245.197957
781,981.000,1250.454765
782,982.000,1261.810631
783,983.000,1263.739634
784,984.000,1267.432661
785,985.000,1282.554963
786,986.000,1275.584492
787,987.000,1282.75778
788,988.000,1300.547294
789,989.000,1295.789883
790,990.000,1304.329094
791,991.000,1336.533616
792,992.000,1349.364515
793,993.000,1375.434194
794,994.000,1408.700097
795,995.000,1456.223382
796,996.000,1513.66931
797,997.000,1612.170307
798,998.000,1746.527285
799,999.000,1946.633299
800,1000.000,2155.104519
801,1001.000,2251.892974
802,1002.000,2160.763134
803,1003.000,1969.621027
804,1004.000,1755.463479
805,1005.000,1629.883993
806,1006.000,1537.591439
807,1007.000,1475.833477
808,1008.000,1421.956671
809,1009.000,1404.27105
810,1010.000,1379.993253
811,1011.000,1360.258973
812,1012.000,1348.136112
813,1013.000,1343.969313
814,1014.000,1342.798416
815,1015.000,1339.108128
816,1016.000,1345.766463
817,1017.000,1329.581986
818,1018.000,1336.481181
819,1019.000,1332.675087
820,1020.000,1344.037829
821,1021.000,1346.129537
822,1022.000,1350.162541
823,1023.000,1357.399185
824,1024.000,1376.764401
825,1025.000,1405.097053
826,1026.000,1443.702313
827,1027.000,1483.320813
828,1028.000,1531.288752
829,1029.000,1609.848577
830,1030.000,1684.556481
831,1031.000,1715.446599
832,1032.000,1685.495094
833,1033.000,1618.985023
834,1034.000,1542.057662
835,1035.000,1477.563992
836,1036.000,1427.031346
837,1037.000,1405.906336
838,1038.000,1376.058062
839,1039.000,1369.439127
840,1040.000,1360.799704
841,1041.000,1342.338617
842,1042.000,1343.083497
843,1043.000,1337.004216
844,1044.000,1346.742831
845,1045.000,1335.208434
846,1046.000,1318.989733
847,1047.000,1331.318037
848,1048.000,1329.926884
849,1049.000,1325.344169
850,1050.000,1323.683796
851,1051.000,1329.125067
852,1052.000,1329.294377
853,1053.000,1327.867391
854,1054.000,1319.353131
855,1055.000,1323.978429
856,1056.000,1316.400241
857,1057.000,1317.119099
858,1058.000,1323.146537
859,1059.000,1320.653069
860,1060.000,1325.018996
861,1061.000,1342.937844
862,1062.000,1331.624054
863,1063.000,1323.985387
864,1064.000,1316.994476
865,1065.000,1325.62569
866,1066.000,1322.766045
867,1067.000,1318.922063
868,1068.000,1337.205779
869,1069.000,1330.761789
870,1070.000,1337.092883
871,1071.000,1353.822753
872,1072.000,1337.74862
873,1073.000,1337.679995
874,1074.000,1339.935288
875,1075.000,1337.116592
876,1076.000,1334.637507
877,1077.000,1339.216408
878,1078.000,1348.249865
879,1079.000,1340.685977
880,1080.000,1335.005689
881,1081.000,1336.664056
882,1082.000,1338.899525
883,1083.000,1346.082098
884,1084.000,1349.851404
885,1085.000,1350.803107
886,1086.000,1356.01925
887,1087.000,1348.636265
888,1088.000,1355.859433
889,1089.000,1353.793891
890,1090.000,1357.072383
891,1091.000,1342.787127
892,1092.000,1362.314771
893,1093.000,1346.56548
894,1094.000,1350.077612
895,1095.000,1362.50231
896,1096.000,1356.509813
897,1097.000,1370.44454
898,1098.000,1361.806666
899,1099.000,1355.676663
900,1100.000,1363.769129
901,1101.000,1361.4238
902,1102.000,1374.143694
903,1103.000,1375.604794
904,1104.000,1371.259667
905,1105.000,1365.396101
906,1106.000,1369.342367
907,1107.000,1376.136813
908,1108.000,1366.045754
909,1109.000,1367.093664
910,1110.000,1377.976492
911,1111.000,1378.315847
912,1112.000,1373.528101
913,1113.000,1374.336393
914,1114.000,1365.271125
915,1115.000,1385.118341
916,1116.000,1378.365796
917,1117.000,1371.558951
918,1118.000,1374.429714
919,1119.000,1376.911446
920,1120.000,1393.57977
921,1121.000,1388.605788
922,1122.000,1377.558501
923,1123.000,1397.842647
924,1124.000,1395.89197
925,1125.000,1382.679999
926,1126.000,1374.271468
927,1127.000,1397.22313
928,1128.000,1389.084829
929,1129.000,1393.166396
930,1130.000,1392.157983
931,1131.000,1404.233748
932,1132.000,1406.977583
933,1133.000,1404.45475
934,1134.000,1400.256726
935,1135.000,1404.388478
936,1136.000,1408.309259
937,1137.000,1397.0288
938,1138.000,1415.98844
939,1139.000,1408.859252
940,1140.000,1414.829264
941,1141.000,1416.863477
942,1142.000,1424.613566
943,1143.000,1429.197838
944,1144.000,1440.247243
945,1145.000,1429.846739
946,1146.000,1432.506212
947,1147.000,1445.994222
948,1148.000,1450.175045
949,1149.000,1470.28019
950,1150.000,1473.823881
951,1151.000,1495.747452
952,1152.000,1519.081327
953,1153.000,1538.202346
954,1154.000,1548.238021
955,1155.000,1561.894748
956,1156.000,1556.881214
957,1157.000,1526.225341
958,1158.000,1522.073752
959,1159.000,1504.697863
960,1160.000,1487.756529
961,1161.000,1474.425298
962,1162.000,1469.792964
963,1163.000,1465.286436
964,1164.000,1459.786931
965,1165.000,1462.86666
966,1166.000,1458.265003
967,1167.000,1447.302886
968,1168.000,1445.573975
969,1169.000,1455.176051
970,1170.000,1446.508328
971,1171.000,1452.926004
972,1172.000,1456.704479
973,1173.000,1462.728391
974,1174.000,1463.285915
975,1175.000,1473.664529
976,1176.000,1468.550414
977,1177.000,1483.575686
978,1178.000,1486.304386
979,1179.000,1504.945572
980,1180.000,1520.889407
981,1181.000,1532.018898
982,1182.000,1536.484112
983,1183.000,1563.948344
984,1184.000,1555.295648
985,1185.000,1540.444413
986,1186.000,1518.933677
987,1187.000,1505.776246
988,1188.000,1497.852475
989,1189.000,1485.414544
990,1190.000,1484.814369
991,1191.000,1472.984449
992,1192.000,1463.184892
993,1193.000,1468.655057
994,1194.000,1458.864426
995,1195.000,1462.231594
996,1196.000,1448.79537
997,1197.000,1456.637449
998,1198.000,1461.431872
999,1199.000,1453.753272
1000,1200.000,1457.242791
1001,1201.000,1460.835426
1002,1202.000,1457.707616
1003,1203.000,1468.120511
1004,1204.000,1456.033739
1005,1205.000,1456.759785
1006,1206.000,1457.176993
1007,1207.000,1446.632265
1008,1208.000,1449.680989
1009,1209.000,1462.505791
1010,1210.000,1457.786542
1011,1211.000,1468.574283
1012,1212.000,1460.273585
1013,1213.000,1460.241521
1014,1214.000,1467.970121
1015,1215.000,1464.006792
1016,1216.000,1472.533716
1017,1217.000,1457.142173
1018,1218.000,1466.707862
1019,1219.000,1468.739218
1020,1220.000,1468.599583
1021,1221.000,1472.785462
1022,1222.000,1472.670275
1023,1223.000,1467.340572
1024,1224.000,1464.408073
1025,1225.000,1474.276778
1026,1226.000,1469.34234
1027,1227.000,1475.448874
1028,1228.000,1478.467347
1029,1229.000,1472.223167
1030,1230.000,1466.269938
1031,1231.000,1470.806328
1032,1232.000,1477.71981
1033,1233.000,1472.226252
1034,1234.000,1481.376453
1035,1235.000,1475.212519
1036,1236.000,1476.426778
1037,1237.000,1472.531897
1038,1238.000,1476.339261
1039,1239.000,1484.141029
1040,1240.000,1476.153446
1041,1241.000,1476.833372
1042,1242.000,1474.780194
1043,1243.000,1484.755498
1044,1244.000,1471.56122
1045,1245.000,1477.381182
1046,1246.000,1487.374346
1047,1247.000,1491.061521
1048,1248.000,1481.806645
1049,1249.000,1489.53394
1050,1250.000,1472.464235
1051,1251.000,1489.519838
1052,1252.000,1487.341685
1053,1253.000,1478.861892
1054,1254.000,1476.135054
1055,1255.000,1484.390851
1056,1256.000,1489.587593
1057,1257.000,1490.850852
1058,1258.000,1489.912656
1059,1259.000,1494.480209
1060,1260.000,1494.662716
1061,1261.000,1482.762271
1062,1262.000,1489.362913
1063,1263.000,1489.1907
1064,1264.000,1499.014082
1065,1265.000,1490.495753
1066,1266.000,1500.077306
1067,1267.000,1495.187723
1068,1268.000,1509.301121
1069,1269.000,1495.522614
1070,1270.000,1496.432992
1071,1271.000,1496.320886
1072,1272.000,1498.456026
1073,1273.000,1512.723795
1074,1274.000,1495.708316
1075,1275.000,1494.073609
1076,1276.000,1498.688027
1077,1277.000,1504.47248
1078,1278.000,1495.079766
1079,1279.000,1506.346085
1080,1280.000,1506.712166
1081,1281.000,1501.698721
1082,1282.000,1501.731969
1083,1283.000,1499.071231
1084,1284.000,1502.705246
1085,1285.000,1500.104181
1086,1286.000,1512.90476
1087,1287.000,1515.752406
1088,1288.000,1504.834971
1089,1289.000,1506.832974
1090,1290.000,1496.227462
1091,1291.000,1504.979663
1092,1292.000,1510.717592
1093,1293.000,1510.85281
1094,1294.000,1510.483953
1095,1295.000,1515.34341
1096,1296.000,1511.3462
1097,1297.000,1508.997804
1098,1298.000,1521.445317
1099,1299.000,1500.867834
1100,1300.000,1505.943965
1101,1301.000,1508.964315
1102,1302.000,1509.52288
1103,1303.000,1509.756793
1104,1304.000,1513.548786
1105,1305.000,1511.123454
1106,1306.000,1515.548045
1107,1307.000,1519.917284
1108,1308.000,1517.041648
1109,1309.000,1518.158936
1110,1310.000,1512.25056
1111,1311.000,1511.540925
1112,1312.000,1517.07616
1113,1313.000,1524.850533
1114,1314.000,1522.042972
1115,1315.000,1526.77745
1116,1316.000,1526.695823
1117,1317.000,1527.950389
1118,1318.000,1516.887761
1119,1319.000,1529.590453
1120,1320.000,1527.188891
1121,1321.000,1535.531329
1122,1322.000,1527.122639
1123,1323.000,1526.015547
1124,1324.000,1523.762272
1125,1325.000,1525.98156
1126,1326.000,1515.592825
1127,1327.000,1524.424207
1128,1328.000,1526.143685
1129,1329.000,1532.731786
1130,1330.000,1523.359634
1131,1331.000,1528.513137
1132,1332.000,1539.061891
1133,1333.000,1525.455845
1134,1334.000,1534.08048
1135,1335.000,1526.311762
1136,1336.000,1529.333822
1137,1337.000,1533.111283
1138,1338.000,1536.0589
1139,1339.000,1528.293014
1140,1340.000,1525.568981
1141,1341.000,1541.120439
1142,1342.000,1533.61875
1143,1343.000,1537.653766
1144,1344.000,1538.782932
1145,1345.000,1538.274461
1146,1346.000,1532.626708
1147,1347.000,1533.78517
1148,1348.000,1525.762706
1149,1349.000,1536.484408
1150,1350.000,1533.031393
1151,1351.000,1536.090483
1152,1352.000,1547.733511
1153,1353.000,1541.114453
1154,1354.000,1537.743812
1155,1355.000,1529.751658
1156,1356.000,1542.545678
1157,1357.000,1547.645792
1158,1358.000,1534.125736
1159,1359.000,1541.913901
1160,1360.000,1536.71822
1161,1361.000,1539.273399
1162,1362.000,1538.390484
1163,1363.000,1531.402505
1164,1364.000,1538.284666
1165,1365.000,1532.111823
1166,1366.000,1550.271533
1167,1367.000,1548.612952
1168,1368.000,1543.086143
1169,1369.000,1544.851265
1170,1370.000,1543.916654
1171,1371.000,1545.122546
1172,1372.000,1545.477801
1173,1373.000,1543.277396
1174,1374.000,1544.077389
1175,1375.000,1537.494983
1176,1376.000,1539.88763
1177,1377.000,1542.590316
1178,1378.000,1547.759344
1179,1379.000,1544.707616
1180,1380.000,1558.509718
1181,1381.000,1546.51861
1182,1382.000,1545.900707
1183,1383.000,1550.922472
1184,1384.000,1554.809566
1185,1385.000,1560.030673
1186,1386.000,1555.224517
1187,1387.000,1546.388821
1188,1388.000,1549.228245
1189,1389.000,1556.793686
1190,1390.000,1552.501589
1191,1391.000,1556.072943
1192,1392.000,1551.308142
1193,1393.000,1561.554435
1194,1394.000,1561.036035
1195,1395.000,1559.537468
1196,1396.000,1554.237093
1197,1397.000,1544.246
1198,1398.000,1546.195838
1199,1399.000,1556.452445
1200,1400.000,1558.795053
1201,1401.000,1538.275917
1202,1402.000,1553.027426
1203,1403.000,1563.012805
1204,1404.000,1562.306681
1205,1405.000,1554.24552
1206,1406.000,1561.374668
1207,1407.000,1558.300033
1208,1408.000,1557.341066
1209,1409.000,1565.70916
1210,1410.000,1566.358216
1211,1411.000,1557.150975
1212,1412.000,1555.263104
1213,1413.000,1553.738902
1214,1414.000,1553.699586
1215,1415.000,1570.520392
1216,1416.000,1574.393353
1217,1417.000,1565.380056
1218,1418.000,1571.091617
1219,1419.000,1561.7433
1220,1420.000,1566.233768
1221,1421.000,1572.959387
1222,1422.000,1570.461362
1223,1423.000,1569.509621
1224,1424.000,1561.174653
1225,1425.000,1563.71416
1226,1426.000,1571.232805
1227,1427.000,1571.994976
1228,1428.000,1576.550242
1229,1429.000,1575.190808
1230,1430.000,1579.824155
1231,1431.000,1583.897329
1232,1432.000,1589.320195
1233,1433.000,1589.830158
1234,1434.000,1589.829385
1235,1435.000,1595.547136
1236,1436.000,1607.253503
1237,1437.000,1606.327521
1238,1438.000,1608.397231
1239,1439.000,1615.821149
1240,1440.000,1632.397584
1241,1441.000,1644.666457
1242,1442.000,1661.091135
1243,1443.000,1666.711154
1244,1444.000,1693.492153
1245,1445.000,1702.290788
1246,1446.000,1723.142331
1247,1447.000,1741.20712
1248,1448.000,1765.142846
1249,1449.000,1780.454281
1250,1450.000,1778.681602
1251,1451.000,1771.649098
1252,1452.000,1753.552524
1253,1453.000,1746.111808
1254,1454.000,1723.46055
1255,1455.000,1704.348143
1256,1456.000,1683.208804
1257,1457.000,1665.165894
1258,1458.000,1653.354983
1259,1459.000,1646.170903
1260,1460.000,1638.731505
1261,1461.000,1624.285918
1262,1462.000,1618.818824
1263,1463.000,1609.508653
1264,1464.000,1604.60404
1265,1465.000,1592.820009
1266,1466.000,1602.041906
1267,1467.000,1597.02338
1268,1468.000,1599.141202
1269,1469.000,1584.574007
1270,1470.000,1586.696092
1271,1471.000,1578.650257
1272,1472.000,1583.737799
1273,1473.000,1580.12508
1274,1474.000,1583.453147
1275,1475.000,1577.489421
1276,1476.000,1581.026765
1277,1477.000,1573.483308
1278,1478.000,1578.949748
1279,1479.000,1572.964004
1280,1480.000,1571.488401
1281,1481.000,1573.913325
1282,1482.000,1574.972189
1283,1483.000,1564.109951
1284,1484.000,1563.016002
1285,1485.000,1572.495902
1286,1486.000,1570.667502
1287,1487.000,1558.808334
1288,1488.000,1560.385092
1289,1489.000,1565.508726
1290,1490.000,1571.541605
1291,1491.000,1570.598158
1292,1492.000,1575.015976
1293,1493.000,1575.737105
1294,1494.000,1582.481492
1295,1495.000,1560.121104
1296,1496.000,1568.079327
1297,1497.000,1574.323797
1298,1498.000,1560.66079
1299,1499.000,1559.604602
1300,1500.000,1568.797136
1301,1501.000,1573.878355
1302,1502.000,1574.659687
1303,1503.000,1556.89933
1304,1504.000,1560.052251
1305,1505.000,1566.441836
1306,1506.000,1563.813681
1307,1507.000,1568.664599
1308,1508.000,1567.466699
1309,1509.000,1576.844444
1310,1510.000,1566.135372
1311,1511.000,1567.476919
1312,1512.000,1566.773723
1313,1513.000,1572.690308
1314,1514.000,1559.704974
1315,1515.000,1568.350644
1316,1516.000,1561.538431
1317,1517.000,1557.716295
1318,1518.000,1572.781058
1319,1519.000,1568.917615
1320,1520.000,1573.945652
1321,1521.000,1567.243937
1322,1522.000,1569.49773
1323,1523.000,1566.462326
1324,1524.000,1568.950985
1325,1525.000,1563.192956
1326,1526.000,1575.529602
1327,1527.000,1560.364211
1328,1528.000,1575.489396
1329,1529.000,1564.337025
1330,1530.000,1570.559843
1331,1531.000,1566.274687
1332,1532.000,1568.071825
1333,1533.000,1574.166105
1334,1534.000,1566.304149
1335,1535.000,1559.958604
1336,1536.000,1566.900039
1337,1537.000,1569.321642
1338,1538.000,1551.179133
1339,1539.000,1571.312391
1340,1540.000,1572.038822
1341,1541.000,1555.331219
1342,1542.000,1564.869078
1343,1543.000,1570.677217
1344,1544.000,1559.161506
1345,1545.000,1563.597566
1346,1546.000,1564.203862
1347,1547.000,1569.633307
1348,1548.000,1573.063154
1349,1549.000,1566.533716
1350,1550.000,1567.3091
1351,1551.000,1572.638846
1352,1552.000,1570.662613
1353,1553.000,1567.147067
1354,1554.000,1575.984113
1355,1555.000,1560.230443
1356,1556.000,1569.917593
1357,1557.000,1567.066931
1358,1558.000,1567.168525
1359,1559.000,1571.976277
1360,1560.000,1571.803034
1361,1561.000,1586.94279
1362,1562.000,1577.249282
1363,1563.000,1576.674813
1364,1564.000,1585.666139
1365,1565.000,1583.448591
1366,1566.000,1568.249426
1367,1567.000,1582.047596
1368,1568.000,1588.174012
1369,1569.000,1583.121459
1370,1570.000,1591.916108
1371,1571.000,1591.658944
1372,1572.000,1601.658717
1373,1573.000,1596.062662
1374,1574.000,1601.893214
1375,1575.000,1619.802428
1376,1576.000,1636.488739
1377,1577.000,1658.24238
1378,1578.000,1667.702188
1379,1579.000,1687.936565
1380,1580.000,1724.133167
1381,1581.000,1745.744611
1382,1582.000,1777.867694
1383,1583.000,1776.533434
1384,1584.000,1760.493648
1385,1585.000,1750.607997
1386,1586.000,1728.162835
1387,1587.000,1705.016791
1388,1588.000,1692.192992
1389,1589.000,1681.311177
1390,1590.000,1677.464916
1391,1591.000,1674.67213
1392,1592.000,1684.150182
1393,1593.000,1693.44243
1394,1594.000,1707.662957
1395,1595.000,1731.331759
1396,1596.000,1752.86347
1397,1597.000,1801.617515
1398,1598.000,1871.045773
1399,1599.000,1961.581849
1400,1600.000,2047.862556
1401,1601.000,2139.183186
1402,1602.000,2177.758641
1403,1603.000,2150.349195
1404,1604.000,2051.807699
1405,1605.000,1947.295135
1406,1606.000,1869.589601
1407,1607.000,1795.693246
1408,1608.000,1740.906139
1409,1609.000,1710.506869
1410,1610.000,1669.208003
1411,1611.000,1653.438959
1412,1612.000,1635.415776
1413,1613.000,1626.600137
1414,1614.000,1603.429676
1415,1615.000,1593.601536
1416,1616.000,1591.596662
1417,1617.000,1586.10878
1418,1618.000,1582.773589
1419,1619.000,1575.837088
1420,1620.000,1576.783008
1421,1621.000,1574.969131
1422,1622.000,1569.247569
1423,1623.000,1559.035999
1424,1624.000,1569.8359
1425,1625.000,1551.753661
1426,1626.000,1557.75263
1427,1627.000,1562.548326
1428,1628.000,1551.997279
1429,1629.000,1561.902004
1430,1630.000,1564.253951
1431,1631.000,1560.989679
1432,1632.000,1553.028501
1433,1633.000,1555.183014
1434,1634.000,1545.248904
1435,1635.000,1549.711258
1436,1636.000,1549.111502
1437,1637.000,1546.069251
1438,1638.000,1545.589118
1439,1639.000,1542.621224
1440,1640.000,1531.385606
1441,1641.000,1544.710214
1442,1642.000,1543.468422
1443,1643.000,1553.12746
1444,1644.000,1544.454838
1445,1645.000,1539.952576
1446,1646.000,1544.112871
1447,1647.000,1541.982595
1448,1648.000,1537.550797
1449,1649.000,1534.773407
1450,1650.000,1527.694177
1451,1651.000,1536.59752
1452,1652.000,1544.985929
1453,1653.000,1523.592184
1454,1654.000,1528.492719
1455,1655.000,1538.121743
1456,1656.000,1534.217547
1457,1657.000,1535.031905
1458,1658.000,1520.893957
1459,1659.000,1527.942811
1460,1660.000,1533.951692
1461,1661.000,1533.929884
1462,1662.000,1531.658966
1463,1663.000,1524.112399
1464,1664.000,1532.090815
1465,1665.000,1521.226035
1466,1666.000,1522.235346
1467,1667.000,1520.387936
1468,1668.000,1535.446708
1469,1669.000,1523.872667
1470,1670.000,1526.164743
1471,1671.000,1512.199053
1472,1672.000,1531.379374
1473,1673.000,1527.107521
1474,1674.000,1513.949885
1475,1675.000,1513.743329
1476,1676.000,1532.764527
1477,1677.000,1516.704908
1478,1678.000,1532.861672
1479,1679.000,1518.555522
1480,1680.000,1506.013459
1481,1681.000,1526.994024
1482,1682.000,1522.876259
1483,1683.000,1523.453515
1484,1684.000,1515.835898
1485,1685.000,1517.101864
1486,1686.000,1523.610795
1487,1687.000,1512.463626
1488,1688.000,1505.11312
1489,1689.000,1521.820976
1490,1690.000,1512.17515
1491,1691.000,1523.01711
1492,1692.000,1511.996145
1493,1693.000,1511.824861
1494,1694.000,1512.37125
1495,1695.000,1499.267833
1496,1696.000,1519.914372
1497,1697.000,1508.598891
1498,1698.000,1510.688904
1499,1699.000,1520.126922
1500,1700.000,1511.539657
1501,1701.000,1515.706027
1502,1702.000,1511.843653
1503,1703.000,1513.951932
1504,1704.000,1510.47378
1505,1705.000,1515.219933
1506,1706.000,1506.528308
1507,1707.000,1510.036983
1508,1708.000,1502.512897
1509,1709.000,1513.351951
1510,1710.000,1492.642213
1511,1711.000,1506.320994
1512,1712.000,1506.85035
1513,1713.000,1506.214308
1514,1714.000,1503.597136
1515,1715.000,1511.146706
1516,1716.000,1515.272102
1517,1717.000,1498.490954
1518,1718.000,1490.085242
1519,1719.000,1494.479764
1520,1720.000,1495.596231
1521,1721.000,1499.120216
1522,1722.000,1499.067916
1523,1723.000,1505.330036
1524,1724.000,1495.763522
1525,1725.000,1497.56225
1526,1726.000,1497.902091
1527,1727.000,1491.43305
1528,1728.000,1494.251528
1529,1729.000,1512.144064
1530,1730.000,1494.511259
1531,1731.000,1488.742243
1532,1732.000,1480.903626
1533,1733.000,1499.638752
1534,1734.000,1490.927983
1535,1735.000,1488.503344
1536,1736.000,1506.417971
1537,1737.000,1499.785966
1538,1738.000,1480.366251
1539,1739.000,1487.990168
1540,1740.000,1495.500719
1541,1741.000,1493.959778
1542,1742.000,1481.708757
1543,1743.000,1498.478548
1544,1744.000,1498.353989
1545,1745.000,1480.034255
1546,1746.000,1475.519106
1547,1747.000,1477.195731
1548,1748.000,1488.961869
1549,1749.000,1490.856147
1550,1750.000,1484.91193
1551,1751.000,1479.652575
1552,1752.000,1482.084936
1553,1753.000,1485.443394
1554,1754.000,1474.194371
1555,1755.000,1470.706531
1556,1756.000,1479.789524
1557,1757.000,1487.11727
1558,1758.000,1480.269231
1559,1759.000,1479.697296
1560,1760.000,1473.893928
1561,1761.000,1482.866297
1562,1762.000,1466.505603
1563,1763.000,1475.761787
1564,1764.000,1471.992522
1565,1765.000,1474.027141
1566,1766.000,1468.787309
1567,1767.000,1478.236045
1568,1768.000,1472.671416
1569,1769.000,1468.948912
1570,1770.000,1474.974038
1571,1771.000,1470.995892
1572,1772.000,1467.577586
1573,1773.000,1466.540463
1574,1774.000,1474.13692
1575,1775.000,1463.216423
1576,1776.000,1466.90108
1577,1777.000,1466.006084
1578,1778.000,1468.878305
1579,1779.000,1465.217586
1580,1780.000,1478.697367
1581,1781.000,1454.656043
1582,1782.000,1468.066897
1583,1783.000,1463.692533
1584,1784.000,1469.914373
1585,1785.000,1452.888273
1586,1786.000,1469.306337
1587,1787.000,1453.080327
1588,1788.000,1464.88946
1589,1789.000,1463.180737
1590,1790.000,1459.663879
1591,1791.000,1454.4215
1592,1792.000,1453.309933
1593,1793.000,1458.158562
1594,1794.000,1452.426493
1595,1795.000,1444.588729
1596,1796.000,1444.808563
1597,1797.000,1459.813834
1598,1798.000,1459.32016
1599,1799.000,1456.835625
1600,1800.000,1453.391682
1601,1801.000,1454.74923
1602,1802.000,1454.796703
1603,1803.000,1452.694164
1604,1804.000,1445.789414
1605,1805.000,1445.495894
1606,1806.000,1442.336402
1607,1807.000,1449.508215
1608,1808.000,1442.000323
1609,1809.000,1446.342831
1610,1810.000,1454.533804
1611,1811.000,1443.732516
1612,1812.000,1451.162971
1613,1813.000,1454.035059
1614,1814.000,1433.07512
1615,1815.000,1434.758304
1616,1816.000,1445.54454
1617,1817.000,1437.791242
1618,1818.000,1444.593778
1619,1819.000,1444.965299
1620,1820.000,1436.975724
1621,1821.000,1444.352731
1622,1822.000,1449.191592
1623,1823.000,1443.799457
1624,1824.000,1432.146132
1625,1825.000,1435.854017
1626,1826.000,1432.836962
1627,1827.000,1444.794299
1628,1828.000,1433.555133
1629,1829.000,1429.899588
1630,1830.000,1433.646366
1631,1831.000,1435.77622
1632,1832.000,1429.759359
1633,1833.000,1431.9745
1634,1834.000,1430.660785
1635,1835.000,1434.407885
1636,1836.000,1435.13724
1637,1837.000,1430.258288
1638,1838.000,1425.127262
1639,1839.000,1429.681283
1640,1840.000,1421.209105
1641,1841.000,1432.319022
1642,1842.000,1427.277602
1643,1843.000,1425.963859
1644,1844.000,1409.260131
1645,1845.000,1437.328691
1646,1846.000,1431.151126
1647,1847.000,1429.354556
1648,1848.000,1421.804555
1649,1849.000,1424.382713
1650,1850.000,1436.803733
1651,1851.000,1414.875511
1652,1852.000,1422.761397
1653,1853.000,1421.20486
1654,1854.000,1417.750233
1655,1855.000,1418.331482
1656,1856.000,1409.638438
1657,1857.000,1418.711508
1658,1858.000,1406.271508
1659,1859.000,1424.430874
1660,1860.000,1417.537008
1661,1861.000,1406.92905
1662,1862.000,1398.775873
1663,1863.000,1411.257956
1664,1864.000,1412.968029
1665,1865.000,1403.244549
1666,1866.000,1418.570786
1667,1867.000,1409.435713
1668,1868.000,1404.311998
1669,1869.000,1398.006231
1670,1870.000,1404.950442
1671,1871.000,1403.764045
1672,1872.000,1408.141787
1673,1873.000,1409.814168
1674,1874.000,1402.980731
1675,1875.000,1404.838322
1676,1876.000,1409.894568
1677,1877.000,1404.327294
1678,1878.000,1398.341902
1679,1879.000,1402.874746
1680,1880.000,1395.298474
1681,1881.000,1400.407517
1682,1882.000,1397.267985
1683,1883.000,1389.638359
1684,1884.000,1399.113693
1685,1885.000,1395.258449
1686,1886.000,1398.405781
1687,1887.000,1385.312018
1688,1888.000,1399.181834
1689,1889.000,1398.697904
1690,1890.000,1388.939519
1691,1891.000,1389.708401
1692,1892.000,1389.836117
1693,1893.000,1388.672515
1694,1894.000,1393.058495
1695,1895.000,1383.011251
1696,1896.000,1379.638936
1697,1897.000,1384.322131
1698,1898.000,1396.409192
1699,1899.000,1381.918079
1700,1900.000,1377.492174
1701,1901.000,1377.212006
1702,1902.000,1382.961897
1703,1903.000,1388.254863
1704,1904.000,1376.016885
1705,1905.000,1380.716321
1706,1906.000,1380.192347
1707,1907.000,1380.941615
1708,1908.000,1378.255417
1709,1909.000,1382.931761
1710,1910.000,1379.989637
1711,1911.000,1371.414735
1712,1912.000,1388.901227
1713,1913.000,1365.408909
1714,1914.000,1364.9181
1715,1915.000,1378.275609
1716,1916.000,1372.41898
1717,1917.000,1369.048873
1718,1918.000,1370.97844
1719,1919.000,1373.126702
1720,1920.000,1365.704235
1721,1921.000,1363.66453
1722,1922.000,1360.415593
1723,1923.000,1360.767245
1724,1924.000,1360.365996
1725,1925.000,1371.269515
1726,1926.000,1365.299996
1727,1927.000,1366.117639
1728,1928.000,1358.704047
1729,1929.000,1367.602681
1730,1930.000,1351.174999
1731,1931.000,1362.613339
1732,1932.000,1363.162232
1733,1933.000,1354.744009
1734,1934.000,1351.286767
1735,1935.000,1359.789346
1736,1936.000,1351.631439
1737,1937.000,1349.743547
1738,1938.000,1354.204398
1739,1939.000,1346.84454
1740,1940.000,1351.961048
1741,1941.000,1364.164964
1742,1942.000,1348.605794
1743,1943.000,1355.898627
1744,1944.000,1343.356487
1745,1945.000,1349.399243
1746,1946.000,1346.493386
1747,1947.000,1346.338891
1748,1948.000,1351.104245
1749,1949.000,1358.675235
1750,1950.000,1344.239452
1751,1951.000,1352.046114
1752,1952.000,1345.540484
1753,1953.000,1347.07663
1754,1954.000,1339.064697
1755,1955.000,1336.852297
1756,1956.000,1339.104575
1757,1957.000,1334.889926
1758,1958.000,1338.684117
1759,1959.000,1331.621209
1760,1960.000,1337.201948
1761,1961.000,1337.447111
1762,1962.000,1346.498543
1763,1963.000,1345.162547
1764,1964.000,1337.095503
1765,1965.000,1330.238064
1766,1966.000,1336.11529
1767,1967.000,1336.583487
1768,1968.000,1329.721838
1769,1969.000,1325.018845
1770,1970.000,1318.580208
1771,1971.000,1328.306307
1772,1972.000,1339.282461
1773,1973.000,1325.724046
1774,1974.000,1328.489678
1775,1975.000,1327.580699
1776,1976.000,1327.508163
1777,1977.000,1328.455068
1778,1978.000,1310.995915
1779,1979.000,1321.335195
1780,1980.000,1323.710279
1781,1981.000,1320.124155
1782,1982.000,1327.167622
1783,1983.000,1316.855631
1784,1984.000,1323.834033
1785,1985.000,1328.112651
1786,1986.000,1315.215747
1787,1987.000,1316.122284
1788,1988.000,1313.409131
1789,1989.000,1318.974759
1790,1990.000,1300.748815
1791,1991.000,1304.020203
1792,1992.000,1310.249109
1793,1993.000,1316.460507
1794,1994.000,1313.988178
1795,1995.000,1304.736012
1796,1996.000,1318.501009
1797,1997.000,1308.742721
1798,1998.000,1303.532241
1799,1999.000,1309.681659
1800,2000.000,1313.536784
