# kind,background_subtracted
# version_label,v_o3
# poly_order,3
# iterations_run,8
pixel_index,raman_shift_cm-1,intensity,background_intensity
0,200.000,38.93328635015786,292.24254864984215
1,201.000,35.65868966231699,293.184245337683
2,202.000,41.974333458793296,294.1274255412067
3,203.000,45.84652904297707,295.0720859570229
4,204.000,49.99919171825866,296.01822328174137
5,205.000,43.699909788028265,296.96583421197175
6,206.000,39.5842535556763,297.9149154443237
7,207.000,38.049633324593,298.865463675407
8,208.000,47.108684398168634,299.81747560183135
9,209.000,52.282521079793696,300.7709479202063
10,210.000,43.96777367285824,301.72587732714175
11,211.000,34.7882534807527,302.6822605192473
12,212.000,36.295431806867384,303.6400941931326
13,213.000,51.50166995459256,304.59937504540744
14,214.000,42.97512322731848,305.5600997726815
15,215.000,31.221035928435583,306.5222650715644
16,216.000,40.96743236133409,307.4858676386659
17,217.000,34.34576882940428,308.4509041705957
18,218.000,37.40466763603649,309.4173713639635
19,219.000,38.10739308462098,310.385265915379
20,220.000,36.61034247854809,311.3545845214519
21,221.000,44.06505612120816,312.32532387879183
22,222.000,40.22060331599147,313.2974806840085
23,223.000,36.91664036628828,314.27105163371175
24,224.000,42.76494357548893,315.2460334245111
25,225.000,45.13991924698365,316.22242275301636
26,226.000,30.156106684162808,317.20021631583717
27,227.000,38.32711519041675,318.17941080958326
28,228.000,33.836057069135734,319.16000293086427
29,229.000,38.53445362371002,320.14198937629
30,230.000,31.68951815752996,321.12536684247004
31,231.000,39.40262597398589,322.1101320260141
32,232.000,38.90343137646795,323.09628162353204
33,233.000,37.15679666836667,324.08381233163334
34,234.000,32.547160153072184,325.07272084692784
35,235.000,36.309294133974845,326.06300386602516
36,236.000,31.99000591446503,327.054658085535
37,237.000,30.258099797932914,328.0476802020671
38,238.000,39.589272087768904,329.0420669122311
39,239.000,31.435502087363204,330.0378149126368
40,240.000,44.964262100106225,331.0349208998938
41,241.000,42.092740429388186,332.0333815706118
42,242.000,25.656892378599366,333.03319362140064
43,243.000,39.12699625113021,334.0343537488698
44,244.000,30.73420935037086,335.03685864962915
45,245.000,37.392998979711706,336.04070502028827
46,246.000,37.306457442543035,337.045889557457
47,247.000,24.963964042255157,338.05240895774483
48,248.000,35.34375708223837,339.06025991776164
49,249.000,35.05917586588299,340.06943913411703
50,250.000,42.21542069657926,341.07994330342075
51,251.000,29.204121877717512,342.09176912228247
52,252.000,40.57032471268809,343.1049132873119
53,253.000,29.39739750488127,344.11937249511874
54,254.000,33.85254355768734,345.13514344231265
55,255.000,30.646401174496646,346.1522228255034
56,256.000,44.23047965869938,347.17060734130064
57,257.000,38.796127313685986,348.190293686314
58,258.000,49.825909442846694,349.2112785571533
59,259.000,38.935589349571785,350.2335586504282
60,260.000,40.00254033725162,351.2571306627484
61,261.000,39.825093709276416,352.28199129072357
62,262.000,30.98966176903656,353.30813723096344
63,263.000,34.057420819922356,354.33556518007765
64,264.000,42.42811616532407,355.36427183467595
65,265.000,31.794604108631972,356.394253891368
66,266.000,35.1547679532365,357.4255080467635
67,267.000,33.742633002527725,358.4580309974723
68,268.000,37.3732205598962,359.4918194401038
69,269.000,31.376364928732016,360.526870071268
70,270.000,32.49949441242563,361.5631795875744
71,271.000,34.7157563143673,362.6007446856327
72,272.000,33.72736893794729,363.63956206205273
73,273.000,27.767117586555912,364.6796284134441
74,274.000,38.17934156358348,365.7209404364165
75,275.000,24.86141617242032,366.7634948275797
76,276.000,25.29324171645669,367.8072882835433
77,277.000,24.65259349908297,368.852317500917
78,278.000,37.99696682368938,369.89857917631065
79,279.000,29.879054993666216,370.9460700063338
80,280.000,26.064046312403832,371.99478668759616
81,281.000,24.921686083292514,373.0447259167075
82,282.000,34.11214460972258,374.09588439027743
83,283.000,25.103855195084293,375.1482588049157
84,284.000,23.64797114276797,376.201845857232
85,285.000,34.81194575616399,377.256642243836
86,286.000,23.795295338662527,378.31264466133746
87,287.000,28.888477193654012,379.369849806346
88,288.000,30.630117624528623,380.4282543754714
89,289.000,27.846271934676736,381.4878550653233
90,290.000,30.04134042748865,382.54864857251135
91,291.000,38.24618940635463,383.6106315936454
92,292.000,26.95985617466505,384.673800825335
93,293.000,22.353083035810073,385.7381529641899
94,294.000,18.73619029318013,386.80368470681987
95,295.000,28.375846250165523,387.8703927498345
96,296.000,27.33872021015651,388.9382737898435
97,297.000,30.89067247654333,390.00732452345665
98,298.000,26.362572352716484,391.0775416472835
99,299.000,26.124174142066067,392.14892185793394
100,300.000,24.51613114798249,393.2214618520175
101,301.000,25.57354567385596,394.295158326144
102,302.000,29.501604023076993,395.37000797692303
103,303.000,26.106333499035657,396.44600750096436
104,304.000,28.83937440512227,397.5231535948777
105,305.000,39.49219204472735,398.60144295527266
106,306.000,30.808197721241015,399.680872278759
107,307.000,18.325448738053524,400.76143826194647
108,308.000,38.03174539855536,401.84313760144465
109,309.000,29.566094006136666,402.9259669938633
110,310.000,21.679504864187834,404.0099231358122
111,311.000,32.619122276099176,405.09500272390085
112,312.000,27.131700545260912,406.1812024547391
113,313.000,23.183490975063364,407.2685190249366
114,314.000,22.922884868896915,408.3569491311031
115,315.000,20.61258853015181,409.4464894698482
116,316.000,26.711240262218382,410.5371367377816
117,317.000,32.6848853684869,411.6288876315131
118,318.000,24.17124415234764,412.7217388476524
119,319.000,28.49618891719092,413.81568708280906
120,320.000,37.07492896640707,414.91072903359293
121,321.000,18.383440603386475,416.00686139661354
122,322.000,27.06617513151923,417.10408086848076
123,323.000,23.532605854195765,418.2023841458042
124,324.000,18.866010074806468,419.30176792519353
125,325.000,18.916918096741426,420.40222890325856
126,326.000,24.830883223391197,421.5037637766088
127,327.000,27.37650875814586,422.60636924185417
128,328.000,21.434669004395744,423.71004199560423
129,329.000,24.801578265531305,424.8147787344687
130,330.000,28.659664844942768,425.92057615505723
131,331.000,25.957113046020368,427.02743095397966
132,332.000,29.241255172154467,428.13533982784554
133,333.000,26.649256526735314,429.2442994732647
134,334.000,26.660729413153376,430.35430658684663
135,335.000,34.54447813479874,431.46535786520127
136,336.000,27.175851995061805,432.5774500049382
137,337.000,24.06596729733286,433.69057970266715
138,338.000,27.40129734500232,434.8047436549977
139,339.000,17.479565441460295,435.9199385585397
140,340.000,20.8209318900972,437.0361611099028
141,341.000,27.45952399430331,438.1534080056967
142,342.000,26.338143057468983,439.27167594253103
143,343.000,31.697007382984395,440.3909616170156
144,344.000,22.32328327423994,441.51126172576005
145,345.000,13.340281034625946,442.63257296537404
146,346.000,33.65173096753273,443.7548920324673
147,347.000,28.37980937635041,444.87821562364957
148,348.000,15.324435564469525,446.0025404355305
149,349.000,29.786417835280247,447.12786316471977
150,350.000,21.580718492172934,448.2541805078271
151,351.000,10.357767838537768,449.38148916146224
152,352.000,18.57447117776519,450.5097858222348
153,353.000,17.898644813245483,451.6390671867545
154,354.000,30.352852048368902,452.7693299516311
155,355.000,15.911271186525767,453.90057081347425
156,356.000,18.99812653110638,455.0327864688936
157,357.000,18.71564338550104,456.16597361449897
158,358.000,17.958982053100044,457.3001289469
159,359.000,14.6052208372937,458.4352491627063
160,360.000,21.261272041472296,459.5713309585277
161,361.000,26.264903969026193,460.7083710309738
162,362.000,23.40551292334561,461.84636607665436
163,363.000,13.954470207820975,462.985312792179
164,364.000,12.478637125842397,464.1252078741576
165,365.000,19.94969298080042,465.26604801919956
166,366.000,14.854946076085128,466.40782992391485
167,367.000,15.172265715087008,467.550550284913
168,368.000,8.73418620119611,468.69420579880386
169,369.000,30.37465983780305,469.83879316219696
170,370.000,24.03104792829788,470.9843090717021
171,371.000,12.547780776071022,472.130750223929
172,372.000,23.70064968451271,473.2781133154873
173,373.000,26.16674895701334,474.42639504298666
174,374.000,3.6352198969631786,475.5755921030368
175,375.000,14.539865807752449,476.7257011922475
176,376.000,15.366970992771599,477.8767190072284
177,377.000,21.445897755410783,479.0286422445892
178,378.000,16.68942639906038,480.18146760093964
179,379.000,15.8977692271107,481.3351917728893
180,380.000,16.792559542952006,482.489811457048
181,381.000,28.125468649974607,483.64532335002536
182,382.000,29.828420851568865,484.8017241484311
183,383.000,13.582904451125046,485.95901054887497
184,384.000,11.038026752033431,487.1171792479666
185,385.000,32.61474205768434,488.2762269423157
186,386.000,10.445197671468009,489.436150328532
187,387.000,12.747804896774824,490.59694610322515
188,388.000,16.272572036995143,491.75861096300486
189,389.000,18.81774239551919,492.9211416044808
190,390.000,21.957977275737164,494.0845347242628
191,391.000,17.995447981039547,495.24878701896046
192,392.000,10.281430814816588,496.41389518518343
193,393.000,18.420494080458525,497.5798559195415
194,394.000,16.74850408135569,498.74666591864434
195,395.000,26.37764212089843,499.9143218791016
196,396.000,14.893592502476963,501.082820497523
197,397.000,6.829553529481757,502.2521584705182
198,398.000,8.44940850530287,503.4223324946971
199,399.000,23.28892473333076,504.5933392666692
200,400.000,11.216041516955897,505.7651754830441
201,401.000,1.6992001595681927,506.9378378404318
202,402.000,10.711313964558144,508.11132303544184
203,403.000,14.06546923531613,509.28562776468385
204,404.000,21.068582275232416,510.46074872476754
205,405.000,7.7193653876972235,511.63668261230276
206,406.000,17.677206876100968,512.813426123899
207,407.000,18.320195043833678,513.9909759561663
208,408.000,9.223727194286084,515.1693288057139
209,409.000,12.166540630848203,516.3484813691518
210,410.000,23.78116965691038,517.5284303430897
211,411.000,23.360135575862955,518.709172424137
212,412.000,18.04349069109628,519.8907043089038
213,413.000,14.775543306000486,521.0730226939995
214,414.000,19.48760672396611,522.2561242760339
215,415.000,11.687948248383236,523.4400057516168
216,416.000,11.836098182642218,524.6246638173578
217,417.000,7.119523830133403,525.8100951698666
218,418.000,12.19048049424714,526.9962965057529
219,419.000,11.540804478373616,528.1832645216264
220,420.000,28.550890085903347,529.3709959140966
221,421.000,10.628629620226434,530.5594873797736
222,422.000,19.28758138473313,531.7487356152669
223,423.000,19.46303968281393,532.9387373171861
224,424.000,10.298967817858966,534.129489182141
225,425.000,18.31240909325868,535.3209879067413
226,426.000,0.0,536.5132301875967
227,427.000,11.623178278683099,537.7062127213169
228,428.000,16.076592795488523,538.8999322045115
229,429.000,0.0,540.0943853337902
230,430.000,3.738052194236957,541.289568805763
231,431.000,16.91017268296082,542.4854793170392
232,432.000,8.912736435771194,543.6821135642288
233,433.000,3.747099756058901,544.8794682439411
234,434.000,7.976632947213602,546.0775400527864
235,435.000,6.845018312626166,547.2763256873739
236,436.000,14.33000115568666,548.4758218443134
237,437.000,12.589831779785413,549.6760252202146
238,438.000,8.068777488312662,550.8769325116873
239,439.000,5.642158584658773,552.0785404153412
240,440.000,9.195464372214019,553.280845627786
241,441.000,17.35459815436866,554.4838448456313
242,442.000,11.383204234513187,555.6875347654868
243,443.000,13.00855091603762,556.8919120839623
244,444.000,8.157063502332562,558.0969734976675
245,445.000,1.1969792967881858,559.3027157032118
246,446.000,4.569991602794744,560.5091353972052
247,447.000,12.630100723742544,561.7162292762574
248,448.000,9.230061963021967,562.923994036978
249,449.000,3.076268624023214,564.1324263759768
250,450.000,0.0,565.3415229898634
251,451.000,8.941866424752561,566.5512805752475
252,452.000,6.130519171261199,567.7616958287388
253,453.000,5.954921553053055,568.9727654469469
254,454.000,5.97226887351826,570.1844861264817
255,455.000,9.543738436047079,571.396854563953
256,456.000,9.49880654402989,572.6098674559701
257,457.000,13.397181500857073,573.8235214991429
258,458.000,13.087707609918994,575.037813390081
259,459.000,15.40298617460553,576.2527398253944
260,460.000,12.142339498307365,577.4682975016926
261,461.000,5.184732884414871,578.6844831155852
262,462.000,6.7674766363179515,579.901293363682
263,463.000,9.953580057407294,581.1187249425927
264,464.000,5.022229451072917,582.3367745489271
265,465.000,10.076805120705444,583.5554388792946
266,466.000,13.598516369694835,584.7747146303052
267,467.000,1.766572501431483,585.9945984985685
268,468.000,0.0,587.2150871806941
269,469.000,13.531869626708158,588.4361773732918
270,470.000,6.375206227028684,589.6578657729713
271,471.000,10.419884923657833,590.8801490763421
272,472.000,0.0,592.1030239800143
273,473.000,16.36580281940269,593.3264871805973
274,474.000,10.300335625299226,594.5505353747008
275,475.000,5.013462741065268,595.7751652589347
276,476.000,3.559794470091674,597.0003735299083
277,477.000,6.257442115768185,598.2261568842318
278,478.000,4.4765519814855,599.4525120185145
279,479.000,3.708206370633661,600.6794356293664
280,480.000,0.0,601.906924413397
281,481.000,12.765629932784123,603.1349750672159
282,482.000,4.856331712566998,604.363584287433
283,483.000,5.447181229341936,605.5927487706581
284,484.000,5.462981786499427,606.8224652135005
285,485.000,0.0,608.0527303125704
286,486.000,7.882228235522916,609.283540764477
287,487.000,2.652232734169729,610.5148932658303
288,488.000,2.80013448675993,611.7467845132401
289,489.000,4.86314079668432,612.9792112033157
290,490.000,0.0,614.2121700326671
291,491.000,9.32422330209613,615.4456576979039
292,492.000,0.0,616.6796708956358
293,493.000,0.0,617.9142063224726
294,494.000,0.0,619.1492606750239
295,495.000,4.862437350100549,620.3848306498994
296,496.000,8.297560056291104,621.6209129437088
297,497.000,0.16612074693830436,622.8575042530617
298,498.000,0.0,624.094601274568
299,499.000,9.940299295162731,625.3322007048373
300,500.000,0.0,626.5702992404795
301,501.000,10.56568342189621,627.8088935781038
302,502.000,2.9875215856797013,629.0479804143203
303,503.000,0.0,630.2875564457386
304,504.000,0.0,631.5276183689684
305,505.000,5.838030119380619,632.7681628806193
306,506.000,8.322176322698851,634.0091866773012
307,507.000,1.7166785443764638,635.2506864556235
308,508.000,8.507709087803732,636.4926589121962
309,509.000,15.269029256371027,637.735100743629
310,510.000,1.4190263534685528,638.9780086465314
311,511.000,0.0,640.2213793175131
312,512.000,0.0,641.4652094531839
313,513.000,0.0,642.7094957501535
314,514.000,0.0,643.9542349050316
315,515.000,0.0,645.1994236144276
316,516.000,0.0,646.4450585749518
317,517.000,5.321033516786656,647.6911364832133
318,518.000,0.0,648.9376540358222
319,519.000,0.0,650.184607929388
320,520.000,14.015353139479544,651.4319948605205
321,521.000,8.08010447417064,652.6798115258293
322,522.000,4.920240378075732,653.9280546219243
323,523.000,4.458010154585168,655.1767208454148
324,524.000,12.271818107089189,656.4258068929108
325,525.000,4.792498538977952,657.675309461022
326,526.000,1.9775067536419328,658.9252252463581
327,527.000,0.0,660.1755509455286
328,528.000,0.939130744856584,661.4262832551434
329,529.000,0.0,662.6774188718122
330,530.000,0.0,663.9289544921444
331,531.000,0.0,665.1808868127501
332,532.000,0.861578469761298,666.4332125302387
333,533.000,0.0,667.6859283412202
334,534.000,6.235608057695913,668.939030942304
335,535.000,0.0,670.1925170301
336,536.000,0.0,671.4463833012178
337,537.000,11.992211547733064,672.700626452267
338,538.000,1.0126678201424966,673.9552431798575
339,539.000,7.916049819401223,675.2102301805987
340,540.000,7.4916578488991945,676.4655841511008
341,541.000,8.517551212026888,677.7213017879731
342,542.000,4.994664212174712,678.9773797878253
343,543.000,0.0,680.2338148472672
344,544.000,0.0,681.4906036629086
345,545.000,0.0,682.747742931359
346,546.000,0.0,684.0052293492282
347,547.000,0.0,685.263059613126
348,548.000,0.0,686.5212304196618
349,549.000,0.0,687.7797384654456
350,550.000,1.4610505529130933,689.0385804470869
351,551.000,0.0,690.2977530611956
352,552.000,0.0,691.5572530043812
353,553.000,0.0,692.8170769732533
354,554.000,0.0,694.077221664422
355,555.000,0.0,695.3376837744967
356,556.000,0.0,696.5984600000871
357,557.000,0.0,697.859547037803
358,558.000,0.0,699.1209415842541
359,559.000,2.214422663949904,700.3826403360501
360,560.000,3.0054930101995296,701.6446399898005
361,561.000,1.993363757884822,702.9069372421152
362,562.000,0.0,704.1695287896039
363,563.000,0.0,705.4324113288762
364,564.000,2.403371443458127,706.6955815565419
365,565.000,0.0,707.9590361692105
366,566.000,0.0,709.222771863492
367,567.000,0.0,710.486785335996
368,568.000,0.0,711.751073283332
369,569.000,1.7874025978902637,713.0156324021098
370,570.000,1.7461416110609207,714.2804593889391
371,571.000,8.137605059570433,715.5455509404296
372,572.000,4.11644524680878,716.8109037531913
373,573.000,1.1368934761666196,718.0765145238333
374,574.000,0.0,719.3423799489658
375,575.000,0.0,720.6084967251984
376,576.000,5.18738445085944,721.8748615491405
377,577.000,0.0,723.141471117402
378,578.000,2.9879548734072614,724.4083221265928
379,579.000,1.226300726677664,725.6754112733223
380,580.000,1.719596745799663,726.9427352542003
381,581.000,5.512744234163506,728.2102907658365
382,582.000,0.0,729.4780745048406
383,583.000,0.0,730.7460831678225
384,584.000,0.0,732.0143134513914
385,585.000,0.0,733.2827620521573
386,586.000,10.665554333270052,734.55142566673
387,587.000,0.0,735.8203009917191
388,588.000,8.090421276265715,737.0893847237343
389,589.000,6.115126440614858,738.3586735593851
390,590.000,5.739639804718308,739.6281641952817
391,591.000,6.4124546719667705,740.8978533280332
392,592.000,0.0,742.1677376542495
393,593.000,4.387001129459236,743.4378138705407
394,594.000,12.007288326484058,744.708078673516
395,595.000,0.0,745.9785287597853
396,596.000,2.9934201740417166,747.2491608259583
397,597.000,0.0,748.5199715686445
398,598.000,6.215546315546135,749.7909576844538
399,599.000,0.0,751.062115869996
400,600.000,15.338757178119408,752.3334428218806
401,601.000,4.267949763282672,753.6049352367173
402,602.000,0.0,754.8765898111158
403,603.000,19.420676758313903,756.1484032416861
404,604.000,15.86665577496251,757.4203722250375
405,605.000,14.781002542220335,758.6924934577796
406,606.000,16.815773363477433,759.9647636365225
407,607.000,13.833500542124057,761.237179457876
408,608.000,17.524745381550815,762.5097376184492
409,609.000,26.771308185147745,763.7824348148523
410,610.000,32.38381325630519,765.0552677436948
411,611.000,38.099661898413615,766.3282331015864
412,612.000,40.972231414863245,767.6013275851368
413,613.000,46.18658710904424,768.8745478909558
414,614.000,59.89744728434698,770.147890715653
415,615.000,83.33942624416181,771.4213527558381
416,616.000,105.17491029187909,772.6949307081209
417,617.000,118.38158673088913,773.9686212691108
418,618.000,143.0806708645822,775.2424211354178
419,619.000,174.49861199634836,776.5163270036517
420,620.000,179.75192842957824,777.7903355704218
421,621.000,171.1518474676618,779.0644435323381
422,622.000,137.98046141398993,780.3386475860101
423,623.000,118.05187057195246,781.6129444280475
424,624.000,93.26536824493951,782.8873307550605
425,625.000,77.70418373634209,784.1618032636579
426,626.000,50.67023634954967,785.4363586504503
427,627.000,56.300341387953154,786.7109936120469
428,628.000,41.13761815494274,787.9857048450573
429,629.000,34.70790895390837,789.2604890460916
430,630.000,19.3231190882409,790.5353429117591
431,631.000,21.773571861330424,791.8102631386696
432,632.000,26.33232957656685,793.0852464234332
433,633.000,5.977035537340839,794.3602894626591
434,634.000,14.824792047042934,795.6353889529571
435,635.000,15.187721409062874,796.9105415909371
436,636.000,5.17182092679127,798.1857440732088
437,637.000,12.799396903618685,799.4609930963813
438,638.000,4.726936642934675,800.7362853570653
439,639.000,13.052662448130604,802.0116175518694
440,640.000,7.945908622595653,803.2869863774043
441,641.000,5.349960469720827,804.5623885302791
442,642.000,15.377267292896363,805.8378207071037
443,643.000,7.716887395512117,807.1132796044878
444,644.000,10.04834208095906,808.3887619190409
445,645.000,0.0,809.6642643473729
446,646.000,0.0,810.9397835860934
447,647.000,5.951533668187608,812.2153163318123
448,648.000,6.028397718861129,813.4908592811389
449,649.000,0.0,814.7664091306833
450,650.000,4.6935664229449685,816.0419625770551
451,651.000,0.0,817.3175163168637
452,652.000,0.821370953280848,818.5930670467192
453,653.000,0.0,819.868611463231
454,654.000,1.1854147369908787,821.1441462630091
455,655.000,0.0,822.4196681426629
456,656.000,0.0,823.6951737988022
457,657.000,0.0,824.9706599280369
458,658.000,9.433907773023861,826.2461232269761
459,659.000,0.0,827.5215603922304
460,660.000,0.0,828.7969681204088
461,661.000,4.591340891878758,830.0723431081212
462,662.000,0.0,831.3476820519772
463,663.000,8.613096351413219,832.6229816485868
464,664.000,0.0,833.8982385945594
465,665.000,0.0,835.1734495865048
466,666.000,0.0,836.4486113210326
467,667.000,8.145829505247434,837.7237204947526
468,668.000,1.5695481957253605,838.9987738042746
469,669.000,0.680859053791778,840.2737679462082
470,670.000,0.0,841.548699617163
471,671.000,0.0,842.8235655137489
472,672.000,0.0,844.0983623325753
473,673.000,6.293535229747704,845.3730867702523
474,674.000,2.2867634766107585,846.6477355233892
475,675.000,0.3570187114040664,847.9223052885959
476,676.000,1.1110822375178486,849.1967927624821
477,677.000,0.0,850.4711946416573
478,678.000,0.0,851.7455076227316
479,679.000,0.0,853.0197284023145
480,680.000,0.0,854.2938536770155
481,681.000,0.0,855.5678801434444
482,682.000,0.0,856.8418044982111
483,683.000,0.0,858.115623437925
484,684.000,0.0,859.3893336591962
485,685.000,0.9971471413659856,860.662931858634
486,686.000,0.0,861.9364147328483
487,687.000,0.0,863.2097789784486
488,688.000,5.035471707955139,864.4830212920449
489,689.000,0.0,865.7561383702466
490,690.000,0.0,867.0291269096635
491,691.000,0.7788053930943306,868.3019836069057
492,692.000,2.726672841418008,869.574705158582
493,693.000,9.15378773869702,870.847288261303
494,694.000,1.6249693883220289,872.1197296116779
495,695.000,2.0736160936834267,873.3920259063166
496,696.000,0.0,874.6641738418286
497,697.000,1.6219728851763193,875.9361701148237
498,698.000,1.1582425780882204,877.2080114219118
499,699.000,0.0,878.4796944597022
500,700.000,0.0,879.7512159248049
501,701.000,0.0,881.0225725138296
502,702.000,0.0,882.2937609233859
503,703.000,0.0,883.5647778500834
504,704.000,0.0,884.835619990532
505,705.000,0.0,886.106284041341
506,706.000,0.0,887.3767666991207
507,707.000,0.0,888.6470646604805
508,708.000,0.009770377970085065,889.91717462203
509,709.000,0.0,891.187093280379
510,710.000,0.0,892.4568173321372
511,711.000,0.0,893.7263434739143
512,712.000,0.0,894.9956684023198
513,713.000,0.0,896.2647888139638
514,714.000,6.354133594544237,897.5337014054558
515,715.000,0.0,898.8024028734053
516,716.000,0.0,900.0708899144222
517,717.000,0.0,901.3391592251162
518,718.000,9.419418497902939,902.607207502097
519,719.000,0.0,903.8750314419742
520,720.000,0.0,905.1426277413577
521,721.000,0.0,906.4099930968569
522,722.000,0.0,907.6771242050818
523,723.000,0.0,908.9440177626418
524,724.000,0.0,910.2106704661469
525,725.000,0.0,911.4770790122066
526,726.000,0.0,912.7432400974305
527,727.000,0.0,914.0091504184288
528,728.000,0.0,915.2748066718104
529,729.000,0.0,916.5402055541856
530,730.000,0.0,917.8053437621641
531,731.000,4.8773800076446605,919.0702179923553
532,732.000,6.364301058630872,920.3348249413691
533,733.000,4.645139694184763,921.5991613058152
534,734.000,6.342418217696945,922.8632237823031
535,735.000,0.0,924.1270090674425
536,736.000,0.0,925.3905138578434
537,737.000,5.344235149884639,926.6537348501154
538,738.000,0.2822752591321205,927.9166687408679
539,739.000,0.0,929.1793122267109
540,740.000,0.0,930.4416620042541
541,741.000,0.0,931.7037147701071
542,742.000,3.233105779120592,932.9654672208794
543,743.000,0.9790089468187944,934.2269160531812
544,744.000,0.0,935.4880579636217
545,745.000,0.0,936.7488896488107
546,746.000,0.0,938.0094078053583
547,747.000,1.5196138701262498,939.2696091298737
548,748.000,5.599718681032982,940.529490318967
549,749.000,9.351766930752547,941.7890480692474
550,750.000,0.0,943.0482790773251
551,751.000,0.0,944.3071800398093
552,752.000,0.0,945.5657476533104
553,753.000,7.31498638556252,946.8239786144375
554,754.000,10.35188038019976,948.0818696198003
555,755.000,0.0,949.339417366009
556,756.000,2.1491484503272886,950.5966185496727
557,757.000,1.1087431325984198,951.8534698674016
558,758.000,0.0,953.109968015805
559,759.000,0.0,954.3661096914927
560,760.000,0.0,955.6218915910747
561,761.000,4.960455588839864,956.8773104111601
562,762.000,0.0,958.1323628483594
563,763.000,0.0,959.3870455992815
564,764.000,0.0,960.6413553605369
565,765.000,10.01824217126557,961.8952888287345
566,766.000,5.614608299515794,963.1488427004842
567,767.000,3.2145703276038375,964.4020136723962
568,768.000,1.6781645589204572,965.6547984410795
569,769.000,0.0,966.9071937031445
570,770.000,3.656566844799613,968.1591961552003
571,771.000,2.747821506142941,969.4108024938571
572,772.000,3.653256584275937,970.662009415724
573,773.000,5.536336382588956,971.9128136174111
574,774.000,7.161600204471711,973.1632117955282
575,775.000,16.45558035331544,974.4132006466846
576,776.000,0.0,975.6627768674905
577,777.000,10.56455684544494,976.9119371545551
578,778.000,6.365646795511566,978.1606782044885
579,779.000,4.570671286099923,979.4089967139
580,780.000,0.0,980.6568893793997
581,781.000,18.31989310240283,981.9043528975972
582,782.000,10.81915303489825,983.1513839651018
583,783.000,14.679511721476274,984.3979792785237
584,784.000,24.961452465527714,985.6441355344723
585,785.000,19.21332757044229,986.8898494295577
586,786.000,30.19624033961111,988.1351176603889
587,787.000,34.8433920764237,989.3799369235762
588,788.000,46.472239084270996,990.6243039157291
589,789.000,55.3802356665426,991.8682153334573
590,790.000,53.131956126629575,993.1116678733704
591,791.000,74.04395776792171,994.3546582320782
592,792.000,78.72013589380958,995.5971831061904
593,793.000,90.03290480768305,996.8392391923169
594,794.000,95.33052181293306,998.0808231870669
595,795.000,104.00181421294974,999.3219317870503
596,796.000,89.4459113111227,1000.5625616888774
597,797.000,91.08364141084326,1001.8027095891568
598,798.000,86.6958048155011,1003.0423721844988
599,799.000,67.29287582848656,1004.2815461715134
600,800.000,71.06717875319009,1005.5202282468099
601,801.000,45.58188589300198,1006.758415106998
602,802.000,43.73771855131258,1007.9961034486873
603,803.000,33.30479203151208,1009.233289968488
604,804.000,27.34861163699088,1010.4699713630091
605,805.000,20.154026671139036,1011.706144328861
606,806.000,20.149572437347388,1012.9418055626527
607,807.000,20.225260239005365,1014.1769517609946
608,808.000,13.357119379504184,1015.4115796204958
609,809.000,21.500359162233735,1016.6456858377662
610,810.000,23.67624989058413,1017.8792671094159
611,811.000,3.9878058679462356,1019.1123201320538
612,812.000,16.988698397709868,1020.3448416022902
613,813.000,12.100670783265059,1021.5768282167348
614,814.000,11.56931332800309,1022.808276671997
615,815.000,24.1299433353131,1024.0391836646868
616,816.000,15.951606108586702,1025.2695458914134
617,817.000,10.175673951213184,1026.499360048787
618,818.000,8.785259166582819,1027.7286228334171
619,819.000,0.0,1028.9573309419134
620,820.000,11.591795929114369,1030.1854810708855
621,821.000,2.143420083056526,1031.4130699169434
622,822.000,7.407942823303529,1032.6400941766965
623,823.000,6.692124453245242,1033.8665505467548
624,824.000,11.651695276272221,1035.0924357237277
625,825.000,17.882615595775178,1036.3177464042249
626,826.000,11.434844715143527,1037.5424792848564
627,827.000,13.025480937768634,1038.7666310622315
628,828.000,3.853688567039626,1039.9901984329604
629,829.000,7.885341906348003,1041.213178093652
630,830.000,9.670800259083308,1042.4355667409168
631,831.000,0.0,1043.6573610713642
632,832.000,17.152453218396204,1044.8785577816038
633,833.000,0.5547804317543523,1046.0991535682456
634,834.000,0.0,1047.3191451278988
635,835.000,14.558410842826333,1048.5385291571736
636,836.000,17.4324366473204,1049.7573023526795
637,837.000,0.47824358897401,1050.975461411026
638,838.000,0.998873971176863,1052.1930030288231
639,839.000,23.33828809731972,1053.4099239026802
640,840.000,5.336308270792642,1054.6262207292073
641,841.000,0.0,1055.841890205014
642,842.000,0.9899819732900141,1057.05692902671
643,843.000,16.68473210909542,1058.2713338909045
644,844.000,8.63935850579196,1059.485101494208
645,845.000,9.213678466769807,1060.6982285332301
646,846.000,12.068502295419876,1061.91071170458
647,847.000,8.799266295132156,1063.1225477048679
648,848.000,2.771943769297195,1064.3337332307028
649,849.000,0.0,1065.544264978695
650,850.000,7.511180354545786,1066.7541396454542
651,851.000,0.0,1067.96335392759
652,852.000,4.567674478288382,1069.1719045217117
653,853.000,15.498518875570426,1070.3797881244295
654,854.000,8.230346567646848,1071.5870014323532
655,855.000,5.387194857908071,1072.793541142092
656,856.000,5.47006704974433,1073.9994039502558
657,857.000,9.508324446545657,1075.2045865534544
658,858.000,10.700301351702592,1076.4090856482974
659,859.000,0.0,1077.6128979313944
660,860.000,6.3893519006446695,1078.8160200993552
661,861.000,15.624456151210097,1080.0184488487898
662,862.000,9.912332123692522,1081.2201808763075
663,863.000,0.8523001214821306,1082.421212878518
664,864.000,1.423555447968738,1083.6215415520312
665,865.000,0.0,1084.8211635934567
666,866.000,0.8613743005957986,1086.0200756994043
667,867.000,15.325404433516724,1087.2182745664834
668,868.000,5.3295811086959475,1088.415756891304
669,869.000,0.6808796295242701,1089.6125193704756
670,870.000,2.4195152993918327,1090.8085587006083
671,871.000,5.278100421688805,1092.0038715783112
672,872.000,5.370643299805579,1093.1984547001944
673,873.000,3.954408237132384,1094.3923047628675
674,874.000,1.5329745370599994,1095.58541846294
675,875.000,10.037187502977986,1096.7777924970221
676,876.000,15.520116438277,1097.969423561723
677,877.000,2.9532056463472145,1099.1603083536527
678,878.000,3.1862344305793613,1100.3504435694206
679,879.000,13.6437660943634,1101.5398259056367
680,880.000,0.0,1102.7284520589103
681,881.000,3.109380274148407,1103.9163187258516
682,882.000,4.465461396929868,1105.1034226030702
683,883.000,7.817846612824496,1106.2897603871754
684,884.000,5.239446225222537,1107.4753287747774
685,885.000,1.6481835375145693,1108.6601244624853
686,886.000,8.91036385309053,1109.8441441469095
687,887.000,0.0013784753409709083,1111.027384524659
688,888.000,0.0,1112.2098422923443
689,889.000,0.0,1113.3915141465745
690,890.000,11.865515216040649,1114.5723967839594
691,891.000,0.0,1115.7524869011088
692,892.000,10.22340380536798,1116.931781194632
693,893.000,11.650373638860401,1118.1102763611395
694,894.000,12.55337290275952,1119.2879690972404
695,895.000,6.750543900455568,1120.4648560995445
696,896.000,4.596913935338762,1121.6409340646612
697,897.000,8.488439310798867,1122.816199689201
698,898.000,4.501127330227064,1123.990649669773
699,899.000,0.43629029701287436,1125.164280702987
700,900.000,15.776963514547333,1126.3370894854527
701,901.000,2.9693862862202423,1127.5090727137797
702,902.000,19.203913915421936,1128.680227084578
703,903.000,11.61063570554279,1129.850549294457
704,904.000,5.889092959973141,1131.0200360400268
705,905.000,11.337640982103494,1132.1886840178965
706,906.000,16.188931075323808,1133.3564899246762
707,907.000,0.6344805430244378,1134.5234504569755
708,908.000,3.4429256885957784,1135.6895623114042
709,909.000,2.807258815428213,1136.8548221845717
710,910.000,10.193415226912066,1138.019226773088
711,911.000,11.730188226437349,1139.1827727735626
712,912.000,9.581077117394443,1140.3454568826055
713,913.000,5.141754203173832,1141.5072757968262
714,914.000,6.445251787165944,1142.668226212834
715,915.000,16.844409172760606,1143.8283048272394
716,916.000,16.531279663348414,1144.9875083366517
717,917.000,10.726563562319825,1146.1458334376803
718,918.000,2.184968173064817,1147.3032768269352
719,919.000,13.929008798973882,1148.4598352010262
720,920.000,11.999323743437344,1149.6155052565628
721,921.000,11.904426309845121,1150.7702836901549
722,922.000,20.884527801588092,1151.9241671984119
723,923.000,15.545561522056232,1153.0771524779439
724,924.000,4.895158774639867,1154.2292362253602
725,925.000,5.075101862729525,1155.3804151372706
726,926.000,19.26907208971511,1156.530685910285
727,927.000,12.347033758987209,1157.6800452410127
728,928.000,16.56274717393626,1158.8284898260638
729,929.000,10.731890637951892,1159.976016362048
730,930.000,5.805570454425379,1161.1226215455747
731,931.000,13.582408926746439,1162.2683020732536
732,932.000,21.487967358305013,1163.413054641695
733,933.000,14.309291052491972,1164.556875947508
734,934.000,5.663967312697878,1165.6997626873022
735,935.000,10.72812244231227,1166.8417115576876
736,936.000,9.781930744726196,1167.9827192552739
737,937.000,13.989006523329408,1169.1227824766706
738,938.000,19.24940508151235,1170.2618979184876
739,939.000,25.14678272266542,1171.4000622773347
740,940.000,14.872012750178783,1172.5372722498212
741,941.000,11.1344854674428,1173.6735245325572
742,942.000,14.355929177847884,1174.8088158221522
743,943.000,14.169370184784157,1175.9431428152159
744,944.000,11.708453791642114,1177.0765022083579
745,945.000,14.587499301812159,1178.2088906981878
746,946.000,14.642240018684106,1179.340304981316
747,947.000,7.788393245648649,1180.4707417543514
748,948.000,18.342332286095825,1181.6001977139042
749,949.000,13.09442344341619,1182.7286695565838
750,950.000,9.5913600209999,1183.856153979
751,951.000,18.665457322237444,1184.9826476777625
752,952.000,13.040955650518981,1186.108147349481
753,953.000,26.670968309234922,1187.2326496907651
754,954.000,19.3285926017752,1188.3561513982247
755,955.000,17.188392831530564,1189.4786491684695
756,956.000,12.468051301891364,1190.6001396981087
757,957.000,14.852340316247364,1191.7206196837526
758,958.000,22.690933177989336,1192.8400858220107
759,959.000,13.794423190507132,1193.958534809493
760,960.000,22.82083265719166,1195.0759633428083
761,961.000,6.020682881432776,1196.1923681185672
762,962.000,20.20248716662104,1197.307745833379
763,963.000,24.30696081614633,1198.4220931838536
764,964.000,21.874904133399696,1199.5354068666004
765,965.000,20.285085421770646,1200.6476835782294
766,966.000,26.871002984649976,1201.75892001535
767,967.000,16.21813212542793,1202.869112874572
768,968.000,16.028229147494812,1203.9782588525052
769,969.000,23.18485735424065,1205.0863546457595
770,970.000,30.44893004905589,1206.1933969509441
771,971.000,26.560371535330887,1207.2993824646692
772,972.000,23.609733116456027,1208.4043078835439
773,973.000,27.45693309582157,1209.5081699041784
774,974.000,29.276794776817724,1210.6109652231823
775,975.000,20.218339462834592,1211.7126905371654
776,976.000,12.00140045726289,1212.813342542737
777,977.000,24.03783306349328,1213.9129179365068
778,978.000,22.69840958491477,1215.0114134150851
779,979.000,29.846981324918943,1216.108825675081
780,980.000,27.99280558689543,1217.2051514131047
781,981.000,32.15437767423441,1218.3003873257655
782,982.000,42.41610089032679,1219.3945301096733
783,983.000,43.25205753856244,1220.4875764614376
784,984.000,45.85313792233205,1221.579523077668
785,985.000,59.8845963450251,1222.670366654975
786,986.000,51.824388110032714,1223.7601038899672
787,987.000,57.909048520745046,1224.8487314792549
788,988.000,74.61104788055218,1225.9362461194478
789,989.000,68.7672384928444,1227.0226445071555
790,990.000,76.22117066101214,1228.1079233389878
791,991.000,107.34153668844579,1229.1920793115542
792,992.000,119.08940587853544,1230.2751091214645
793,993.000,144.0771845346717,1231.3570094653282
794,994.000,176.26231996024444,1232.4377770397555
795,995.000,222.70597345864417,1233.5174085413557
796,996.000,279.0734093332617,1234.5959006667383
797,997.000,376.49705688748645,1235.6732501125136
798,998.000,509.7778314247089,1236.749453575291
799,999.000,708.80879124832,1237.8245077516801
800,1000.000,916.2061096617094,1238.8984093382905
801,1001.000,1011.9218189682674,1239.9711550317325
802,1002.000,919.7203924713847,1241.0427415286151
803,1003.000,727.5078614744516,1242.1131655255483
804,1004.000,512.2810552808583,1243.1824237191418
805,1005.000,385.6334801939947,1244.2505128060052
806,1006.000,292.2740095172519,1245.3174294827481
807,1007.000,229.4503065540191,1246.3831704459808
808,1008.000,174.5089386076877,1247.4477323923122
809,1009.000,155.75993798164768,1248.5111120183524
810,1010.000,130.41994697928885,1249.5733060207112
811,1011.000,109.62466190400187,1250.634311095998
812,1012.000,96.44198805917722,1251.6941239408227
813,1013.000,91.21657174820507,1252.752741251795
814,1014.000,88.98825627447559,1253.8101597255245
815,1015.000,84.2417519413791,1254.866376058621
816,1016.000,89.84507605230601,1255.921386947694
817,1017.000,72.60679691064638,1256.9751890893535
818,1018.000,78.453401819791,1258.027779180209
819,1019.000,73.59593308312992,1259.0791539168702
820,1020.000,83.90851900405346,1260.1293099959466
821,1021.000,84.95129288595149,1261.1782441140485
822,1022.000,87.93658803221479,1262.2259529677851
823,1023.000,94.12675174623405,1263.272433253766
824,1024.000,112.44671933139853,1264.3176816686014
825,1025.000,139.73535809109944,1265.3616949089005
826,1026.000,177.29784332872646,1266.4044696712735
827,1027.000,215.87481034767052,1267.4460026523295
828,1028.000,262.80246145132105,1268.4862905486789
829,1029.000,340.3232469430693,1269.5253300569307
830,1030.000,413.9933631263052,1270.5631178736949
831,1031.000,443.8469483044189,1271.5996506955812
832,1032.000,412.8601687808007,1272.6349252191994
833,1033.000,345.31608485884067,1273.6689381411593
834,1034.000,267.3559758419299,1274.70168615807
835,1035.000,201.83082603345838,1275.7331659665417
836,1036.000,150.26797173681575,1276.7633742631842
837,1037.000,128.11402825539312,1277.792307744607
838,1038.000,97.23809889258064,1278.8199631074194
839,1039.000,89.59278995176851,1279.8463370482316
840,1040.000,79.92827773634667,1280.8714262636533
841,1041.000,60.4433895497059,1281.8952274502942
842,1042.000,60.165759695236375,1282.9177373047637
843,1043.000,53.065263476328255,1283.9389525236718
844,1044.000,61.78396119637205,1284.958869803628
845,1045.000,49.23094815875811,1285.9774858412418
846,1046.000,31.994935666876472,1286.9947973331234
847,1047.000,43.30723602411763,1288.0108009758824
848,1048.000,40.90139053387179,1289.0254934661282
849,1049.000,35.30529749952916,1290.0388715004708
850,1050.000,32.6328642244805,1291.0509317755195
851,1051.000,37.06339601211539,1292.0616709878846
852,1052.000,36.223291165824776,1293.0710858341752
853,1053.000,33.78821798899867,1294.0791730110013
854,1054.000,24.267201785027737,1295.0859292149723
855,1055.000,27.88707785730162,1296.0913511426984
856,1056.000,19.304805509210837,1297.0954354907892
857,1057.000,19.020920044146123,1298.0981789558539
858,1058.000,24.046958765497266,1299.0995782345028
859,1059.000,20.55343897665489,1300.099630023345
860,1060.000,23.92066498100894,1301.098331018991
861,1061.000,40.842166081950154,1302.09567791805
862,1062.000,28.53238658286864,1303.0916674171312
863,1063.000,19.89909078715482,1304.0862962128451
864,1064.000,11.91491499819881,1305.0795610018013
865,1065.000,19.554231519390896,1306.0714584806092
866,1066.000,15.704059654121465,1307.0619853458786
867,1067.000,10.87092470578068,1308.0511382942193
868,1068.000,28.166864977759133,1309.0389140222408
869,1069.000,20.736479773447172,1310.0253092265527
870,1070.000,26.082562396234607,1311.0103206037654
871,1071.000,41.82880814951204,1311.9939448504879
872,1072.000,24.77244133667,1312.97617866333
873,1073.000,23.722976261098665,1313.9570187389013
874,1074.000,24.99882622618793,1314.936461773812
875,1075.000,21.2020875353287,1315.9145044646714
876,1076.000,17.746363491910415,1316.8911435080895
877,1077.000,21.35003239932439,1317.8663756006756
878,1078.000,29.409667560960543,1318.8401974390395
879,1079.000,20.873371280208858,1319.8126057197912
880,1080.000,14.222091860460068,1320.78359713954
881,1081.000,14.910887605104108,1321.753168394896
882,1082.000,16.17820881753164,1322.7213161824684
883,1083.000,22.39406080113281,1323.6880371988673
884,1084.000,25.19807585929766,1324.6533281407023
885,1085.000,25.185921295416847,1325.617185704583
886,1086.000,29.43964341288074,1326.5796065871193
887,1087.000,21.095677515079387,1327.5405874849207
888,1088.000,27.359307905403057,1328.500125094597
889,1089.000,24.33567488724225,1329.4582161127578
890,1090.000,26.657525763986996,1330.414857236013
891,1091.000,11.417081839028242,1331.3700451609718
892,1092.000,29.990994415755495,1332.3237765842446
893,1093.000,13.289431797559473,1333.2760482024405
894,1094.000,15.850755287830452,1334.2268567121696
895,1095.000,27.32611118995851,1335.1761988100416
896,1096.000,20.38574180733417,1336.1240711926657
897,1097.000,33.374069443347935,1337.070470556652
898,1098.000,23.791272401389506,1338.0153935986104
899,1099.000,16.717825984849924,1338.95883701515
900,1100.000,23.868331497119016,1339.900797502881
901,1101.000,20.58252824158717,1340.8412717584129
902,1102.000,32.36343752164453,1341.7802564783556
903,1103.000,32.88704564068166,1342.7177483593184
904,1104.000,27.60592290208865,1343.6537440979114
905,1105.000,20.807860609256068,1344.588240390744
906,1106.000,23.82113306557403,1345.521233934426
907,1107.000,29.684091574432614,1346.4527214255675
908,1108.000,18.663054439222606,1347.3826995607774
909,1109.000,18.78249896333432,1348.3111650366657
910,1110.000,28.738377450157486,1349.2381145498425
911,1111.000,28.152302203082854,1350.1635447969172
912,1112.000,22.440648525500592,1351.0874524744995
913,1113.000,22.32655872080113,1352.009834279199
914,1114.000,12.340438092374598,1352.9306869076254
915,1115.000,31.26833394361165,1353.8500070563884
916,1116.000,23.598004577901975,1354.767791422098
917,1117.000,15.874914298635986,1355.684036701364
918,1118.000,17.8309744092046,1356.5987395907955
919,1119.000,19.399549212997726,1357.5118967870023
920,1120.000,35.156265013405346,1358.4235049865947
921,1121.000,29.272227113818417,1359.3335608861817
922,1122.000,17.316439817626815,1360.2420611823732
923,1123.000,36.69364442822075,1361.1490025717792
924,1124.000,33.83758824899087,1362.054381751009
925,1125.000,19.721803583327528,1362.9581954166724
926,1126.000,10.411027734620347,1363.8604402653796
927,1127.000,32.46201700626057,1364.7611129937395
928,1128.000,23.424618701637655,1365.6602102983622
929,1129.000,26.608667124142585,1366.5577288758575
930,1130.000,24.704317577165057,1367.453665422835
931,1131.000,35.885731364096046,1368.348016635904
932,1132.000,37.73680378832523,1369.2407792116749
933,1133.000,34.32280015324318,1370.131949846757
934,1134.000,29.235200762240083,1371.02152523776
935,1135.000,32.47897591870651,1371.9095020812936
936,1136.000,35.51338192603248,1372.7958770739676
937,1137.000,23.348153087608353,1373.6806469123917
938,1138.000,41.42463170682481,1374.5638082931753
939,1139.000,33.41389408707164,1375.4453579129283
940,1140.000,38.5039715317389,1376.325292468261
941,1141.000,39.65986834421801,1377.203608655782
942,1142.000,46.5332628278984,1378.0803031721016
943,1143.000,50.24246528617027,1378.9553727138298
944,1144.000,60.418429022424334,1379.8288139775757
945,1145.000,49.14611534005098,1380.700623659949
946,1146.000,50.9354135424403,1381.5707984575597
947,1147.000,63.5548869329823,1382.4393350670177
948,1148.000,66.86881481506771,1383.3062301849322
949,1149.000,86.10870949208675,1384.1714805079132
950,1150.000,88.78879826742991,1385.0350827325701
951,1151.000,109.8504184444871,1385.897033555513
952,1152.000,132.32399732664862,1386.7573296733515
953,1153.000,150.58637821730485,1387.6159677826952
954,1154.000,159.7650764198463,1388.4729445801536
955,1155.000,172.56649123766329,1389.3282567623367
956,1156.000,166.6993129741461,1390.181901025854
957,1157.000,135.19146693268476,1391.0338740673153
958,1158.000,130.18957941666963,1391.8841725833304
959,1159.000,111.96506972949123,1392.7327932705089
960,1160.000,94.1767961745395,1393.5797328254605
961,1161.000,80.00031005520532,1394.4249879447948
962,1162.000,74.52440867487849,1395.2685553251215
963,1163.000,69.17600433694929,1396.1104316630508
964,1164.000,62.83631734480855,1396.9506136551915
965,1165.000,65.07756200184599,1397.789097998154
966,1166.000,59.63912161145254,1398.6258813885474
967,1167.000,47.84192547701764,1399.4609605229823
968,1168.000,45.27964290193245,1400.2943320980676
969,1169.000,54.05005818958671,1401.1259928104132
970,1170.000,44.552388643370705,1401.9559393566292
971,1171.000,50.141835566675354,1402.7841684333246
972,1172.000,53.09380226289045,1403.6106767371095
973,1173.000,58.29293003540624,1404.4354609645939
974,1174.000,58.02739718761313,1405.2585178123868
975,1175.000,67.58468502290157,1406.0798439770983
976,1176.000,61.65097784466184,1406.8994361553382
977,1177.000,75.85839495628397,1407.717291043716
978,1178.000,77.77098066115855,1408.5334053388415
979,1179.000,95.59779626267596,1409.3477757373241
980,1180.000,110.72900806422626,1410.1603989357736
981,1181.000,121.04762636919963,1410.9712716308004
982,1182.000,124.70372148098681,1411.7803905190133
983,1183.000,151.36059170297744,1412.5877522970225
984,1184.000,141.9022943385628,1413.3933536614372
985,1185.000,126.24722169113215,1414.1971913088678
986,1186.000,103.93441506407657,1414.9992619359234
987,1187.000,89.97668376078605,1415.7995622392139
988,1188.000,81.25438608465083,1416.598088915349
989,1189.000,68.0197053390616,1417.3948386609384
990,1190.000,66.62456082740778,1418.1898081725922
991,1191.000,54.00145485308076,1418.9829941469193
992,1192.000,43.41049871947007,1419.77439328053
993,1193.000,48.091054729966345,1420.5640022700336
994,1194.000,37.51260818796004,1421.35181781204
995,1195.000,40.09375739684083,1422.1378366031593
996,1196.000,25.87331465999955,1422.9220553400005
997,1197.000,32.932978280826546,1423.7044707191735
998,1198.000,36.946792562711835,1424.4850794372883
999,1199.000,28.489393809045396,1425.2638781909545
1000,1200.000,31.201927323218342,1426.0408636767816
1001,1201.000,34.019393408621,1426.816032591379
1002,1202.000,30.11823436864279,1427.5893816313571
1003,1203.000,39.759603506674694,1428.3609074933254
1004,1204.000,26.903132126106584,1429.1306068738934
1005,1205.000,26.861308530329097,1429.8984764696709
1006,1206.000,26.51248002273269,1430.6645129772673
1007,1207.000,15.203551906707162,1431.4287130932928
1008,1208.000,17.489915485642996,1432.191073514357
1009,1209.000,29.55420006293093,1432.951590937069
1010,1210.000,24.076279941960593,1433.7102620580395
1011,1211.000,34.107199426122634,1434.4670835738773
1012,1212.000,25.051532818807118,1435.2220521811928
1013,1213.000,24.266356423404886,1435.975164576595
1014,1214.000,31.243703543305855,1436.7264174566942
1015,1215.000,26.530984481900305,1437.4758075180996
1016,1216.000,34.310384542578504,1438.2233314574214
1017,1217.000,18.173187028731036,1438.968985971269
1018,1218.000,26.99509424374787,1439.712767756252
1019,1219.000,28.28454449101946,1440.4546735089805
1020,1220.000,27.40488307393639,1441.1946999260635
1021,1221.000,30.852618295888533,1441.9328437041115
1022,1222.000,30.001173460266045,1442.669101539734
1023,1223.000,23.937101870459855,1443.4034701295402
1024,1224.000,20.27212682985987,1444.1359461701402
1025,1225.000,29.410251641856348,1444.8665263581436
1026,1226.000,23.74713260983981,1445.59520739016
1027,1227.000,29.126888037200388,1446.3219859627995
1028,1228.000,31.420488227328633,1447.0468587726714
1029,1229.000,24.4533444836145,1447.7698225163856
1030,1230.000,17.7790641094482,1448.4908738905517
1031,1231.000,21.59631840822044,1449.2100095917795
1032,1232.000,27.79258368332171,1449.9272263166783
1033,1233.000,21.58373123814158,1450.6425207618583
1034,1234.000,30.020563376071095,1451.355889623929
1035,1235.000,23.14518940049993,1452.0673295995
1036,1236.000,23.64994061481866,1452.7768373851814
1037,1237.000,19.047487322417737,1453.4844096775823
1038,1238.000,22.14921782668739,1454.1900431733127
1039,1239.000,29.247294431017508,1454.8937345689824
1040,1240.000,20.557965438798874,1455.5954805612012
1041,1241.000,20.538094153421753,1456.2952778465783
1042,1242.000,17.787070878276154,1456.9931231217238
1043,1243.000,27.06648491675287,1457.6890130832471
1044,1244.000,13.178275572241773,1458.3829444277583
1045,1245.000,18.306268148133086,1459.074913851867
1046,1246.000,27.60942794781772,1459.7649180521823
1047,1247.000,30.608567274685356,1460.4529537253147
1048,1248.000,20.667627432126437,1461.1390175678735
1049,1249.000,27.71083372353155,1461.8231062764685
1050,1250.000,9.959018452290593,1462.5052165477093
1051,1251.000,26.33449292179398,1463.185345078206
1052,1252.000,23.478196435432665,1463.8634885645674
1053,1253.000,14.322248296595717,1464.5396437034042
1054,1254.000,10.921246808674596,1465.2138071913255
1055,1255.000,18.50487527505902,1465.885975724941
1056,1256.000,23.031446999139007,1466.556146000861
1057,1257.000,23.62653728430587,1467.2243147156942
1058,1258.000,22.022177433948855,1467.8904785660511
1059,1259.000,25.925574751458726,1468.5546342485413
1060,1260.000,25.44593754022594,1469.216778459774
1061,1261.000,12.88536310364043,1469.8769078963596
1062,1262.000,18.82789374509275,1470.5350192549072
1063,1263.000,17.99959076797336,1471.1911092320267
1064,1264.000,27.16890747567186,1471.845174524328
1065,1265.000,17.99854117157929,1472.4972118284206
1066,1266.000,26.9300881590857,1473.1472178409142
1067,1267.000,21.392533741581474,1473.7951892584185
1068,1268.000,34.859998222456625,1474.4411227775433
1069,1269.000,20.437598905101595,1475.0850150948984
1070,1270.000,20.706129092907076,1475.726862907093
1071,1271.000,19.954223089262996,1476.366662910737
1072,1272.000,21.451614197559593,1477.0044118024405
1073,1273.000,35.08368872118717,1477.640106278813
1074,1274.000,17.434572963536084,1478.2737430364639
1075,1275.000,15.168290227996977,1478.905318772003
1076,1276.000,19.153196817959724,1479.5348301820402
1077,1277.000,24.310206036814634,1480.1622739631853
1078,1278.000,14.292119187952494,1480.7876468120476
1079,1279.000,24.935139574762843,1481.410945425237
1080,1280.000,24.679999500636768,1482.0321664993633
1081,1281.000,19.047414268964076,1482.651306731036
1082,1282.000,18.46360618313497,1483.268362816865
1083,1283.000,15.187899546540166,1483.8833314534597
1084,1284.000,18.209036662570043,1484.49620933743
1085,1285.000,14.997187834614351,1485.1069931653856
1086,1286.000,27.189080366063536,1485.7156796339364
1087,1287.000,29.430140560308246,1486.3222654396918
1088,1288.000,17.908223720738533,1486.9267472792615
1089,1289.000,19.303852150744888,1487.529121849255
1090,1290.000,8.09807615371733,1488.1293858462827
1091,1291.000,16.252127033046463,1488.7275359669536
1092,1292.000,21.394023092122097,1489.3235689078779
1093,1293.000,20.935328634335292,1489.9174813656648
1094,1294.000,19.974682963075566,1490.5092700369244
1095,1295.000,24.244478381733643,1491.0989316182663
1096,1296.000,19.65973719369981,1491.6864628063001
1097,1297.000,16.725943702364475,1492.2718602976356
1098,1298.000,28.590196211117473,1492.8551207888825
1099,1299.000,7.431593023349706,1493.4362409766502
1100,1300.000,11.92874744245114,1494.0152175575488
1101,1301.000,14.372267771811948,1494.592047228188
1102,1302.000,14.356153314822905,1495.166726685177
1103,1303.000,14.017540374873988,1495.739252625126
1104,1304.000,17.23916425535549,1496.3096217446446
1105,1305.000,14.245623259657577,1496.8778307403425
1106,1306.000,18.1041686911708,1497.4438763088292
1107,1307.000,21.909528853285792,1498.0077551467143
1108,1308.000,18.47218404939167,1498.5694639506082
1109,1309.000,19.029936582880282,1499.1289994171198
1110,1310.000,12.564201757140836,1499.6863582428591
1111,1311.000,11.29938787556398,1500.241537124436
1112,1312.000,16.281627241540036,1500.79453275846
1113,1313.000,23.50519115845941,1501.3453418415406
1114,1314.000,20.14901092971195,1501.893961070288
1115,1315.000,24.33706285868857,1502.4403871413115
1116,1316.000,23.711206248779035,1502.984616751221
1117,1317.000,24.423742403374263,1503.5266465966258
1118,1318.000,12.82128762586376,1504.0664733741362
1119,1319.000,24.986359219638643,1504.6040937803614
1120,1320.000,22.049386488088658,1505.1395045119114
1121,1321.000,29.858626734604286,1505.6727022653956
1122,1322.000,20.918955262575764,1506.2036837374242
1123,1323.000,19.28310137539347,1506.7324456246065
1124,1324.000,16.503287376447815,1507.2589846235521
1125,1325.000,18.1982625691287,1507.7832974308712
1126,1326.000,7.28744425682703,1508.305380743173
1127,1327.000,15.59897574293268,1508.8252312570673
1128,1328.000,16.80083933083597,1509.342845669164
1129,1329.000,22.873565323927323,1509.8582206760727
1130,1330.000,12.988281025596962,1510.371352974403
1131,1331.000,17.63089773923525,1510.8822392607647
1132,1332.000,27.67101476823268,1511.3908762317674
1133,1333.000,13.558584415979112,1511.8972605840208
1134,1334.000,21.679090985865287,1512.4013890141348
1135,1335.000,13.408503781281297,1512.9032582187187
1136,1336.000,15.930957105617154,1513.402864894383
1137,1337.000,19.211077262263416,1513.9002057377365
1138,1338.000,21.66362255461081,1514.3952774453892
1139,1339.000,13.404937286049062,1514.888076713951
1140,1340.000,10.190380759968548,1515.3786002400313
1141,1341.000,25.25359427975991,1515.8668447202401
1142,1342.000,17.26594314881322,1516.3528068511869
1143,1343.000,20.817282670518352,1516.8364833294816
1144,1344.000,21.465061148266614,1517.3178708517335
1145,1345.000,20.47749488544764,1517.7969661145523
1146,1346.000,14.352942185451639,1518.2737658145484
1147,1347.000,15.036903351669253,1518.7482666483309
1148,1348.000,6.542240687490448,1519.2204653125095
1149,1349.000,16.794049496306116,1519.690358503694
1150,1350.000,12.87345008150578,1520.1579429184942
1151,1351.000,15.46726774647982,1520.6232152535201
1152,1352.000,26.647338794619372,1521.0861722053805
1153,1353.000,19.56764252931407,1521.5468104706858
1154,1354.000,15.7386852539546,1522.0051267460453
1155,1355.000,7.290540271930695,1522.4611177280692
1156,1356.000,19.630897886633193,1522.9147801133668
1157,1357.000,24.27968140145208,1523.366110598548
1158,1358.000,10.31063011977767,1523.8151058802223
1159,1359.000,17.652138345000367,1524.2617626549995
1160,1360.000,12.012142380510568,1524.7060776194894
1161,1361.000,14.125351529698492,1525.1480474703014
1162,1362.000,12.80281509595443,1525.5876689040456
1163,1363.000,5.377566382668647,1526.0249386173314
1164,1364.000,11.824812693231479,1526.4598533067685
1165,1365.000,5.219413331033138,1526.8924096689668
1166,1366.000,22.948928599464125,1527.322604400536
1167,1367.000,20.86251780191469,1527.7504341980853
1168,1368.000,14.910247241774869,1528.1758957582251
1169,1369.000,16.252279222435163,1528.5989857775648
1170,1370.000,14.89695304728616,1529.019700952714
1171,1371.000,15.684508019717669,1529.4380379802824
1172,1372.000,15.623807443120313,1529.8539935568797
1173,1373.000,13.009831620884142,1530.2675643791158
1174,1374.000,13.398641856399763,1530.6787471436003
1175,1375.000,6.407444453057224,1531.0875385469428
1176,1376.000,8.393694714246976,1531.493935285753
1177,1377.000,10.69238194335935,1531.8979340566407
1178,1378.000,15.459812443784358,1532.2995315562157
1179,1379.000,12.008891518912606,1532.6987244810873
1180,1380.000,25.414208472134305,1533.0955095278657
1181,1381.000,13.028726606839882,1533.4898833931602
1182,1382.000,12.01886422641951,1533.8818427735805
1183,1383.000,16.651087634263376,1534.2713843657366
1184,1384.000,20.151061133761687,1534.6585048662382
1185,1385.000,24.98747202830532,1535.0432009716947
1186,1386.000,19.799047621284217,1535.425469378716
1187,1387.000,10.583514216088588,1535.8053067839114
1188,1388.000,13.045535116108795,1536.1827098838912
1189,1389.000,20.236010624734945,1536.557675375265
1190,1390.000,15.571389045358046,1536.930199954642
1191,1391.000,18.772662681367365,1537.3002803186325
1192,1392.000,13.640228836154392,1537.6679131638457
1193,1393.000,23.521339813108398,1538.0330951868916
1194,1394.000,22.64021191562051,1538.3958230843796
1195,1395.000,20.781374447079997,1538.75609355292
1196,1396.000,15.12318971087825,1539.1139032891217
1197,1397.000,4.776751010404951,1539.4692489895951
1198,1398.000,6.373710649050281,1539.8221273509498
1199,1399.000,16.279909930204894,1540.172535069795
1200,1400.000,18.27458415725937,1540.5204688427407
1201,1401.000,0.0,1540.8659253663966
1202,1402.000,11.818524662627624,1541.2089013373725
1203,1403.000,21.463411547722217,1541.5493934522779
1204,1404.000,20.41928259227734,1541.8873984077227
1205,1405.000,12.022607099683682,1542.2229129003163
1206,1406.000,18.818734373331154,1542.5559336266688
1207,1407.000,15.41357571661024,1542.8864572833897
1208,1408.000,14.126585432911725,1543.2144805670882
1209,1409.000,22.169159825625,1543.540000174375
1210,1410.000,22.49520319814087,1543.8630128018592
1211,1411.000,12.967459853849505,1544.1835151461505
1212,1412.000,10.761600096141592,1544.5015039038585
1213,1413.000,8.921926228406619,1544.8169757715934
1214,1414.000,8.569658554035868,1545.129927445964
1215,1415.000,25.080036376418548,1545.4403556235814
1216,1416.000,28.645095998945862,1545.748257001054
1217,1417.000,19.326427725008216,1546.0536282749918
1218,1418.000,24.735150857994995,1546.356466142005
1219,1419.000,15.086532701297301,1546.6567672987028
1220,1420.000,19.27923955830488,1546.9545284416952
1221,1421.000,25.709640732408616,1547.2497462675915
1222,1422.000,22.918944526998303,1547.5424174730017
1223,1423.000,21.67708224546459,1547.8325387545353
1224,1424.000,13.054546191197687,1548.1201068088023
1225,1425.000,15.30904166758728,1548.4051183324127
1226,1426.000,22.545234978025064,1548.687570021975
1227,1427.000,23.027517425899987,1548.9674585741
1228,1428.000,27.305461314603008,1549.244780685397
1229,1429.000,25.671274947524353,1549.5195330524757
1230,1430.000,30.03244262805424,1549.7917123719458
1231,1431.000,33.83601365958293,1550.061315340417
1232,1432.000,38.991856345500764,1550.3283386544992
1233,1433.000,39.237378989198305,1550.5927790108017
1234,1434.000,38.97475189406555,1550.8546331059345
1235,1435.000,44.43323836349259,1551.1138976365073
1236,1436.000,55.882933700870126,1551.3705692991298
1237,1437.000,54.70287620958857,1551.6246447904114
1238,1438.000,56.521110193037885,1551.876120806962
1239,1439.000,63.6961549546088,1552.1249940453913
1240,1440.000,80.02632279769091,1552.3712612023091
1241,1441.000,92.0515380256752,1552.6149189743248
1242,1442.000,108.23517094195108,1552.8559640580488
1243,1443.000,113.6167608499104,1553.0943931500897
1244,1444.000,140.16195005294185,1553.330202947058
1245,1445.000,148.72739785443673,1553.5633901455633
1246,1446.000,169.3483795577847,1553.7939514422153
1247,1447.000,187.18523646637664,1554.0218835336234
1248,1448.000,210.89566288360243,1554.2471831163975
1249,1449.000,225.9844341128528,1554.4698468871472
1250,1450.000,223.99173045751763,1554.6898715424825
1251,1451.000,216.74184422098756,1554.9072537790125
1252,1452.000,198.43053370665234,1555.1219902933476
1253,1453.000,190.7777302179029,1555.3340777820972
1254,1454.000,167.91703705812938,1555.5435129418706
1255,1455.000,148.59785053072164,1555.7502924692783
1256,1456.000,127.25439093907062,1555.9544130609295
1257,1457.000,109.01002258656627,1556.1558714134337
1258,1458.000,97.00031877659876,1556.3546642234012
1259,1459.000,89.620114812559,1556.550788187441
1260,1460.000,81.98726499783652,1556.7442400021635
1261,1461.000,67.35090163582231,1556.9350163641777
1262,1462.000,61.695710029906195,1557.1231139700938
1263,1463.000,52.20012348347882,1557.3085295165213
1264,1464.000,47.11278029992991,1557.49125970007
1265,1465.000,35.14870778265049,1557.6713012173495
1266,1466.000,44.193255235030165,1557.8486507649698
1267,1467.000,39.00007496045987,1558.0233050395402
1268,1468.000,40.9459412623296,1558.1952607376704
1269,1469.000,26.209492444029593,1558.3645145559703
1270,1470.000,28.16502880895041,1558.5310631910495
1271,1471.000,19.95535366048216,1558.6949033395179
1272,1472.000,24.881767302015305,1558.8560316979847
1273,1473.000,21.11063503694004,1559.01444496306
1274,1474.000,24.283007168646463,1559.1701398313535
1275,1475.000,18.166308000525078,1559.323112999475
1276,1476.000,21.553403835966265,1559.4733611640338
1277,1477.000,13.86242697836019,1559.62088102164
1278,1478.000,19.184078731097088,1559.765669268903
1279,1479.000,13.056281397567773,1559.9077226024322
1280,1480.000,11.441363281161784,1560.0470377188383
1281,1481.000,13.729713685269871,1560.1836113147301
1282,1482.000,14.654748913282447,1560.3174400867176
1283,1483.000,3.6614302685893563,1560.4485207314106
1284,1484.000,2.4391520545814274,1560.5768499454186
1285,1485.000,11.793477574648023,1560.7024244253519
1286,1486.000,9.842261132180965,1560.825240867819
1287,1487.000,0.0,1560.9452959694306
1288,1488.000,0.0,1561.062586426796
1289,1489.000,4.331617063475051,1561.177108936525
1290,1490.000,10.252744804772647,1561.2888601952272
1291,1491.000,9.200321100487372,1561.3978368995126
1292,1492.000,13.51194025400946,1561.5040357459904
1293,1493.000,14.12965156872906,1561.6074534312709
1294,1494.000,20.773405348036476,1561.7080866519634
1295,1495.000,0.0,1561.8059321046774
1296,1496.000,6.178340513976764,1561.9009864860232
1297,1497.000,12.330550507390171,1561.9932464926098
1298,1498.000,0.0,1562.0827088210476
1299,1499.000,0.0,1562.1693701679458
1300,1500.000,6.543908770085409,1562.2532272299145
1301,1501.000,11.54407829643742,1562.3342767035626
1302,1502.000,12.247171714499245,1562.4125152855008
1303,1503.000,0.0,1562.4879396723384
1304,1504.000,0.0,1562.5605465606848
1305,1505.000,3.811503352849968,1562.63033264715
1306,1506.000,1.1163863716565174,1562.6972946283436
1307,1507.000,5.903169799124498,1562.7614292008755
1308,1508.000,4.643965938645124,1562.822733061355
1309,1509.000,13.963241093607849,1562.8812029063922
1310,1510.000,3.1985365674036075,1562.9368354325964
1311,1511.000,4.487291663421956,1562.989627336578
1312,1512.000,3.7341476850540403,1563.039575314946
1313,1513.000,9.603631935689918,1563.08667606431
1314,1514.000,0.0,1563.1309262812806
1315,1515.000,5.178321337533589,1563.1723226624665
1316,1516.000,0.0,1563.210861904478
1317,1517.000,0.0,1563.2465407039244
1318,1518.000,9.501702242584088,1563.279355757416
1319,1519.000,5.6083112384383185,1563.3093037615618
1320,1520.000,10.609270587028277,1563.3363814129718
1321,1521.000,3.883351591744031,1563.360585408256
1322,1522.000,6.115817555976719,1563.3819124440233
1323,1523.000,3.061966783115622,1563.4003592168845
1324,1524.000,5.535062576551809,1563.4159224234481
1325,1525.000,0.0,1563.428598760325
1326,1526.000,12.09121707587633,1563.4383849241237
1327,1527.000,0.0,1563.445277611455
1328,1528.000,12.04012248107233,1563.4492735189276
1329,1529.000,0.8866556568480064,1563.450369343152
1330,1530.000,7.11128121926231,1563.4485617807377
1331,1531.000,2.8308394717059855,1563.443847528294
1332,1532.000,4.6356017175689885,1563.436223282431
1333,1533.000,10.740419260241879,1563.4256857397581
1334,1534.000,2.8919174031143484,1563.4122315968857
1335,1535.000,0.0,1563.3958575504225
1336,1536.000,3.523478703021283,1563.3765602969788
1337,1537.000,5.967305466836024,1563.354336533164
1338,1538.000,0.0,1563.3291829555883
1339,1539.000,8.011294739138975,1563.301096260861
1340,1540.000,8.768748854408614,1563.2700731455914
1341,1541.000,0.0,1563.2361103063902
1342,1542.000,1.6698735601337376,1563.1992044398662
1343,1543.000,7.517864757370262,1563.1593522426297
1344,1544.000,0.0,1563.1165504112898
1345,1545.000,0.5267703575430005,1563.070795642457
1346,1546.000,1.1817773672598832,1563.0220846327402
1347,1547.000,6.662892921250432,1562.9704140787496
1348,1548.000,10.147373322905423,1562.9157806770945
1349,1549.000,3.6755348756146304,1562.8581811243853
1350,1550.000,4.511487882768961,1562.797612117231
1351,1551.000,9.904775647758697,1562.7340703522414
1352,1552.000,7.9950604739733535,1562.6675525260266
1353,1553.000,4.549011664804539,1562.5980553351956
1354,1554.000,13.45853752364087,1562.525575476359
1355,1555.000,0.0,1562.4501096461256
1356,1556.000,7.545938458893943,1562.371654541106
1357,1557.000,4.776724142091098,1562.290206857909
1358,1558.000,4.96276170685519,1562.2057632931449
1359,1559.000,9.857956456576858,1562.1183205434231
1360,1560.000,9.775158694646507,1562.0278753053535
1361,1561.000,25.008365724454507,1561.9344242755456
1362,1562.000,15.41131784939057,1561.8379641506094
1363,1563.000,14.936321372845669,1561.7384916271544
1364,1564.000,24.03013559820988,1561.63600340179
1365,1565.000,21.918094828873564,1561.5304961711265
1366,1566.000,6.827459368226755,1561.4219666317733
1367,1567.000,20.737184519660104,1561.31041148034
1368,1568.000,26.978184586563657,1561.1958274134363
1369,1569.000,22.04324787232781,1561.0782111276721
1370,1570.000,30.95854868034303,1560.9575593196569
1371,1571.000,30.825075313999605,1560.8338686860004
1372,1572.000,40.95158107668726,1560.7071359233128
1373,1573.000,35.485304271797304,1560.5773577282027
1374,1574.000,41.44868320271871,1560.4445307972812
1375,1575.000,59.49377617284313,1560.3086518271568
1376,1576.000,76.31902148556014,1560.1697175144398
1377,1577.000,98.21465544426019,1560.0277245557397
1378,1578.000,107.81951835233349,1559.8826696476665
1379,1579.000,128.20201551317064,1559.7345494868293
1380,1580.000,164.5498062301615,1559.5833607698385
1381,1581.000,186.31551080669647,1559.4291001933036
1382,1582.000,218.59592954616642,1559.2717644538336
1383,1583.000,217.4220837519606,1559.1113502480393
1384,1584.000,201.54579372747048,1558.9478542725294
1385,1585.000,191.82672377608583,1558.7812732239142
1386,1586.000,169.55123120119697,1558.6116037988031
1387,1587.000,146.57794830619378,1558.4388426938062
1388,1588.000,133.93000539446712,1558.262986605533
1389,1589.000,123.227144769407,1558.084032230593
1390,1590.000,119.5629397344037,1557.9019762655962
1391,1591.000,116.95531459284803,1557.716815407152
1392,1592.000,126.62163564813,1557.52854635187
1393,1593.000,136.10526420363976,1557.3371657963603
1394,1594.000,150.52028656276752,1557.1426704372325
1395,1595.000,174.38670202890376,1556.9450569710962
1396,1596.000,196.1191479054387,1556.7443220945613
1397,1597.000,245.07705249576316,1556.5404625042368
1398,1598.000,314.7122981032667,1556.3334748967334
1399,1599.000,405.4584930313397,1556.1233559686602
1400,1600.000,491.95245358337297,1555.910102416627
1401,1601.000,583.4894750627566,1555.6937109372436
1402,1602.000,622.2844627728805,1555.4741782271194
1403,1603.000,595.0976940171354,1555.2515009828644
1404,1604.000,496.78202309891185,1555.025675901088
1405,1605.000,392.4984353215996,1554.7966996784005
1406,1606.000,315.02503198858903,1554.5645690114109
1407,1607.000,241.36396540327064,1554.3292805967294
1408,1608.000,186.81530786903454,1554.0908311309654
1409,1609.000,156.65765168927146,1553.8492173107286
1410,1610.000,115.60356716737101,1553.604435832629
1411,1611.000,100.0824756067243,1553.3564833932758
1412,1612.000,82.31041931072082,1553.1053566892792
1413,1613.000,73.7490845827515,1552.8510524172484
1414,1614.000,50.83610872620625,1552.5935672737937
1415,1615.000,41.268638044475665,1552.3328979555242
1416,1616.000,39.52762084094957,1552.0690411590504
1417,1617.000,34.30678641901886,1551.8019935809812
1418,1618.000,31.241837082073744,1551.5317519179262
1419,1619.000,24.578775133504223,1551.2583128664958
1420,1620.000,25.80133487670082,1550.9816731232993
1421,1621.000,24.267301615053384,1550.7018293849467
1422,1622.000,18.82879065195334,1550.4187783480468
1423,1623.000,8.903482290789498,1550.1325167092104
1424,1624.000,19.992858834953267,1549.8430411650468
1425,1625.000,2.2033125878342616,1549.5503484121657
1426,1626.000,8.49819485282319,1549.2544351471768
1427,1627.000,13.59302793331085,1548.9552980666892
1428,1628.000,3.3443451326861577,1548.6529338673138
1429,1629.000,13.55466475434082,1548.3473392456592
1430,1630.000,16.21544010166417,1548.0385108983357
1431,1631.000,13.263233478047368,1547.7264455219527
1432,1632.000,5.617361186879634,1547.4111398131204
1433,1633.000,8.090423531552233,1547.0925904684477
1434,1634.000,0.0,1546.7707941845451
1435,1635.000,3.26551034197837,1546.4457476580217
1436,1636.000,2.9940544145124477,1546.1174475854875
1437,1637.000,0.28336033644768577,1545.7858906635522
1438,1638.000,0.13804441117486022,1545.4510735888252
1439,1639.000,0.0,1545.1129930579168
1440,1640.000,0.0,1544.7716457674358
1441,1641.000,0.283185586007221,1544.4270284139927
1442,1642.000,0.0,1544.0791376941968
1443,1643.000,9.3994896953418,1543.7279703046581
1444,1644.000,1.08131505801407,1543.373522941986
1445,1645.000,0.0,1543.0157923027903
1446,1646.000,1.4580959163192801,1542.6547750836808
1447,1647.000,0.0,1542.2904679812668
1448,1648.000,0.0,1541.9228676921587
1449,1649.000,0.0,1541.5519709129653
1450,1650.000,0.0,1541.1777743402972
1451,1651.000,0.0,1540.8002746707634
1452,1652.000,4.5664603990258,1540.4194686009741
1453,1653.000,0.0,1540.0353528275386
1454,1654.000,0.0,1539.6479240470671
1455,1655.000,0.0,1539.257178956169
1456,1656.000,0.0,1538.8631142514535
1457,1657.000,0.0,1538.4657266295312
1458,1658.000,0.0,1538.0650127870108
1459,1659.000,0.0,1537.6609694205033
1460,1660.000,0.0,1537.253593226617
1461,1661.000,0.0,1536.8428809019629
1462,1662.000,0.0,1536.4288291431496
1463,1663.000,0.0,1536.0114346467874
1464,1664.000,0.0,1535.5906941094859
1465,1665.000,0.0,1535.1666042278548
1466,1666.000,0.0,1534.7391616985037
1467,1667.000,0.0,1534.3083632180424
1468,1668.000,1.5725025169197124,1533.8742054830802
1469,1669.000,0.0,1533.4366851902273
1470,1670.000,0.0,1532.9957990360936
1471,1671.000,0.0,1532.551543717288
1472,1672.000,0.0,1532.103915930421
1473,1673.000,0.0,1531.6529123721016
1474,1674.000,0.0,1531.1985297389401
1475,1675.000,0.0,1530.7407647275456
1476,1676.000,2.4849129654714943,1530.2796140345285
1477,1677.000,0.0,1529.815074356498
1478,1678.000,3.5145296099362895,1529.3471423900637
1479,1679.000,0.0,1528.875814831836
1480,1680.000,0.0,1528.4010883784238
1481,1681.000,0.0,1527.922959726437
1482,1682.000,0.0,1527.4414255724855
1483,1683.000,0.0,1526.956482613179
1484,1684.000,0.0,1526.4681275451271
1485,1685.000,0.0,1525.9763570649397
1486,1686.000,0.0,1525.481167869226
1487,1687.000,0.0,1524.982556654596
1488,1688.000,0.0,1524.4805201176596
1489,1689.000,0.0,1523.975054955026
1490,1690.000,0.0,1523.4661578633056
1491,1691.000,0.06328446089287354,1522.9538255391071
1492,1692.000,0.0,1522.4380546790412
1493,1693.000,0.0,1521.9188419797172
1494,1694.000,0.0,1521.3961841377447
1495,1695.000,0.0,1520.8700778497337
1496,1696.000,0.0,1520.3405198122932
1497,1697.000,0.0,1519.8075067220338
1498,1698.000,0.0,1519.2710352755644
1499,1699.000,1.3958198305042515,1518.7311021694957
1500,1700.000,0.0,1518.187704100436
1501,1701.000,0.0,1517.6408377649961
1502,1702.000,0.0,1517.0904998597853
1503,1703.000,0.0,1516.5366870814137
1504,1704.000,0.0,1515.9793961264904
1505,1705.000,0.0,1515.418623691625
1506,1706.000,0.0,1514.8543664734282
1507,1707.000,0.0,1514.2866211685086
1508,1708.000,0.0,1513.7153844734767
1509,1709.000,0.21129791505882167,1513.1406530849413
1510,1710.000,0.0,1512.5624236995134
1511,1711.000,0.0,1511.980693013801
1512,1712.000,0.0,1511.3954577244158
1513,1713.000,0.0,1510.8067145279656
1514,1714.000,0.0,1510.2144601210614
1515,1715.000,1.5280147996877531,1509.6186912003122
1516,1716.000,6.25269753767202,1509.0194044623279
1517,1717.000,0.0,1508.4165966037185
1518,1718.000,0.0,1507.810264321093
1519,1719.000,0.0,1507.2004043110621
1520,1720.000,0.0,1506.5870132702344
1521,1721.000,0.0,1505.9700878952206
1522,1722.000,0.0,1505.3496248826293
1523,1723.000,0.6044150709287806,1504.7256209290713
1524,1724.000,0.0,1504.0980727311558
1525,1725.000,0.0,1503.466976985492
1526,1726.000,0.0,1502.8323303886907
1527,1727.000,0.0,1502.1941296373604
1528,1728.000,0.0,1501.552371428112
1529,1729.000,11.23701154244577,1500.9070524575543
1530,1730.000,0.0,1500.2581694222974
1531,1731.000,0.0,1499.6057190189508
1532,1732.000,0.0,1498.9496979441244
1533,1733.000,1.348649105572349,1498.2901028944277
1534,1734.000,0.0,1497.6269305664703
1535,1735.000,0.0,1496.9601776568627
1536,1736.000,10.128130137786911,1496.2898408622132
1537,1737.000,4.170049120867134,1495.6159168791328
1538,1738.000,0.0,1494.9384024042304
1539,1739.000,0.0,1494.2572941341164
1540,1740.000,1.9281302346005305,1493.5725887653994
1541,1741.000,1.0754950053096763,1492.8842829946902
1542,1742.000,0.0,1492.192373518598
1543,1743.000,6.981690966267479,1491.4968570337326
1544,1744.000,7.556258763296228,1490.7977302367037
1545,1745.000,0.0,1490.0949898241208
1546,1746.000,0.0,1489.3886324925936
1547,1747.000,0.0,1488.6786549387323
1548,1748.000,0.9968151408536414,1487.9650538591463
1549,1749.000,3.6083210495548883,1487.247825950445
1550,1750.000,0.0,1486.5269679092382
1551,1751.000,0.0,1485.8024764321362
1552,1752.000,0.0,1485.074348215748
1553,1753.000,1.100814043316177,1484.3425799566837
1554,1754.000,0.0,1483.6071683515524
1555,1755.000,0.0,1482.8681100969648
1556,1756.000,0.0,1482.1254018895293
1557,1757.000,5.738229574142906,1481.379040425857
1558,1758.000,0.0,1480.6290224025565
1559,1759.000,0.0,1479.8753445162383
1560,1760.000,0.0,1479.1180034635117
1561,1761.000,4.509301059013751,1478.3569959409863
1562,1762.000,0.0,1477.592318645272
1563,1763.000,0.0,1476.8239682729782
1564,1764.000,0.0,1476.0519415207148
1565,1765.000,0.0,1475.2762350850915
1566,1766.000,0.0,1474.4968456627184
1567,1767.000,4.52227504979578,1473.7137699502043
1568,1768.000,0.0,1472.9270046441598
1569,1769.000,0.0,1472.136546441194
1570,1770.000,3.631645962083212,1471.3423920379169
1571,1771.000,0.4513538690621317,1470.5445381309378
1572,1772.000,0.0,1469.742981416867
1573,1773.000,0.0,1468.9377185923138
1574,1774.000,6.008173646112255,1468.1287463538877
1575,1775.000,0.0,1467.3160613981993
1576,1776.000,0.4014195781428498,1466.4996604218572
1577,1777.000,0.3265438785281276,1465.679540121472
1578,1778.000,4.022607806347878,1464.855697193652
1579,1779.000,1.1894576649908686,1464.0281283350091
1580,1780.000,15.500536757848977,1463.196830242151
1581,1781.000,0.0,1462.3617996116889
1582,1782.000,6.543863859768862,1461.523033140231
1583,1783.000,3.012005475611886,1460.680527524388
1584,1784.000,10.080093539230575,1459.8342794607695
1585,1785.000,0.0,1458.984285645985
1586,1786.000,11.175794223355524,1458.1305427766445
1587,1787.000,0.0,1457.2730475493568
1588,1788.000,8.477663339267338,1456.4117966607328
1589,1789.000,7.633950192618613,1455.5467868073813
1590,1790.000,4.985864314087166,1454.6780146859128
1591,1791.000,0.616023007063859,1453.805476992936
1592,1792.000,0.38076257493844423,1452.9291704250616
1593,1793.000,6.109470321101298,1452.0490916788988
1594,1794.000,1.261255548942927,1451.165237451057
1595,1795.000,0.0,1450.2776044381467
1596,1796.000,0.0,1449.3861893367766
1597,1797.000,11.322845156442554,1448.4909888435575
1598,1798.000,11.72816034490188,1447.591999655098
1599,1799.000,10.146406531991033,1446.689218468009
1600,1800.000,7.609040021101009,1445.782641978899
1601,1801.000,9.876963115621948,1444.872266884378
1602,1802.000,10.838613118943613,1443.9580898810564
1603,1803.000,9.654056334456754,1443.0401076655432
1604,1804.000,3.671097065551521,1442.1183169344486
1605,1805.000,4.3031796156185464,1441.1927143843814
1606,1806.000,2.0731052880473726,1440.2632967119525
1607,1807.000,10.178154386229608,1439.3300606137705
1608,1808.000,3.6073202135537485,1438.3930027864462
1609,1809.000,8.890711073411694,1437.4521199265882
1610,1810.000,18.026395269193017,1436.507408730807
1611,1811.000,8.173650104288072,1435.558865895712
1612,1812.000,16.556482882087266,1434.6064881179127
1613,1813.000,20.384786905980718,1433.6502720940193
1614,1814.000,0.3849054793590767,1432.690214520641
1615,1815.000,3.0319919056125855,1431.7263120943874
1616,1816.000,14.785978488131605,1430.7585615118685
1617,1817.000,8.004282530305545,1429.7869594696945
1618,1818.000,15.78227533552581,1428.8115026644741
1619,1819.000,17.13311120718231,1427.8321877928176
1620,1820.000,10.126712448664875,1426.849011551335
1621,1821.000,18.49076036336487,1425.861970636635
1622,1822.000,24.32053025467144,1424.8710617453285
1623,1823.000,19.923175425976297,1423.8762815740238
1624,1824.000,9.268505180668399,1422.8776268193317
1625,1825.000,13.978922822138657,1421.8750941778615
1626,1826.000,11.968281653776785,1420.8686803462233
1627,1827.000,24.935916978973864,1419.858382021026
1628,1828.000,14.71093710112018,1418.84419589888
1629,1829.000,12.073469323605195,1417.8261186763948
1630,1830.000,16.842218949820108,1416.8041470501798
1631,1831.000,19.997942283154543,1415.7782777168454
1632,1832.000,15.010851626999283,1414.7485073730006
1633,1833.000,18.259667284745092,1413.714832715255
1634,1834.000,17.983534559780992,1412.677250440219
1635,1835.000,22.772127755498104,1411.635757244502
1636,1836.000,24.546890175286762,1410.5903498247133
1637,1837.000,20.71726312253668,1409.5410248774633
1638,1838.000,16.639482900638768,1408.4877790993612
1639,1839.000,22.250673812983223,1407.4306091870167
1640,1840.000,14.83959316296,1406.36951183704
1641,1841.000,27.014538253959927,1405.30448374604
1642,1842.000,23.04208038937304,1404.2355216106268
1643,1843.000,22.80123687258947,1403.1626221274105
1644,1844.000,7.174349006999819,1402.0857819930002
1645,1845.000,36.32369309599403,1401.004997904006
1646,1846.000,31.23085944296281,1399.9202665570372
1647,1847.000,30.52297135129652,1398.8315846487035
1648,1848.000,24.065606124384885,1397.738948875615
1649,1849.000,27.740357065618355,1396.6423559343816
1650,1850.000,41.26193047838797,1395.541802521612
1651,1851.000,20.4382256660831,1394.4372853339169
1652,1852.000,29.432595932094728,1393.3288010679053
1653,1853.000,28.98851357981266,1392.2163464201874
1654,1854.000,26.650314912627664,1391.0999180873723
1655,1855.000,28.35196923392914,1389.979512766071
1656,1856.000,20.783310847108396,1388.8551271528916
1657,1857.000,30.98475005555565,1387.7267579444444
1658,1858.000,19.677106162660266,1386.5944018373398
1659,1859.000,38.97281847181375,1385.4580555281862
1660,1860.000,33.21929228640602,1384.317715713594
1661,1861.000,23.755670909826904,1383.173379090173
1662,1862.000,16.75083064546675,1382.0250423545333
1663,1863.000,30.385253796716597,1380.8727022032833
1664,1864.000,33.251673666965644,1379.7163553330342
1665,1865.000,24.6885505596058,1378.5559984403942
1666,1866.000,41.17915777802568,1377.3916282219743
1667,1867.000,33.212471625616445,1376.2232413743836
1668,1868.000,29.26116340576823,1375.0508345942317
1669,1869.000,24.13182642187121,1373.8744045781289
1670,1870.000,32.256493977316495,1372.6939480226836
1671,1871.000,32.254583375492984,1371.509461624507
1672,1872.000,37.82084491979231,1370.3209420802077
1673,1873.000,40.685781913603705,1369.1283860863964
1674,1874.000,35.048940660318294,1367.9317903396818
1675,1875.000,38.10717046332593,1366.7311515366741
1676,1876.000,44.368101626016596,1365.5264663739833
1677,1877.000,40.009562451781676,1364.3177315482183
1678,1878.000,35.23695824401034,1363.1049437559896
1679,1879.000,40.986646306094144,1361.8880996939058
1680,1880.000,34.63127794142156,1360.6671960585784
1681,1881.000,40.96528745338469,1359.4422295466154
1682,1882.000,39.05478814537264,1358.2131968546273
1683,1883.000,32.65826432077688,1356.9800946792232
1684,1884.000,43.37077328298619,1355.7429197170138
1685,1885.000,40.75678033539202,1354.501668664608
1686,1886.000,45.149442781384096,1353.2563382186158
1687,1887.000,33.305092924353175,1352.006925075647
1688,1888.000,48.42840806769004,1350.75342593231
1689,1889.000,49.20206651478338,1349.4958374852167
1690,1890.000,40.70536256902483,1348.2341564309752
1691,1891.000,42.74002153380388,1346.9683794661962
1692,1892.000,44.13761371251144,1345.6985032874886
1693,1893.000,44.24799040853782,1344.4245245914622
1694,1894.000,49.91205492527297,1343.146440074727
1695,1895.000,41.14700456610694,1341.864246433893
1696,1896.000,39.06099563443104,1340.577940365569
1697,1897.000,45.03461243363472,1339.2875185663652
1698,1898.000,58.41621426710822,1337.9929777328919
1699,1899.000,45.2237644382426,1336.6943145617574
1700,1900.000,42.100648250427184,1335.3915257495728
1701,1901.000,43.12739800705344,1334.0846079929465
1702,1902.000,50.18833901151061,1332.7735579884893
1703,1903.000,56.796490567189494,1331.4583724328104
1704,1904.000,45.87783697748,1330.13904802252
1705,1905.000,51.90073954577338,1328.8155814542267
1706,1906.000,52.70437757545892,1327.487969424541
1707,1907.000,54.78540636992716,1326.1562086300728
1708,1908.000,53.43512123256892,1324.8202957674312
1709,1909.000,59.451533466773526,1323.4802275332265
1710,1910.000,57.85363637593241,1322.1360006240675
1711,1911.000,50.62712326343535,1320.7876117365647
1712,1912.000,69.46616943267259,1319.4350575673275
1713,1913.000,47.33057418703402,1318.078334812966
1714,1914.000,48.20065982991105,1316.717440170089
1715,1915.000,62.92323866469269,1315.3523703353073
1716,1916.000,58.43585799477023,1313.9831220052297
1717,1917.000,56.43918112353367,1312.6096918764663
1718,1918.000,59.746363354373216,1311.2320766456269
1719,1919.000,63.276428990679506,1309.8502730093205
1720,1920.000,57.239957335842064,1308.4642776641579
1721,1921.000,56.59044269325227,1307.0740873067477
1722,1922.000,54.73589436629936,1305.6796986337006
1723,1923.000,56.486136658374335,1304.2811083416257
1724,1924.000,57.487682872867026,1302.878313127133
1725,1925.000,69.79820531316841,1301.4713096868315
1726,1926.000,65.23990128266814,1300.0600947173318
1727,1927.000,67.47297408475674,1298.6446649152433
1728,1928.000,61.479030022824645,1297.2250169771753
1729,1929.000,71.80153340026231,1295.8011475997378
1730,1930.000,56.80194552045941,1294.3730534795407
1731,1931.000,69.67260768680626,1292.9407313131937
1732,1932.000,71.6580542026943,1291.5041777973056
1733,1933.000,64.68061937151242,1290.0633896284876
1734,1934.000,62.66840349665176,1288.6183635033483
1735,1935.000,72.62024988150256,1287.1690961184975
1736,1936.000,65.9158548294547,1285.7155841705453
1737,1937.000,65.48572264389895,1284.257824356101
1738,1938.000,71.40858462822484,1282.7958133717752
1739,1939.000,65.51499208582459,1281.3295479141755
1740,1940.000,72.10202332008566,1279.8590246799142
1741,1941.000,85.78072363440083,1278.3842403655992
1742,1942.000,71.70060233215895,1276.905191667841
1743,1943.000,80.4767517167511,1275.421875283249
1744,1944.000,69.42219909156711,1273.934287908433
1745,1945.000,76.95681675999731,1272.4424262400028
1746,1946.000,75.54709902543254,1270.9462869745676
1747,1947.000,76.89302419126216,1269.445866808738
1748,1948.000,83.16308256087768,1267.9411624391223
1749,1949.000,92.24306443766795,1266.432170562332
1750,1950.000,79.3205641250247,1264.9188878749753
1751,1951.000,88.6448029263372,1263.4013110736628
1752,1952.000,83.66104714499647,1261.8794368550036
1753,1953.000,86.7233680843924,1260.3532619156076
1754,1954.000,80.24191404791509,1258.822782952085
1755,1955.000,79.56430033895549,1257.2879966610444
1756,1956.000,83.35567526090335,1255.7488997390967
1757,1957.000,80.68443711714963,1254.2054888828504
1758,1958.000,86.02635621108357,1252.6577607889164
1759,1959.000,80.51549684609631,1251.1057121539036
1760,1960.000,87.6526083255776,1249.5493396744223
1761,1961.000,89.45847095291879,1247.9886400470812
1762,1962.000,100.07493303150909,1246.4236099684908
1763,1963.000,100.30830086473861,1244.8542461352613
1764,1964.000,93.8149577559991,1243.280545244001
1765,1965.000,88.53556000867911,1241.7025039913208
1766,1966.000,95.99517092617089,1240.120119073829
1767,1967.000,98.05009981186299,1238.533387188137
1768,1968.000,92.7795329691462,1236.9423050308537
1769,1969.000,89.67197570141116,1235.346869298589
1770,1970.000,84.83313131204818,1233.747076687952
1771,1971.000,96.16338310444758,1232.1429238955525
1772,1972.000,108.74805338199872,1230.5344076180013
1773,1973.000,96.80252144809333,1228.9215245519067
1774,1974.000,101.1854066061203,1227.3042713938796
1775,1975.000,101.89805415947194,1225.6826448405282
1776,1976.000,103.4515214115363,1224.0566415884637
1777,1977.000,106.02880966570501,1222.426258334295
1778,1978.000,90.20442322536769,1220.7914917746323
1779,1979.000,102.18285639391547,1219.1523386060846
1780,1980.000,106.20148347473787,1217.508795525262
1781,1981.000,104.26329577122533,1215.8608592287746
1782,1982.000,112.95909558676863,1214.2085264132313
1783,1983.000,104.30383722475744,1212.5517937752425
1784,1984.000,112.94337498858317,1210.890658011417
1785,1985.000,118.88753518163435,1209.2251158183656
1786,1986.000,107.66058310730295,1207.555163892697
1787,1987.000,110.24148506897791,1205.8807989310221
1788,1988.000,109.20711337005059,1204.2020176299493
1789,1989.000,116.45594231391124,1202.5188166860887
1790,1990.000,99.91762220394912,1200.8311927960508
1791,1991.000,104.88106034355587,1199.1391426564442
1792,1992.000,112.80644603612063,1197.4426629638795
1793,1993.000,120.71875658503473,1195.7417504149653
1794,1994.000,119.951776293688,1194.036401706312
1795,1995.000,112.40939846547053,1192.3266135345295
1796,1996.000,127.8886264037726,1190.6123825962275
1797,1997.000,119.84901541198496,1188.893705588015
1798,1998.000,116.36166179349789,1187.1705792065022
1799,1999.000,124.2386588517013,1185.4430001482988
1800,2000.000,129.82581888998516,1183.7109651100147
