# kind,background_subtracted
# version_label,v_o5
# poly_order,5
# iterations_run,6
pixel_index,raman_shift_cm-1,intensity,background_intensity
0,200.000,0.5724977232142692,330.60333727678574
1,201.000,0.0,331.386975295991
2,202.000,3.92992584928038,332.17183315071964
3,203.000,7.960701686385676,332.9579133136143
4,204.000,12.272196766159936,333.7452182338401
5,205.000,6.1319936628810865,334.53375033711893
6,206.000,2.1756569742353804,335.3235120257646
7,207.000,0.8005913212831501,336.11450567871685
8,208.000,10.019426348423508,336.9067336515765
9,209.000,15.353270723360481,337.7001982766395
10,210.000,7.19874913706775,338.49490186293224
11,211.000,0.0,339.2908466962455
12,212.000,0.0,340.0880350391695
13,213.000,15.214575868871918,340.8864691311281
14,214.000,6.849071811586043,341.68615118841393
15,215.000,0.0,342.4870834042226
16,216.000,5.164032051312631,343.2892679486874
17,217.000,0.0,344.092706968914
18,218.000,1.924636410984931,344.8974025890151
19,219.000,2.789302089855312,345.7033569101447
20,220.000,1.454354989466765,346.5105720105332
21,221.000,9.071330054478267,347.3190499455217
22,222.000,5.389291252403325,348.12879274759666
23,223.000,2.2478895735755486,348.9398024264245
24,224.000,8.258896031113807,349.7520809688862
25,225.000,10.796711660887922,350.5656303391121
26,226.000,0.0,351.3804524785163
27,227.000,4.309976694168711,352.1965493058313
28,228.000,0.0,353.0139227171427
29,229.000,4.843868414076383,353.8325745859236
30,230.000,0.0,354.65250676306965
31,231.000,6.039036923066931,355.4737210769331
32,232.000,5.7034936666422595,356.2962193333577
33,233.000,4.1206056842863745,357.12000331571363
34,234.000,0.0,357.9450747849314
35,235.000,3.6008625204630675,358.77143547953693
36,236.000,0.0,359.59908711568625
37,237.000,0.0,360.42803138719967
38,238.000,7.3730690344032155,361.2582699655968
39,239.000,0.0,362.089804500131
40,240.000,13.076546382176048,362.92263661782397
41,241.000,10.36935407649952,363.7567679235005
42,242.000,0.0,364.5921999998227
43,243.000,7.73241559267484,365.4289344073252
44,244.000,0.0,366.2669726844493
45,245.000,6.327387652422374,367.1063163475776
46,246.000,6.405380108931013,367.946966891069
47,247.000,0.0,368.78892578729284
48,248.000,4.771822513336247,369.63219448666376
49,249.000,4.6518405823237,370.4767744176763
50,250.000,11.97269701306044,371.32266698693957
51,251.000,0.0,372.1698735792115
52,252.000,10.65684244256596,373.018395557434
53,253.000,0.0,373.86823426276715
54,254.000,4.268295985376085,374.7193910146239
55,255.000,1.2267568892951317,375.5718671107049
56,256.000,14.97542317296734,376.4256638270327
57,257.000,9.705638582013194,377.2807824179868
58,258.000,20.89996388366194,378.1372241163381
59,259.000,10.174157866716826,378.9949901332832
60,260.000,11.40558934152051,379.8540816584795
61,261.000,11.3925851399203,380.7144998600797
62,262.000,2.7215531152340304,381.57624588476597
63,263.000,5.953665142214902,382.4393208577851
64,264.000,14.488662117017043,383.303725882983
65,265.000,4.019395957161009,384.169462042839
66,266.000,7.5437456014993245,385.0365303985007
67,267.000,6.2957320101812115,385.9049319898188
68,268.000,10.090372164618827,386.7746678353812
69,269.000,4.257496067452053,387.64573893254794
70,270.000,5.544527742514106,388.5181462574859
71,271.000,7.924610234797001,389.391890765203
72,272.000,7.099957610416652,390.26697338958337
73,273.000,1.3033509565786972,391.1433950434213
74,274.000,11.87912538154336,392.02115661845664
75,275.000,0.0,392.9002589854086
76,276.000,0.0,393.78070299401094
77,277.000,0.0,394.66248947304626
78,278.000,12.34992676961906,395.54561923038096
79,279.000,4.395031947000632,396.4300930529994
80,280.000,0.7429212929611708,397.3159117070388
81,281.000,0.0,398.2030759378238
82,282.000,9.11644253009888,399.09158646990113
83,283.000,0.2706699929260594,399.98144400707395
84,284.000,0.0,400.8726492324368
85,285.000,10.303385191589882,401.7652028084101
86,286.000,0.0,402.6591053767746
87,287.000,4.703969441293793,403.5543575587062
88,288.000,6.607412045189449,404.45095995481057
89,289.000,3.985213854842584,405.34891314515744
90,290.000,6.341771310684351,406.24821768931565
91,291.000,14.707946873612684,407.14887412638734
92,292.000,3.5827740249569047,408.0508829750431
93,293.000,0.0,408.95424473355587
94,294.000,0.0,409.8589598798362
95,295.000,5.481210128533462,410.76502887146654
96,296.000,4.604541854264198,411.6724521457358
97,297.000,8.316766880325815,412.58123011967416
98,298.000,3.9487508099124398,413.49136319008755
99,299.000,3.87024426640761,414.4028517335924
100,300.000,2.4218968933500946,415.3156961066499
101,301.000,3.638807354398864,416.2298966456011
102,302.000,7.726158333298827,417.1454536667012
103,303.000,4.4899735338457845,418.0623674661542
104,304.000,7.3818896798524065,418.9806383201476
105,305.000,18.19336851511315,419.90026648488686
106,306.000,9.667817803369758,420.82125219663027
107,307.000,0.0,421.74359567172326
108,308.000,17.207585893366797,422.6672971066332
109,309.000,8.899704322015907,423.59235667798407
110,310.000,1.170653457409287,424.51877454259073
111,311.000,12.267574162506094,425.44655083749393
112,312.000,6.9372173200052885,426.3756856799947
113,313.000,3.1458308323108213,427.30617916768915
114,314.000,3.041802621497311,428.2380313785027
115,315.000,0.8878356292750027,429.171242370725
116,316.000,7.142564816955314,430.1058121830447
117,317.000,13.272032165416476,431.04174083458355
118,318.000,4.913954675068567,431.97902832493145
119,319.000,9.394201365819072,432.9176746341809
120,320.000,18.12797827703838,433.8576797229616
121,321.000,0.0,434.799043532475
122,322.000,8.4284900154708,435.7417659845292
123,323.000,5.049143018426946,436.68584698157304
124,324.000,0.5364915932686927,437.6312864067313
125,325.000,0.7410628761610951,438.5780841238389
126,326.000,6.80840702252442,439.5262399774756
127,327.000,9.507124206999208,440.4757537930008
128,328.000,3.718085623412037,441.42662537658794
129,329.000,7.237502484740901,442.3788545152591
130,330.000,11.247800023080345,443.33244097691966
131,331.000,8.697159489606861,444.28738451039317
132,332.000,12.132910154544504,445.2436848454555
133,333.000,9.692214307130257,446.20134169286973
134,334.000,9.85468125557935,447.16035474442066
135,335.000,17.889112327050384,448.1207236729496
136,336.000,10.670853867611186,449.08244813238883
137,337.000,7.711019242203918,450.0455277577961
138,338.000,11.19607883461066,451.00996216538937
139,339.000,1.4237530474184155,451.97575095258156
140,340.000,4.914199301985036,452.942893698015
141,341.000,11.701542038404114,453.9113899615959
142,342.000,10.728579715470687,454.88123928452933
143,343.000,16.235527810646488,455.8524411893535
144,344.000,7.009549820025541,456.82499517997445
145,345.000,0.0,457.79890074170083
146,346.000,18.632465658721742,458.7741573412783
147,347.000,13.507260573075712,459.75076442692426
148,348.000,0.5982545716375967,460.7287214283624
149,349.000,15.206253243142669,461.70802775685735
150,350.000,7.146216194750764,462.68868280524924
151,351.000,0.0,463.67068594798843
152,352.000,4.430220458830036,464.65403654116994
153,353.000,3.8989780774317637,465.63873392256824
154,354.000,16.49740458832838,466.62477741167163
155,355.000,2.1996756902827315,467.6121663097173
156,356.000,5.430013100274721,468.6008998997253
157,357.000,5.290639553466292,469.5909774465337
158,358.000,4.676712803167106,470.5823981968329
159,359.000,1.4653086207996466,471.5751613792004
160,360.000,8.263336795864745,472.56926620413526
161,361.000,13.408563135907173,473.5647118640928
162,362.000,10.690381466480687,474.5614975335193
163,363.000,1.3801606311134833,475.5596223688865
164,364.000,0.04475949127390777,476.55908550872607
165,365.000,7.655854926335508,477.5598860736645
166,366.000,2.700752833542367,478.5620231664576
167,367.000,3.1573201279749696,479.56549587202505
168,368.000,0.0,480.570303257485
169,369.000,18.6370086278111,481.5764443721889
170,370.000,12.431438752244162,482.58391824775583
171,371.000,1.085807101892783,483.59272389810724
172,372.000,12.375902680498484,484.60286031950153
173,373.000,14.97881750943128,485.6143264905687
174,374.000,0.0,486.6271213723451
175,375.000,3.6243230916924745,487.6412439083075
176,376.000,4.586996975591546,488.65669302440847
177,377.000,10.801072370889699,489.6734676291103
178,378.000,6.179327386579814,490.6915666134202
179,379.000,5.521972149075566,491.7109888509244
180,380.000,6.55063780217688,492.73173319782313
181,381.000,18.016993507035068,493.7537984929649
182,382.000,19.852961442118442,494.77718355788153
183,383.000,3.740027803177668,495.80188719682235
184,384.000,1.3272978032110245,496.827908196789
185,385.000,23.035723672429924,497.8552453275701
186,386.000,0.9974506582242384,498.88389734177576
187,387.000,3.4308880251277287,499.91386297487225
188,388.000,7.086042054783491,500.9451409452165
189,389.000,9.761154045909166,501.9777299540908
190,390.000,13.030883314262496,503.0116286857375
191,391.000,9.19739919260661,504.0468358073934
192,392.000,1.611976030675578,505.08334996932444
193,393.000,9.879180195139384,506.12116980486064
194,394.000,8.334876069569873,507.16029393043016
195,395.000,18.091243054405936,508.20072094559407
196,396.000,6.733963566918533,509.24244943308145
197,397.000,0.0,510.28547795882326
198,398.000,0.5419359280124922,511.3298050719875
199,399.000,15.506834694986424,512.3754293050135
200,400.000,3.558867826353321,513.4223491736467
201,401.000,0.0,514.4705631769734
202,402.000,3.3025672025452195,515.5200697974548
203,403.000,6.7802294990376595,516.5708675009623
204,404.000,13.906376263188122,517.6229547368118
205,405.000,0.6797180622018004,518.6763299377982
206,406.000,10.759641479769925,519.7309915202301
207,407.000,11.524233116035361,520.7869378839646
208,408.000,2.5488885875585083,521.8441674124415
209,409.000,5.612343527281496,522.9026784727185
210,410.000,17.347130584494835,523.9624694155052
211,411.000,17.045769424801733,525.0235385751982
212,412.000,11.848310730084904,526.0858842699151
213,413.000,8.699061198469849,527.1495048015302
214,414.000,13.529332544292402,528.2143984557076
215,415.000,5.847390498062964,529.2805635019371
216,416.000,6.112763806431758,530.3479981935683
217,417.000,1.5129182321547887,531.4167007678452
218,418.000,6.7001075540592865,532.4866694459407
219,419.000,6.166166567008304,533.5579024329917
220,420.000,23.291488081866873,534.6303979181331
221,421.000,5.483962925467381,535.7041540745327
222,422.000,14.257147940573986,536.7791690594261
223,423.000,14.54633598584951,537.8554410141505
224,424.000,5.495488935819708,538.9329680641803
225,425.000,13.62164868083903,540.0117483191609
226,426.000,0.0,541.091779872944
227,427.000,7.15633019637869,542.1730608036213
228,428.000,11.720935826439813,543.2555891735602
229,429.000,0.0,544.3393630294377
230,430.000,0.0,545.4243804022749
231,431.000,12.885012692527539,546.5106393074725
232,432.000,4.996712255155899,547.598137744844
233,433.000,0.0,548.686873698652
234,434.000,4.2773278623587885,549.7768451376412
235,435.000,3.2532939849260174,550.868050015074
236,436.000,10.845336731234966,551.9604862687651
237,437.000,9.2117051788847,553.0541518211153
238,438.000,4.796665420852719,554.1490445791472
239,439.000,2.4755365654608568,555.2451624345391
240,440.000,6.133806736340375,556.3425032636596
241,441.000,14.397378072397146,557.4410649276028
242,442.000,8.529893727778017,558.540845272222
243,443.000,10.258620871834864,559.6418421281651
244,444.000,5.509983689090973,560.7440533109091
245,445.000,0.0,561.8474766207942
246,446.000,2.1270171569409513,562.952109843059
247,447.000,10.288379252125196,564.0579507478748
248,448.000,6.989058909619757,565.1649970903802
249,449.000,0.9354483892842609,566.2732466107158
250,450.000,0.0,567.3826970340589
251,451.000,6.999800929342086,568.4933460706579
252,452.000,4.287023584132953,569.605191415867
253,453.000,4.209456249819027,570.718230750181
254,454.000,4.324293260730542,571.8324617392694
255,455.000,7.992710965988181,572.9478820340119
256,456.000,8.044184729468157,574.0644892705318
257,457.000,12.03842192976822,575.1822810702317
258,458.000,11.824265960172397,576.3012550398277
259,459.000,14.234317228616305,577.4214087713837
260,460.000,11.067897157653647,578.5427398423464
261,461.000,4.203970184420086,579.66524581558
262,462.000,5.879845760599437,580.7889242394006
263,463.000,9.158532352389557,581.9137726476105
264,464.000,4.319215440466564,583.0397885595335
265,465.000,9.465274519951095,584.1669694800489
266,466.000,13.077918100373267,585.2953128996268
267,467.000,1.3363547056384277,586.4248162943616
268,468.000,0.0,587.5554771260076
269,469.000,13.280754157986166,588.6872928420138
270,470.000,6.212811124442624,589.8202608755573
271,471.000,10.345655354421297,590.9543786455787
272,472.000,0.0,592.089643556817
273,473.000,16.466237000156298,593.2260529998437
274,474.000,10.487266648902619,594.3636043510974
275,475.000,5.286333027081582,595.5022949729184
276,476.000,3.9180457864159735,596.642122213584
277,477.000,6.70051559265778,597.7830834073422
278,478.000,5.00388812555309,598.925175874447
279,479.000,4.319245078807853,600.0683969211922
280,480.000,0.0,601.2127438399468
281,481.000,13.542391090810497,602.3582139091895
282,482.000,5.715111606456958,603.504804393543
283,483.000,6.387417456191429,604.6525125438086
284,484.000,6.484111402999133,605.8013355970008
285,485.000,0.0,606.9512707763829
286,486.000,9.063453708500333,608.1023152914996
287,487.000,3.912659661786165,609.2544663382139
288,488.000,4.139197901260445,610.4077210987396
289,489.000,6.280275258322149,611.5620767416779
290,490.000,0.013676577950036517,612.71753042205
291,491.000,10.895801718666462,613.8740792813336
292,492.000,1.6473245525037328,615.0317204474962
293,493.000,0.3875709649697683,616.1904510350303
294,494.000,0.6234038550124978,617.3502681449875
295,495.000,6.7360991349859205,618.511168865014
296,496.000,10.245322730615499,619.6731502693845
297,497.000,2.187415580963261,620.8362094190368
298,498.000,0.0,622.0003433616067
299,499.000,12.106950868537297,623.1655491314627
300,500.000,0.0,624.3318237497401
301,501.000,12.875412775623545,625.4991642243765
302,502.000,5.367934449855056,626.6675675501449
303,503.000,1.490940291309812,627.8370307086902
304,504.000,1.828185331437453,629.0075506685625
305,505.000,8.42706861474801,630.179124385252
306,506.000,10.979614198776517,631.3517488012235
307,507.000,4.441944154048315,632.5254208459517
308,508.000,11.300230564045023,633.700137435955
309,509.000,18.128234525169546,634.8758954748305
310,510.000,4.344343146711481,636.0526918532885
311,511.000,0.0,637.2305234491871
312,512.000,0.0,638.409387127567
313,513.000,0.0,639.5892797406857
314,514.000,1.7085148719472727,640.7701981280527
315,515.000,1.1921948835365583,641.9521391164634
316,516.000,0.0,643.1350995200346
317,517.000,8.693093859761802,644.3190761402382
318,518.000,0.0,645.5040657659363
319,519.000,0.0,646.6900651734157
320,520.000,17.570276873577313,647.8770711264227
321,521.000,11.694835623802646,649.0650803761973
322,522.000,8.59420533849152,650.2540896615085
323,523.000,8.190635291312105,651.4440957086879
324,524.000,16.062529768335025,652.635095231665
325,525.000,8.640723067997783,653.8270849320022
326,526.000,5.882670501071516,655.0200614989285
327,527.000,0.0,656.2140216093742
328,528.000,4.9564520719934535,657.4089619280065
329,529.000,0.9861588927369667,658.6048791072631
330,530.000,1.1436982126132307,659.8017697873868
331,531.000,1.0868944035390768,660.999630596461
332,532.000,5.096332849556347,662.1984581504437
333,533.000,3.3781589467980666,663.3982490532019
334,534.000,10.575639103453454,664.5989998965465
335,535.000,0.0,665.8007072602672
336,536.000,4.318360287833343,667.0033677121667
337,537.000,16.48586019190509,668.206977808095
338,538.000,5.5563769080151815,669.4115340919848
339,539.000,12.50924690411398,670.617033095886
340,540.000,12.13377066000055,671.8234713399994
341,541.000,13.208007667287234,673.0308453327127
342,542.000,9.732892429366416,674.2391515706336
343,543.000,0.0,675.4483865386256
344,544.000,3.6936582901576003,676.6585467098424
345,545.000,3.013787454238127,677.8696285457619
346,546.000,0.0,679.0816284962211
347,547.000,2.5101480005484973,680.2945429994516
348,548.000,0.0,681.5083684821125
349,549.000,0.0,682.7231013593265
350,550.000,6.560892965286257,683.9387380347138
351,551.000,5.036343099573173,685.1552749004268
352,552.000,1.174304662815075,686.3727083371849
353,553.000,0.0,687.591034714309
354,554.000,2.0631746102441184,688.8102503897559
355,555.000,2.952719289846641,690.0303517101534
356,556.000,2.8762309891657196,691.2513350108343
357,557.000,5.017538384128443,692.4731966158715
358,558.000,2.7307771618874312,693.6959328381125
359,559.000,7.677523020786111,694.9195399792139
360,560.000,8.506118670323985,696.144014329676
361,561.000,7.530948831122714,697.3693521688773
362,562.000,1.421699234890184,698.5955497651098
363,563.000,1.7197476243875371,699.8226033756125
364,564.000,8.048443753392917,701.0505092466071
365,565.000,4.279635386668247,702.2792636133318
366,566.000,5.227933299923734,703.5088627000763
367,567.000,0.0,704.7393027202163
368,568.000,0.0,705.9705798762484
369,569.000,7.600344640176104,707.2026903598239
370,570.000,7.590970648215489,708.4356303517845
371,571.000,14.013759977803716,709.6693960221963
372,572.000,10.023365469615783,710.9039835303843
373,573.000,7.0740189750328,712.1393890249672
374,574.000,5.8932863561079785,713.3756086438921
375,575.000,0.0,714.6126385144692
376,576.000,11.211771246594253,715.8504747534057
377,577.000,2.358180533158702,717.0891134668414
378,578.000,9.067726249617294,718.3285507503828
379,579.000,7.332929310862369,719.5687826891376
380,580.000,7.852526642250382,720.8098053577496
381,581.000,11.671420179566667,722.0516148204333
382,582.000,3.480605868992143,723.2942071310079
383,583.000,4.210797667067027,724.537578332933
384,584.000,1.5245145406579468,725.7817244593421
385,585.000,4.534562466921784,727.0266415330782
386,586.000,16.944654433272376,728.2723255667277
387,587.000,4.936019437344953,729.518772562655
388,588.000,14.413827486962077,730.7659785130379
389,589.000,12.45986060009875,732.0139393999012
390,590.000,12.105152804847876,733.2626511951521
391,591.000,12.798198139385818,734.5121098606141
392,592.000,2.1735526519374844,735.7623113480626
393,593.000,10.811563400741761,737.0132515992582
394,594.000,18.450440454017325,738.2649265459827
395,595.000,5.137503889927643,739.5173321100724
396,596.000,9.472116796546288,740.7704642034537
397,597.000,6.1208322718225645,742.0243187281775
398,598.000,12.727612423546589,743.2788915764534
399,599.000,5.005299369315708,744.5341786306843
400,600.000,21.882024236497955,745.790175763502
401,601.000,10.82600616219952,747.0468788378005
402,602.000,4.833629293228341,748.3042837067717
403,603.000,26.006693786061078,749.5623862139389
404,604.000,22.465845806807465,750.8211821931925
405,605.000,21.39282853117595,752.080667468824
406,606.000,23.439699144439487,753.3408378555605
407,607.000,20.468990841399773,754.6016891586003
408,608.000,24.171265826354443,755.8632171736456
409,609.000,33.42832531306044,757.1254176869396
410,610.000,39.05079452470113,758.3882864752989
411,611.000,44.77607569385111,759.6518193061489
412,612.000,47.65754706244081,760.9160119375592
413,613.000,52.88027488172281,762.1808601182772
414,614.000,66.5989784122371,763.4463595877629
415,615.000,90.04827292377627,764.7125060762237
416,616.000,111.89054569535108,765.9792953046489
417,617.000,125.10348501515534,767.2467229848446
418,618.000,149.80830718053198,768.514784819468
419,619.000,181.2314624979382,769.7834765020618
420,620.000,186.48947028291047,771.0527937170896
421,621.000,177.89355886003068,772.3227321399693
422,622.000,144.72582156289081,773.5932874371092
423,623.000,124.80035973405859,774.8644552659414
424,624.000,100.01646772504319,776.1362312749568
425,625.000,84.45737589626026,777.4086111037398
426,626.000,57.42500461699683,778.6815903830031
427,627.000,63.05617026537823,779.9551647346218
428,628.000,47.89399322833185,781.2293297716682
429,629.000,41.464316901553275,782.5040810984467
430,630.000,26.079047689471622,783.7794143105284
431,631.000,28.528510005215026,785.055324994785
432,632.000,33.08576727057584,786.3318087294242
433,633.000,12.728463915975908,787.608861084024
434,634.000,21.57370338043222,788.8864776195678
435,635.000,21.933609111522514,790.1646538884775
436,636.000,11.914179565350082,791.4433854346499
437,637.000,19.53772220650933,792.7226677934907
438,638.000,11.460725508051269,794.0024964919487
439,639.000,19.78141295144951,795.2828670485505
440,640.000,14.669120026564201,796.5637749734358
441,641.000,12.067133231608864,797.8452157683911
442,642.000,22.087903073115058,799.127184926885
443,643.000,14.420489065897641,800.4096779341023
444,644.000,16.744413733020906,801.6926902669791
445,645.000,1.277578605762983,802.976217394237
446,646.000,4.107382223582022,804.2602547764179
447,647.000,12.6220521340814,805.5447978659186
448,648.000,12.689414892974696,806.8298421070253
449,649.000,6.6070430640514815,808.1153829359486
450,650.000,11.334113219142637,809.4014157808574
451,651.000,0.0449549380858798,810.6879360619141
452,652.000,7.439498808690814,811.9749391913092
453,653.000,0.0,813.2624205732955
454,654.000,7.779185395776722,814.5503756042233
455,655.000,2.6325233274260427,815.8387996725739
456,656.000,1.5311988410039703,817.1276881589961
457,657.000,5.555018563661179,818.4170364363388
458,658.000,15.973191130313467,819.7068398696865
459,659.000,0.0,820.9970938163948
460,660.000,1.189600373877056,822.287793626123
461,661.000,11.084749359129205,823.5789346408708
462,662.000,2.0235418049891223,824.8705121950109
463,663.000,15.073556384674134,826.1625216153259
464,664.000,5.6924377789595155,827.4549582210404
465,665.000,4.806073676142205,828.7478173238578
466,666.000,6.313870772006339,830.0410942279937
467,667.000,14.534765769789715,831.3347842302103
468,668.000,7.939439380147405,832.6288826198526
469,669.000,7.031242321119294,833.9233846788807
470,670.000,5.369626318093424,835.2182856819065
471,671.000,0.0,836.513580896227
472,672.000,0.0,837.8092655818598
473,673.000,12.561287008423733,839.1053349915762
474,674.000,8.532714629061843,840.4017843709381
475,675.000,6.580715041669123,841.6986089583309
476,676.000,7.312071015001607,842.9958039849984
477,677.000,0.175836324922102,844.2933646750779
478,678.000,5.41506775436585,845.5912862456341
479,679.000,0.0,846.8895639066948
480,680.000,5.641291138716042,848.1881928612839
481,681.000,0.0,849.4871683054578
482,682.000,1.923366571661063,850.7864854283389
483,683.000,5.885864587849937,852.08613941215
484,684.000,1.165296567749806,853.3861254322502
485,685.000,6.973640342832027,854.686438657168
486,686.000,5.787914751363246,855.9870742486368
487,687.000,5.173313638370701,857.2880273616292
488,688.000,10.929199855607862,858.5892931443922
489,689.000,0.0,859.8908667384807
490,690.000,0.0,861.1927432787929
491,691.000,6.585871106394507,862.4949178936055
492,692.000,8.503992295393914,863.7973857046061
493,693.000,14.900934173069345,865.1001418269307
494,694.000,7.341517630804219,866.4031813691957
495,695.000,7.75914256646513,867.7064994335349
496,696.000,0.0,869.0100911156317
497,697.000,7.2441914952443085,870.3139515047557
498,698.000,6.748178316203621,871.6180756837964
499,699.000,0.0,872.9224587292975
500,700.000,0.0,874.2270957114928
501,701.000,1.9742923056612653,875.5319816943387
502,702.000,4.3501542644486335,876.8371117355514
503,703.000,0.0,878.1424808866391
504,704.000,3.005258807061523,879.4480841929385
505,705.000,3.9511763063520675,880.753916693648
506,706.000,1.488464578137041,882.059973421863
507,707.000,4.134672595388906,883.366249404611
508,708.000,5.254205337115195,884.6727396628849
509,709.000,0.0,885.9794392116787
510,710.000,4.988353939978424,887.2863430600215
511,711.000,0.9708957889870362,888.593446211013
512,712.000,0.0,889.9007436618563
513,713.000,3.7109725961051936,891.2082304038948
514,714.000,11.371933577354639,892.5159014226454
515,715.000,0.0,893.8237516978329
516,716.000,0.0,895.1317762034259
517,717.000,0.0,896.4399699076698
518,718.000,14.278298226877041,897.7483277731229
519,719.000,0.8992502433100071,899.05684475669
520,720.000,2.047094190342591,900.3655158096574
521,721.000,0.0,901.6743358777277
522,722.000,0.0,902.9832999010537
523,723.000,0.0,904.2924028142739
524,724.000,3.417418453453365,905.6016395465466
525,725.000,3.9527249784154037,906.9110050215846
526,726.000,0.0,908.2204941576897
527,727.000,0.0,909.5301018677876
528,728.000,0.0,910.839823059462
529,729.000,2.2527073650099965,912.14965263499
530,730.000,3.8800465086237637,913.4595854913763
531,731.000,9.177981479612754,914.7696165203872
532,732.000,10.61938539141363,916.0797406085863
533,733.000,8.854348362631754,917.3899526373682
534,734.000,10.505394517006039,918.700247482994
535,735.000,0.0,920.0106200166249
536,736.000,0.0,921.3210651043577
537,737.000,9.36639239274109,922.6315776072589
538,738.000,4.256791618600801,923.9421523813992
539,739.000,2.659410722111147,925.2527842778888
540,740.000,0.0,926.5634681429115
541,741.000,0.0,927.8741988177588
542,742.000,7.013601861134248,929.1849711388658
543,743.000,4.710145062155107,930.4957799378449
544,744.000,0.9197599584797445,931.8066200415202
545,745.000,0.2569117280369255,933.1174862719631
546,746.000,0.0,934.428373446526
547,747.000,5.0499466221225475,935.7392763778774
548,748.000,9.079019125963555,937.0501898740364
549,749.000,12.779706261593333,938.3611087384066
550,750.000,3.280402230187633,939.6720277698124
551,751.000,1.8243992374680147,940.9829417625319
552,752.000,0.0,942.2938455063323
553,753.000,10.534231213495218,943.6047337865048
554,754.000,13.518148616102053,944.915601383898
555,755.000,0.0,946.2264430749542
556,756.000,5.2085133682574,947.5372536317426
557,757.000,4.114185178005187,948.8480278219948
558,758.000,0.24305759086144008,950.1587604091386
559,759.000,0.0,951.4694461523334
560,760.000,1.7549241934954125,952.7800798065045
561,761.000,7.747109877622506,954.0906561223775
562,762.000,0.0,955.4011698465133
563,763.000,0.0,956.7116157213424
564,764.000,0.0,958.0219884851995
565,765.000,12.581248127641743,959.3322828723583
566,766.000,8.120957386933583,960.6424936130664
567,767.000,5.66396856642109,961.9526154335789
568,768.000,4.070319943805771,963.2626430561942
569,769.000,2.2061218007119123,964.5725711992881
570,770.000,5.933368422652393,965.8823945773476
571,771.000,4.9665160989925425,967.1921079010075
572,772.000,5.813560122917352,968.5017058770826
573,773.000,7.637966791395456,969.8111832086046
574,774.000,9.204277405145262,971.1205345948547
575,775.000,18.439026268600287,972.4297547313997
576,776.000,1.2442966898737495,973.7388383101262
577,777.000,12.428713980725774,975.0477800192742
578,778.000,8.169750456526458,976.3565745434736
579,779.000,6.314451436223067,977.6652165637769
580,780.000,0.3878912423045904,978.9737007576954
581,781.000,19.942224200767328,980.2820217992327
582,782.000,12.380362641080296,981.5901743589197
583,783.000,16.1793378961504,982.8981531038496
584,784.000,26.399635302288516,984.2059526977115
585,785.000,20.589609199173537,985.5135678008264
586,786.000,31.51036492981973,986.8209930701803
587,787.000,36.09510584053976,988.1282231594602
588,788.000,47.66129028091257,989.4352527190875
589,789.000,56.50637460374628,990.7420763962537
590,790.000,54.19493516504576,992.0486888349542
591,791.000,75.04353132397671,993.3550846760232
592,792.000,79.65606044283118,994.6612585571688
593,793.000,90.9049388869937,995.9672051130062
594,794.000,96.13842602490581,997.2729189750942
595,795.000,104.74535122803206,998.578394771968
596,796.000,90.12484587082452,999.8836271291756
597,797.000,91.69774033068984,1001.1886106693103
598,798.000,87.24483698795245,1002.4933400120475
599,799.000,67.77661222582196,1003.797809774178
600,800.000,71.48539243035736,1005.1020145696426
601,801.000,45.93435199043256,1006.4059490095674
602,802.000,44.0242142977022,1007.7096077022977
603,803.000,33.52509674656676,1009.0129852534333
604,804.000,27.502506734137683,1010.3160762658623
605,805.000,20.24129566020349,1011.6188753397965
606,806.000,20.170000927194565,1012.9213770728055
607,807.000,20.178635940148297,1014.2235760598517
608,808.000,13.243232106675691,1015.5254668933243
609,809.000,21.319000836925397,1016.8270441630746
610,810.000,23.427214543549894,1018.1283024564501
611,811.000,3.6708896416703283,1019.4292363583297
612,812.000,16.603699548842542,1020.7298404511575
613,813.000,11.647389685021949,1022.030109314978
614,814.000,11.04755247252956,1023.3300375274705
615,815.000,23.53950733601573,1024.6296196639842
616,816.000,15.292301702428858,1025.9288502975712
617,817.000,9.447310000976131,1027.227723999024
618,818.000,7.987646663093301,1028.5262353369067
619,819.000,0.0,1029.8243788775926
620,820.000,10.655127814703292,1031.1221491852966
621,821.000,1.1369491778887095,1032.4195408221112
622,822.000,6.3314886519590345,1033.716548348041
623,823.000,5.545508678964097,1035.013166321036
624,824.000,10.434741702972588,1036.3093892970273
625,825.000,16.595150170037414,1037.6052118299626
626,826.000,10.076695528161054,1038.900628471839
627,827.000,11.596478227262196,1040.195633772738
628,828.000,2.353664719138578,1041.4902222808614
629,829.000,6.314131457435451,1042.7843885425646
630,830.000,8.028239897608955,1044.0781271023911
631,831.000,0.0,1045.3714325031087
632,832.000,15.366711714257917,1046.6642992857421
633,833.000,0.0,1047.9567219896094
634,834.000,0.0,1049.2486951523542
635,835.000,12.556726690016603,1050.5402133099833
636,836.000,15.35846800310037,1051.8312709968995
637,837.000,0.0,1053.121862745936
638,838.000,0.0,1054.4119830883915
639,839.000,21.046585445934397,1055.7016265540656
640,840.000,2.9717413287085037,1056.9907876712914
641,841.000,0.0,1058.2794609669722
642,842.000,0.0,1059.5676409666157
643,843.000,14.100743805633329,1060.8553221943666
644,844.000,5.981960826955856,1062.1424991730441
645,845.000,6.482740575824664,1063.4291664241753
646,846.000,9.263895531971684,1064.7153184680283
647,847.000,5.92086417635096,1066.000949823649
648,848.000,0.0,1067.2860550088958
649,849.000,0.0,1068.5706285404722
650,850.000,4.410655066037634,1069.8546649339623
651,851.000,0.0,1071.1381587038663
652,852.000,1.3184746363654085,1072.4211043636346
653,853.000,12.17481057429768,1073.7034964257023
654,854.000,4.832018598477362,1074.9853294015227
655,855.000,1.914138198396131,1076.266597801604
656,856.000,1.9221748644574745,1077.5472961355426
657,857.000,5.885492087941657,1078.8274189120584
658,858.000,7.00242636097164,1080.1069606390283
659,859.000,0.0,1081.3859158235218
660,860.000,2.5410930281643687,1082.6642789718355
661,861.000,11.700860410472387,1083.9420445895275
662,862.000,5.913305818547997,1085.219207181452
663,863.000,0.0,1086.4957612517942
664,864.000,0.0,1087.771701304104
665,865.000,0.0,1089.0470218413325
666,866.000,0.0,1090.3217173658636
667,867.000,10.947896620447864,1091.5957823795522
668,868.000,0.8761266162434822,1092.8692113837565
669,869.000,0.0,1094.1419988793718
670,870.000,0.0,1095.4141393668688
671,871.000,0.596344653675942,1096.685627346324
672,872.000,0.6126406825426329,1097.9564573174573
673,873.000,0.0,1099.2266237796644
674,874.000,0.0,1100.4961212320532
675,875.000,5.050035826522617,1101.7649441734775
676,876.000,10.456452897428335,1103.0330871025717
677,877.000,0.0,1104.3005445177862
678,878.000,0.0,1105.5673109174204
679,879.000,8.350211200341391,1106.8333807996587
680,880.000,0.0,1108.0987486626047
681,881.000,0.0,1109.3634090043156
682,882.000,0.0,1110.627356322837
683,883.000,2.217021883762982,1111.890585116237
684,884.000,0.0,1113.1530898826425
685,885.000,0.0,1114.4148651202715
686,886.000,3.078602672530451,1115.6759053274695
687,887.000,0.0,1116.9362050027428
688,888.000,0.0,1118.1957586447943
689,889.000,0.0,1119.454560752557
690,890.000,5.725306174770367,1120.7126058252297
691,891.000,0.0,1121.9698883623107
692,892.000,3.92878213636709,1123.226402863633
693,893.000,5.278506170601531,1124.4821438293984
694,894.000,6.104236239786815,1125.7371057602131
695,895.000,0.22411684287953904,1126.9912831571205
696,896.000,0.0,1128.2446705216375
697,897.000,1.8073766442107626,1129.4972623557892
698,898.000,0.0,1130.7490531621415
699,899.000,0.0,1132.0000374438378
700,900.000,8.863843295366905,1133.250209704633
701,901.000,0.0,1134.4995644489277
702,902.000,12.136044818196524,1135.7480961818035
703,903.000,4.465385590943924,1136.995799409056
704,904.000,0.0,1138.2426686372323
705,905.000,4.037626626337669,1139.4886983736624
706,906.000,8.811537873503767,1140.7338831264963
707,907.000,0.0,1141.9782174047373
708,908.000,0.0,1143.2216957182768
709,909.000,0.0,1144.4643125779294
710,910.000,2.506579504532965,1145.706062495467
711,911.000,3.966021016346758,1146.9469399836532
712,912.000,1.7395944437209891,1148.186939556279
713,913.000,0.0,1149.4260557281964
714,914.000,0.0,1150.6642830153532
715,915.000,8.771098065172964,1151.901615934827
716,916.000,8.380738995137335,1153.1380490048628
717,917.000,2.498820255097371,1154.3735767449027
718,918.000,0.0,1155.6081936756245
719,919.000,5.546949681024898,1156.8418943189752
720,920.000,3.540155801795663,1158.0746731982044
721,921.000,3.36818516209928,1159.3065248379007
722,922.000,12.271251235975114,1160.5374437640248
723,923.000,6.8552894960541835,1161.767424503946
724,924.000,0.0,1162.996461586474
725,925.000,0.0,1164.2245495418965
726,926.000,10.348075097988385,1165.4516829020117
727,927.000,3.349222799836298,1166.6778562001637
728,928.000,7.4881730287224855,1167.9030639712776
729,929.000,1.5806062481069603,1169.127300751893
730,930.000,0.0,1170.350561080199
731,931.000,4.277871503930555,1171.5728394960695
732,932.000,12.106891458902737,1172.7941305410973
733,933.000,4.851738241371322,1174.0144287586286
734,934.000,0.0,1175.2337286937973
735,935.000,1.1178091064391538,1176.4520248935607
736,936.000,0.09533809326694609,1177.6693119067331
737,937.000,4.226204715979293,1178.8855842840208
738,938.000,9.410466421943738,1180.1008365780563
739,939.000,15.231781656565772,1181.3150633434343
740,940.000,4.8810258632559,1182.528259136744
741,941.000,1.0675914833941533,1183.7404185166058
742,942.000,4.213208956295148,1184.951536043705
743,943.000,3.950906719173645,1186.1616062808264
744,944.000,1.4143322071111015,1187.3706237928889
745,945.000,4.217806853019738,1188.5785831469802
746,946.000,4.197066087607482,1189.7854789123926
747,947.000,0.0,1190.9913056606547
748,948.000,7.74647203443169,1192.1960579655683
749,949.000,2.4233625967563057,1193.3997304032437
750,950.000,0.0,1194.6023175521314
751,951.000,7.8442910069406935,1195.8038139930593
752,952.000,2.1448886907335236,1197.0042143092664
753,953.000,15.70010491356311,1198.203513086437
754,954.000,8.28303908726366,1199.4017049127362
755,955.000,6.068257621155908,1200.5987843788441
756,956.000,1.2734449220104125,1201.7947460779897
757,957.000,3.5833753940132738,1202.9895846059867
758,958.000,11.347724438732712,1204.1832945612673
759,959.000,2.377087455082574,1205.3758705449175
760,960.000,11.329488839289297,1206.5673071607107
761,961.000,0.0,1207.7575990151436
762,962.000,8.563492282530206,1208.9467407174698
763,963.000,12.594327120265461,1210.1347268797344
764,964.000,10.088758883191076,1211.321552116809
765,965.000,8.425557953572934,1212.507211046427
766,966.000,14.938224710783288,1213.6916982892167
767,967.000,4.2122365312632155,1214.8750084687367
768,968.000,3.9493517884889116,1216.057136211511
769,969.000,11.033135852937448,1217.2380761470627
770,970.000,18.22450409205112,1218.417822907949
771,971.000,14.263382870204168,1219.596371129796
772,972.000,11.240325548667442,1220.7737154513325
773,973.000,15.015252485573455,1221.9498505144265
774,974.000,16.76298903588281,1223.1247709641173
775,975.000,7.632558551347984,1224.298471448652
776,976.000,0.0,1225.470946619519
777,977.000,11.308559868515886,1226.6421911314842
778,978.000,9.897623357376915,1227.812199642623
779,979.000,16.97484018564296,1228.980966814357
780,980.000,15.049469688511408,1230.1484873114887
781,981.000,19.140009197766176,1231.3147558022338
782,982.000,29.330864041740597,1232.4797669582595
783,983.000,30.096118545284526,1233.6435154547155
784,984.000,32.626665029729566,1234.8059959702705
785,985.000,46.58775981285362,1235.9672031871464
786,986.000,38.45736020884624,1237.1271317911537
787,987.000,44.47200352827508,1238.2857764717248
788,988.000,61.104162078051104,1239.4431319219489
789,989.000,55.190690161392695,1240.5991928386072
790,990.000,62.57514007779264,1241.7539539222073
791,991.000,93.62620612298201,1242.907409877018
792,992.000,105.30495958889719,1244.0595554111028
793,993.000,130.22380876364377,1245.2103852363562
794,994.000,162.34020293146295,1246.359894068537
795,995.000,208.71530537269632,1247.5080766273036
796,996.000,265.014382363752,1248.654927636248
797,997.000,362.36986517706896,1249.8004418229311
798,998.000,495.5826710810827,1250.9446139189172
799,999.000,694.5458603401921,1252.087438659808
800,1000.000,901.8756082147229,1253.228910785277
801,1001.000,997.5239489608925,1254.3690250391073
802,1002.000,905.2553578307798,1255.50777616922
803,1003.000,712.9758680722841,1256.6451589277158
804,1004.000,497.68231092909673,1257.7811680709033
805,1005.000,370.96819464066084,1258.915798359339
806,1006.000,277.5423944421416,1260.0490445578585
807,1007.000,214.65257556438837,1261.1809014356115
808,1008.000,159.6453072339018,1262.311363766098
809,1009.000,140.8306236727983,1263.4404263272017
810,1010.000,115.42516909877577,1264.5680839012243
811,1011.000,94.56464172507867,1265.6943312749213
812,1012.000,81.31694876046481,1266.819163239535
813,1013.000,76.02673840916827,1267.9425745908318
814,1014.000,73.73385587086705,1269.064560129133
815,1015.000,68.92301334064746,1270.1851146593526
816,1016.000,74.46223000896907,1271.3042329910309
817,1017.000,57.16007606163089,1272.421909938369
818,1018.000,62.943040679737805,1273.5381403202623
819,1019.000,58.02216803966212,1274.652918960338
820,1020.000,68.27158831301426,1275.7662406869858
821,1021.000,69.25143666660301,1276.878100333397
822,1022.000,72.17404826240477,1277.9884927375952
823,1023.000,78.30177225752732,1279.0974127424727
824,1024.000,96.55954580417483,1280.204855195825
825,1025.000,123.78623804961444,1281.3108149503855
826,1026.000,161.28702613614018,1282.4152868638598
827,1027.000,199.80254720104017,1283.5182657989599
828,1028.000,246.66900537655965,1284.6197466234403
829,1029.000,324.12885278986937,1285.7197242101306
830,1030.000,397.7382875630283,1286.8181934369718
831,1031.000,427.5314498129503,1287.9151491870498
832,1032.000,396.4845076513691,1289.010586348631
833,1033.000,328.8805231848039,1290.104499815196
834,1034.000,250.86077751452535,1291.1968844854746
835,1035.000,185.2762567365196,1292.2877352634805
836,1036.000,133.6542989414545,1293.3770470585455
837,1037.000,111.44152121464504,1294.464814785355
838,1038.000,80.5070286360185,1295.5510333639816
839,1039.000,72.80342928008031,1296.6356977199198
840,1040.000,63.08090121587793,1297.718802784122
841,1041.000,43.53827350696906,1298.800343493031
842,1042.000,43.20318221138359,1299.8803147886165
843,1043.000,36.04550438159208,1300.958711618408
844,1044.000,44.70730206446933,1302.0355289355307
845,1045.000,32.09767230125999,1303.11076169874
846,1046.000,14.805328127544726,1304.1844048724552
847,1047.000,26.061583573204416,1305.2564534267956
848,1048.000,23.599981662386654,1306.3269023376133
849,1049.000,17.94842241347078,1307.3957465865292
850,1050.000,15.220814839032982,1308.462981160967
851,1051.000,19.59646594581136,1309.5286010541886
852,1052.000,18.701775734673674,1310.5926012653263
853,1053.000,16.21241420057845,1311.6549767994215
854,1054.000,6.63740833254451,1312.7157226674556
855,1055.000,10.203595113613801,1313.7748338863862
856,1056.000,1.5679355208187644,1314.8323054791813
857,1057.000,1.2309665251450497,1315.888132474855
858,1058.000,6.204227091499888,1316.9423099085002
859,1059.000,2.658236178674997,1317.994832821325
860,1060.000,5.973299739314143,1319.0456962606859
861,1061.000,22.842948719876176,1320.0948952801239
862,1062.000,10.4816290606027,1321.1424249393972
863,1063.000,1.7971066954821708,1322.1882803045178
864,1064.000,0.0,1323.2324564477851
865,1065.000,1.3507415521798976,1324.2749484478202
866,1066.000,0.0,1325.3157513896008
867,1067.000,0.0,1326.3548603644967
868,1068.000,9.813508529696719,1327.3922704703032
869,1069.000,2.3338121887243233,1328.4279768112756
870,1070.000,7.630908501834483,1329.4619744981655
871,1071.000,23.328494351746485,1330.4942586482534
872,1072.000,6.22379561461571,1331.5248243853844
873,1073.000,5.1263281599976835,1332.5536668400023
874,1074.000,6.354506850814232,1333.5807811491857
875,1075.000,2.5104295433204697,1334.6061624566796
876,1076.000,0.0,1335.629805912934
877,1077.000,2.5647013248662915,1336.6517066751337
878,1078.000,10.578005092761941,1337.671859907238
879,1079.000,1.995716219988708,1338.6902607800114
880,1080.000,0.0,1339.70690447106
881,1081.000,0.0,1340.7217861648664
882,1082.000,0.0,1341.7349010528224
883,1083.000,3.335853666733783,1342.7462443332663
884,1084.000,6.095592788485192,1343.7558112115148
885,1085.000,6.0395101000995055,1344.7635968999004
886,1086.000,10.249653382196811,1345.7695966178032
887,1087.000,1.8624594083125885,1346.7738055916875
888,1088.000,8.083213944864383,1347.7762190551357
889,1089.000,5.017058751117702,1348.7768322488823
890,1090.000,7.2967425791496225,1349.7756404208503
891,1091.000,0.0,1350.772638826184
892,1092.000,10.546948272715326,1351.7678227272847
893,1093.000,0.0,1352.761187393844
894,1094.000,0.0,1353.7527281028808
895,1095.000,7.759869861227571,1354.7424401387725
896,1096.000,0.7794942067059765,1355.730318793294
897,1097.000,13.728180634353066,1356.716359365647
898,1098.000,4.106108837500415,1357.7005571624995
899,1099.000,0.0,1358.6829074980178
900,1100.000,4.105723306098071,1359.663405693902
901,1101.000,0.7817529205804021,1360.6420470794196
902,1102.000,12.524867008559113,1361.618826991441
903,1103.000,13.01105322552553,1362.5937407744746
904,1104.000,7.692883219300029,1363.5667837807
905,1105.000,0.8581496299973423,1364.5379513700027
906,1106.000,3.8351280899889844,1365.507238910011
907,1107.000,9.662171223872065,1366.474641776128
908,1108.000,0.0,1367.4401553515672
909,1109.000,0.0,1368.4037750273874
910,1110.000,8.610995797473834,1369.3654962025262
911,1111.000,7.990532716163898,1370.3253142838362
912,1112.000,2.24487631388115,1371.283224686119
913,1113.000,2.0971701678422505,1372.2392228321578
914,1114.000,0.0,1373.1933041527568
915,1115.000,10.972876913230039,1374.14546408677
916,1116.000,3.270097918859392,1375.0956980811407
917,1117.000,0.0,1376.044001590933
918,1118.000,0.0,1376.9903700793675
919,1119.000,0.0,1377.9347990178558
920,1120.000,14.702486113963687,1378.8772838860364
921,1121.000,8.787967828194041,1379.817820171806
922,1122.000,0.0,1380.7564033713588
923,1123.000,16.149618010784252,1381.6930289892157
924,1124.000,13.264277461736356,1382.6276925382635
925,1125.000,0.0,1383.560389539788
926,1126.000,0.0,1384.4911155235072
927,1127.000,11.803263972392187,1385.419866027608
928,1128.000,2.738192401220658,1386.3466365987792
929,1129.000,5.8949732077530825,1387.271422792247
930,1130.000,3.9637628281902835,1388.1942201718098
931,1131.000,15.118723690129173,1389.115024309871
932,1132.000,16.94375221252244,1390.0338307874777
933,1133.000,13.504114805650033,1390.95063519435
934,1134.000,8.391292871080623,1391.8654331289194
935,1135.000,11.610257801637772,1392.7782201983623
936,1136.000,14.620266981366058,1393.688992018634
937,1137.000,2.431055785495573,1394.5977442145045
938,1138.000,20.483967580407807,1395.5044724195923
939,1139.000,12.450079723600766,1396.4091722763992
940,1140.000,17.517424563655368,1397.3118394363446
941,1141.000,18.651007440200146,1398.2124695598
942,1142.000,25.502507683873773,1399.1110583161262
943,1143.000,29.190236616297625,1400.0076013837024
944,1144.000,39.34514855003249,1400.9020944499675
945,1145.000,28.05220578855142,1401.7945332114487
946,1146.000,29.82129862619945,1402.6849133738006
947,1147.000,42.4209913481634,1403.5732306518366
948,1148.000,45.71556423043421,1404.4594807695657
949,1149.000,64.93653053977323,1405.3436594602267
950,1150.000,67.59811853367933,1406.2257624663207
951,1151.000,88.64166646035073,1407.1057855396493
952,1152.000,111.09760255865353,1407.9837244413466
953,1153.000,129.34277105808542,1408.8595749419146
954,1154.000,138.50468817874275,1409.7333328212571
955,1155.000,151.28975413128433,1410.6049938687156
956,1156.000,145.4066601168961,1411.474553883104
957,1157.000,113.8833323272595,1412.3420086727406
958,1158.000,108.86639794451344,1413.2073540554866
959,1159.000,90.62727714122298,1414.0705858587771
960,1160.000,72.82482908034194,1414.931699919658
961,1161.000,58.63460591517969,1415.7906920848204
962,1162.000,53.14540578936544,1416.6475582106345
963,1163.000,47.78414183681684,1417.5022941631833
964,1164.000,41.432035181700485,1418.3548958182996
965,1165.000,43.6613009384007,1419.2053590615992
966,1166.000,38.21132321148434,1420.0536797885156
967,1167.000,26.403032095665367,1420.8998539043346
968,1168.000,23.83009767577164,1421.7438773242284
969,1169.000,32.59030502670794,1422.585745973292
970,1170.000,23.082872213424253,1423.4254557865756
971,1171.000,28.663001290879038,1424.2630027091209
972,1172.000,31.60609630400495,1425.098382695995
973,1173.000,36.796799287675185,1425.931591712325
974,1174.000,36.5232892666686,1426.7626257333313
975,1175.000,46.07304825563392,1427.591480744366
976,1176.000,40.13226125905635,1428.4181527409437
977,1177.000,54.33304827122288,1429.242637728777
978,1178.000,56.23945427618696,1430.064931723813
979,1179.000,74.06054124773482,1430.8850307522653
980,1180.000,89.18647614934912,1431.7029308506508
981,1181.000,99.50026993417782,1432.5186280658222
982,1182.000,103.1519935449951,1433.332118455005
983,1183.000,129.80494591416982,1434.14339808583
984,1184.000,120.34318496363107,1434.952463036369
985,1185.000,104.68510360483083,1435.759309395169
986,1186.000,82.36974373871226,1436.5639332612877
987,1187.000,68.40991525567324,1437.3663307443267
988,1188.000,59.685977035533824,1438.166497964466
989,1189.000,46.4501129474977,1438.9644310525023
990,1190.000,45.054242850122364,1439.7601261498776
991,1191.000,32.43086959128141,1440.5535794087186
992,1192.000,21.840105008130877,1441.3447869918691
993,1193.000,26.52131192707475,1442.1337450729252
994,1194.000,15.943976163729985,1442.92044983627
995,1195.000,18.526696522890916,1443.7048974771092
996,1196.000,4.308285798498446,1444.4870842015016
997,1197.000,11.370442773600416,1445.2670062263996
998,1198.000,15.38721222032018,1446.04465977968
999,1199.000,6.9332308998209555,1446.820041100179
1000,1200.000,9.64964456227176,1447.5931464377281
1001,1201.000,12.471453946812744,1448.3639720531874
1002,1202.000,8.575101781518924,1449.132514218481
1003,1203.000,18.221741783368543,1449.8987692166315
1004,1204.000,5.371005658205831,1450.6627333417941
1005,1205.000,5.33538210070742,1451.4244028992925
1006,1206.000,4.993218794349559,1452.1837742056505
1007,1207.000,0.0,1452.9408435886317
1008,1208.000,0.0,1453.6956073872684
1009,1209.000,8.05772904809919,1454.4480619519009
1010,1210.000,2.588338355791393,1455.1982036442087
1011,1211.000,12.62825416275291,1455.946028837247
1012,1212.000,3.5820510845178433,1456.691533915482
1013,1213.000,2.806805725177128,1457.4347152748228
1014,1214.000,9.794551677341815,1458.1755693226582
1015,1215.000,5.09269952210866,1458.9140924778912
1016,1216.000,12.88343482902792,1459.650281170972
1017,1217.000,0.0,1460.3841318439345
1018,1218.000,5.592221049569844,1461.1156409504301
1019,1219.000,6.894413044237581,1461.8448049557624
1020,1220.000,6.027962663079279,1462.5716203369207
1021,1221.000,9.489378417382568,1463.2960835826175
1022,1222.000,8.652083806679912,1464.01819119332
1023,1223.000,2.6026323187143134,1464.7379396812858
1024,1224.000,0.0,1465.4553255705987
1025,1225.000,8.106432602798122,1466.1703453972018
1026,1226.000,2.459344291067964,1466.882995708932
1027,1227.000,7.855600934443601,1467.5932730655563
1028,1228.000,10.166172961195343,1468.3011740388047
1029,1229.000,3.2164717875944007,1469.0066952124057
1030,1230.000,0.0,1469.7098331821203
1031,1231.000,0.3957434442224894,1470.4105845557774
1032,1232.000,6.610864046692768,1471.1089459533073
1033,1233.000,0.4213379932216412,1471.8049140067783
1034,1234.000,8.877967639571352,1472.4984853604287
1035,1235.000,2.022862329296686,1473.1896566707032
1036,1236.000,2.5483533937126595,1473.8784246062874
1037,1237.000,0.0,1474.5647858481407
1038,1238.000,1.0905239104663451,1475.2487370895337
1039,1239.000,8.21075396391916,1475.9302750360807
1040,1240.000,0.0,1476.6093964057754
1041,1241.000,0.0,1477.286097929025
1042,1242.000,0.0,1477.960376348684
1043,1243.000,6.123269579909902,1478.63222842009
1044,1244.000,0.0,1479.301650911099
1045,1245.000,0.0,1479.9686406021187
1046,1246.000,6.741151713858017,1480.633194286142
1047,1247.000,9.766212231214922,1481.2953087687852
1048,1248.000,0.0,1481.9549808683182
1049,1249.000,6.921732584296251,1482.6122074157038
1050,1250.000,0.0,1483.2669852546273
1051,1251.000,5.600526758463957,1483.919311241536
1052,1252.000,2.7725027543299348,1484.5691822456702
1053,1253.000,0.0,1485.2165951490988
1054,1254.000,0.0,1485.8615468467556
1055,1255.000,0.0,1486.5040342464708
1056,1256.000,2.443538730991122,1487.1440542690088
1057,1257.000,3.069248151899046,1487.781603848101
1058,1258.000,1.495976069520566,1488.4166799304794
1059,1259.000,5.430929524085286,1489.0492794759148
1060,1260.000,4.983316542752391,1489.6793994572477
1061,1261.000,0.0,1490.3070368604244
1062,1262.000,0.0,1490.9321886845319
1063,1263.000,0.0,1491.554851941833
1064,1264.000,6.839058342200815,1492.175023657799
1065,1265.000,0.0,1492.7927008711454
1066,1266.000,6.6694253661328275,1493.407880633867
1067,1267.000,1.1671629887282506,1494.0205600112718
1068,1268.000,14.670384917983029,1494.630736082017
1069,1269.000,0.284208061859772,1495.2384059381402
1070,1270.000,0.5894253149017459,1495.8435666850983
1071,1271.000,0.0,1496.4462154417988
1072,1272.000,1.4096766593631855,1497.0463493406369
1073,1273.000,15.079829472471602,1497.6439655275285
1074,1274.000,0.0,1498.2390611619444
1075,1275.000,0.0,1498.8316334169463
1076,1276.000,0.0,1499.4216794792205
1077,1277.000,4.463283450885683,1500.0091965491142
1078,1278.000,0.0,1500.5941818406668
1079,1279.000,5.169452418351511,1501.1766325816484
1080,1280.000,4.955619986409374,1501.7565460135907
1081,1281.000,0.0,1502.333919391825
1082,1282.000,0.0,1502.908749985514
1083,1283.000,0.0,1503.481035077688
1084,1284.000,0.0,1504.0507719652792
1085,1285.000,0.0,1504.6179579591567
1086,1286.000,7.722169615840357,1505.1825903841595
1087,1287.000,10.007739420866983,1505.744666579133
1088,1288.000,0.0,1506.3041838969639
1089,1289.000,0.0,1506.861139704611
1090,1290.000,0.0,1507.4155313831457
1091,1291.000,0.0,1507.9673563277815
1092,1292.000,2.200980052088653,1508.5166119479113
1093,1293.000,1.7895143328594258,1509.0632956671407
1094,1294.000,0.87654807667559,1509.6074049233243
1095,1295.000,5.194472831401072,1510.1489371685989
1096,1296.000,0.658310130582322,1510.6878898694176
1097,1297.000,0.0,1511.2242605065867
1098,1298.000,9.687270424703229,1511.7580465752967
1099,1299.000,0.0,1512.289245585162
1100,1300.000,0.0,1512.817855060251
1101,1301.000,0.0,1513.343872539121
1102,1302.000,0.0,1513.867295574857
1103,1303.000,0.0,1514.3881217351013
1104,1304.000,0.0,1514.906348602091
1105,1305.000,0.0,1515.4219737726912
1106,1306.000,0.0,1515.9349948584313
1107,1307.000,3.471874514461888,1516.4454094855382
1108,1308.000,0.08843270502893574,1516.953215294971
1109,1309.000,0.7005260575440388,1517.458409942456
1110,1310.000,0.0,1517.9609910985205
1111,1311.000,0.0,1518.4609564485304
1112,1312.000,0.0,1518.9583036927197
1113,1313.000,5.397502453770585,1519.4530305462295
1114,1314.000,2.0978372608590234,1519.945134739141
1115,1315.000,6.342835983490659,1520.4346140165094
1116,1316.000,5.774356861599699,1520.9214661384003
1117,1317.000,6.544700120077323,1521.4056888799228
1118,1318.000,0.0,1521.8872800312647
1119,1319.000,7.224215602274171,1522.3662373977259
1120,1320.000,4.3463322002442055,1522.8425587997558
1121,1321.000,12.215086927014454,1523.3162420729855
1122,1322.000,3.3353539317370178,1523.787285068263
1123,1323.000,1.75986134831237,1524.2556856516876
1124,1324.000,0.0,1524.7214417046457
1125,1325.000,0.7970088761560419,1525.184551123844
1126,1326.000,0.0,1525.6450118213452
1127,1327.000,0.0,1526.1028217246012
1128,1328.000,0.0,1526.5579787764896
1129,1329.000,5.721305064653507,1527.0104809353465
1130,1330.000,0.0,1527.4603261750021
1131,1331.000,0.605624515184445,1527.9075124848155
1132,1332.000,10.709853130291549,1528.3520378697085
1133,1333.000,0.0,1528.793900350201
1134,1334.000,4.8473820375543255,1529.2330979624458
1135,1335.000,0.0,1529.6696287582604
1136,1336.000,0.0,1530.103490805166
1137,1337.000,2.576600813579944,1530.53468218642
1138,1338.000,5.095698998949956,1530.96320100105
1139,1339.000,0.0,1531.3890453638883
1140,1340.000,0.0,1531.8122134056089
1141,1341.000,8.887735727241534,1532.2327032727585
1142,1342.000,0.9682368722051251,1532.650513127795
1143,1343.000,4.588124850881741,1533.0656411491182
1144,1344.000,5.30484646889181,1533.4780855311083
1145,1345.000,4.386616515843343,1533.8878444841566
1146,1346.000,0.0,1534.2949162347045
1147,1347.000,0.0,1534.6992990252725
1148,1348.000,0.0,1535.1009911145015
1149,1349.000,0.9844172228188199,1535.4999907771812
1150,1350.000,0.0,1535.896296304289
1151,1351.000,0.0,1536.2899060030222
1152,1352.000,11.052692803165883,1536.680818196834
1153,1353.000,4.045421774532997,1537.069031225467
1154,1354.000,0.28926855501117643,1537.4545434449888
1155,1355.000,0.0,1537.8373532278256
1156,1356.000,4.328219037201507,1538.2174589627984
1157,1357.000,9.050932944843908,1538.5948590551561
1158,1358.000,0.0,1538.9695519266102
1159,1359.000,2.5723649846295302,1539.3415360153704
1160,1360.000,0.0,1539.7108097761784
1161,1361.000,0.0,1540.0773716803424
1162,1362.000,0.0,1540.4412202157728
1163,1363.000,0.0,1540.8023538870157
1164,1364.000,0.0,1541.1607712152872
1165,1365.000,0.0,1541.5164707385106
1166,1366.000,8.402081988653663,1541.8694510113464
1167,1367.000,6.3932413947686655,1542.2197106052313
1168,1368.000,0.5188948915883884,1542.5672481084116
1169,1369.000,1.9392028740232945,1542.9120621259767
1170,1370.000,0.6625027201071134,1543.254151279893
1171,1371.000,1.5290317909580153,1543.593514209042
1172,1372.000,1.547651430748374,1543.9301495692516
1173,1373.000,0.0,1544.2640560333325
1174,1374.000,0.0,1544.5952322911107
1175,1375.000,0.0,1544.9236770494658
1176,1376.000,0.0,1545.2493890323617
1177,1377.000,0.0,1545.572366980883
1178,1378.000,1.8667343467286628,1545.8926096532714
1179,1379.000,0.0,1546.2101158249557
1180,1380.000,11.984833711408783,1546.5248842885912
1181,1381.000,0.0,1546.8369138540916
1182,1382.000,0.0,1547.1462033486632
1183,1383.000,3.4697203831572097,1547.4527516168428
1184,1384.000,7.053008479471373,1547.7565575205285
1185,1385.000,11.973053060983375,1548.0576199390166
1186,1386.000,6.868579230966134,1548.355937769034
1187,1387.000,0.0,1548.6515099247767
1188,1388.000,0.2839096620593864,1548.9443353379406
1189,1389.000,7.559273042243149,1549.2344129577568
1190,1390.000,2.9798472489706,1549.5217417510294
1191,1391.000,6.2666222978352835,1549.8063207021646
1192,1392.000,1.2199931867883151,1550.0881488132118
1193,1393.000,11.187209896108925,1550.367225103891
1194,1394.000,10.392486388365796,1550.6435486116343
1195,1395.000,8.620349608383549,1550.9171183916164
1196,1396.000,3.04915948321036,1551.1879335167896
1197,1397.000,0.0,1551.4559930779192
1198,1398.000,0.0,1551.7212961836185
1199,1399.000,4.468603039617392,1551.9838419603825
1200,1400.000,6.551423447376919,1552.2436295526231
1201,1401.000,0.0,1552.500658122703
1202,1402.000,0.27249914902904493,1552.754926850971
1203,1403.000,10.006370064202883,1553.0064349357972
1204,1404.000,9.051499406395124,1553.255181593605
1205,1405.000,0.7443539410910489,1553.501166058909
1206,1406.000,7.630280415652578,1553.7443875843474
1207,1407.000,4.3151875592816396,1553.9848454407183
1208,1408.000,3.118527082988294,1554.2225389170117
1209,1409.000,11.251692679552662,1554.4574673204474
1210,1410.000,11.66858602349339,1554.6896299765067
1211,1411.000,2.231948771030602,1554.9190262289694
1212,1412.000,0.11744856005361726,1555.1456554399465
1213,1413.000,0.0,1555.369516989916
1214,1414.000,0.0,1555.5906102777562
1215,1415.000,14.71145727921703,1555.8089347207829
1216,1416.000,18.368863245219472,1556.0244897547805
1217,1417.000,9.14278116596006,1556.23727483404
1218,1418.000,14.644327568609697,1556.4472894313903
1219,1419.000,5.0887669617636675,1556.6545330382364
1220,1420.000,9.374762835408546,1556.8590051645915
1221,1421.000,15.89868166088877,1557.0607053391113
1222,1422.000,13.201728890868708,1557.2596331091313
1223,1423.000,12.053832959301644,1557.4557880406983
1224,1424.000,3.5254832813920984,1557.649169718608
1225,1425.000,5.874382253564363,1557.8397777464356
1226,1426.000,13.205193253425932,1558.0276117465742
1227,1427.000,13.782304639731137,1558.2126713602688
1228,1428.000,18.155285752350892,1558.3949562476491
1229,1429.000,16.616341912234702,1558.5744660877654
1230,1430.000,21.072954421377062,1558.751200578623
1231,1431.000,24.97216956278271,1558.9251594372172
1232,1432.000,30.223852600433247,1559.0963423995668
1233,1433.000,30.56540877925022,1559.2647492207498
1234,1434.000,30.399005325062717,1559.4303796749373
1235,1435.000,35.95390244457144,1559.5932335554285
1236,1436.000,47.50019232531395,1559.753310674686
1237,1437.000,46.41691013563127,1559.9106108643687
1238,1438.000,48.33209702463273,1560.0651339753672
1239,1439.000,55.60426912215985,1560.2168798778403
1240,1440.000,72.0317355387549,1560.3658484612452
1241,1441.000,84.15441736562275,1560.5120396343773
1242,1442.000,100.43568167459875,1560.6554533254011
1243,1443.000,105.91506451811392,1560.7960894818862
1244,1444.000,132.55820492915905,1560.9339480708409
1245,1445.000,141.22175892125028,1561.0690290787497
1246,1446.000,161.94099848839687,1561.2013325116031
1247,1447.000,179.8762616050626,1561.3308583949374
1248,1448.000,203.68523922613463,1561.4576067738653
1249,1449.000,218.8727032868867,1561.5815777131133
1250,1450.000,216.9788307029462,1561.702771297054
1251,1451.000,209.82791037025777,1561.8211876297423
1252,1452.000,191.6156971650505,1561.9368268349494
1253,1453.000,184.06211894380203,1562.049689056198
1254,1454.000,161.3007755432052,1562.1597744567948
1255,1455.000,142.08105978013077,1562.2670832198692
1256,1456.000,120.8371884515966,1562.3716155484035
1257,1457.000,102.69252233472957,1562.4733716652704
1258,1458.000,90.78263118673362,1562.5723518132663
1259,1459.000,83.50234674485341,1562.6685562551465
1260,1460.000,75.96951972634065,1562.7619852736593
1261,1461.000,61.43327882841868,1562.8526391715814
1262,1462.000,55.87830572824896,1562.940518271751
1263,1463.000,46.48303008289463,1563.0256229171055
1264,1464.000,41.49608652928896,1563.107953470711
1265,1465.000,29.632498684198254,1563.1875103158018
1266,1466.000,38.777612144185696,1563.2642938558142
1267,1467.000,33.685075485582274,1563.3383045144178
1268,1468.000,35.73165926444631,1563.4095427355537
1269,1469.000,21.09599801653235,1563.4780089834676
1270,1470.000,23.152388257255325,1563.5437037427446
1271,1471.000,15.043629481657035,1563.606627518343
1272,1472.000,20.071018164369434,1563.6667808356306
1273,1473.000,16.400915759580812,1563.7241642404192
1274,1474.000,19.674368701003687,1563.7787782989963
1275,1475.000,13.65879740183641,1563.8306235981636
1276,1476.000,17.14706425473105,1563.879700745269
1277,1477.000,9.557297631757365,1563.9260103682427
1278,1478.000,14.980194884369212,1563.9695531156308
1279,1479.000,8.953674343369585,1564.0103296566303
1280,1480.000,7.440060318876931,1564.0483406811231
1281,1481.000,9.829738100287159,1564.0835868997128
1282,1482.000,10.856119956243674,1564.1160690437564
1283,1483.000,0.0,1564.145787865401
1284,1484.000,0.0,1564.172744137616
1285,1485.000,8.298963345767561,1564.1969386542323
1286,1486.000,6.449129770029458,1564.2183722299706
1287,1487.000,0.0,1564.2370457004827
1288,1488.000,0.0,1564.25295992238
1289,1489.000,1.2426102267272654,1564.2661157732728
1290,1490.000,7.265090848198724,1564.2765141518012
1291,1491.000,6.314002022326122,1564.284155977674
1292,1492.000,10.726933808301283,1564.2890421916986
1293,1493.000,11.44593124418111,1564.2911737558188
1294,1494.000,18.19094034685213,1564.2905516531478
1295,1495.000,0.0,1564.2871768880045
1296,1496.000,3.798276514052759,1564.2810504859472
1297,1497.000,10.051623506193664,1564.2721734938063
1298,1498.000,0.0,1564.2605469797222
1299,1499.000,0.0,1564.246172033178
1300,1500.000,4.568086234965222,1564.2290497650347
1301,1501.000,9.669173692435152,1564.209181307565
1302,1502.000,10.473119185510086,1564.18656781449
1303,1503.000,0.0,1564.1612104610103
1304,1504.000,0.0,1564.133110443844
1305,1505.000,2.3395670187401265,1564.1022689812598
1306,1506.000,0.0,1564.0686873131117
1307,1507.000,4.63223229912569,1564.0323667008743
1308,1508.000,3.4733905723255702,1563.9933084276745
1309,1509.000,12.892930201668378,1563.9515137983317
1310,1510.000,2.2283878606137932,1563.9069841393862
1311,1511.000,3.6171982008606847,1563.8597207991393
1312,1512.000,2.9639978523171067,1563.809725147683
1313,1513.000,8.9333094230617,1563.7569985769383
1314,1514.000,0.0,1563.7015425006884
1315,1515.000,4.707285645387401,1563.6433583546127
1316,1516.000,0.0,1563.5824475963232
1317,1517.000,0.0,1563.5188117053967
1318,1518.000,9.328605816588151,1563.4524521834119
1319,1519.000,5.534244446018192,1563.3833705539819
1320,1520.000,10.63408363720987,1563.3115683627902
1321,1521.000,4.006889822376024,1563.237047177624
1322,1522.000,6.337921411588468,1563.1598085884116
1323,1523.000,3.3824717927475376,1563.0798542072525
1324,1524.000,5.953799331542541,1562.9971856684574
1325,1525.000,0.2811513714220837,1562.911804628578
1326,1526.000,12.705889233557173,1562.823712766443
1327,1527.000,0.0,1562.7329117831955
1328,1528.000,12.849992597676646,1562.6394034023233
1329,1529.000,1.7938356303022829,1562.5431893696978
1330,1530.000,8.115571546395131,1562.4442714536049
1331,1531.000,3.9320355552194997,1562.3426514447806
1332,1532.000,5.833493843551878,1562.238331156448
1333,1533.000,12.034792575651181,1562.1313124243488
1334,1534.000,4.282551893221353,1562.0215971067787
1335,1535.000,0.0,1561.909187084625
1336,1536.000,5.105954738604396,1561.7940842613957
1337,1537.000,7.645351436741521,1561.6762905632586
1338,1538.000,0.0,1561.555807939074
1339,1539.000,9.879752639569688,1561.4326383604302
1340,1540.000,10.73203817832291,1561.306783821677
1341,1541.000,0.0,1561.1782463399618
1342,1542.000,3.82205004473758,1561.0470279552624
1343,1543.000,9.764086269576183,1560.9131307304237
1344,1544.000,0.0,1560.7765567511901
1345,1545.000,2.9602578737585645,1560.6373081262414
1346,1546.000,3.708475012772169,1560.495386987228
1347,1547.000,9.2825115111973,1560.3507954888028
1348,1548.000,12.85961819133945,1560.2035358086605
1349,1549.000,6.480105852432644,1560.0536101475673
1350,1550.000,7.40807927060132,1559.9010207293986
1351,1551.000,12.89307619882743,1559.7457698011726
1352,1552.000,11.074753366915957,1559.587859633084
1353,1553.000,7.719774481459581,1559.4272925185405
1354,1554.000,16.7200422258029,1559.264070774197
1355,1555.000,1.1322462600114704,1559.0981967399885
1356,1556.000,10.987920220833303,1558.9296727791666
1357,1557.000,8.308429721667153,1558.758501278333
1358,1558.000,8.58384035252584,1558.5846846474742
1359,1559.000,13.568051680001417,1558.4082253199986
1360,1560.000,13.573908247233703,1558.2291257527663
1361,1561.000,28.895401573872732,1558.0473884261273
1362,1562.000,19.386266156044485,1557.8630158439555
1363,1563.000,18.998802466317102,1557.676010533683
1364,1564.000,28.17976395366486,1557.486375046335
1365,1565.000,26.15447904343796,1557.2941119565621
1366,1566.000,11.150202137320548,1557.0992238626795
1367,1567.000,25.14588261330232,1556.9017133866978
1368,1568.000,31.4724288256416,1556.7015831743583
1369,1569.000,26.62262310483038,1556.4988358951696
1370,1570.000,35.62263375756038,1556.2934742424395
1371,1571.000,35.57344306668915,1556.0855009333109
1372,1572.000,45.78379829120172,1555.8749187087983
1373,1573.000,40.40093166618249,1555.6617303338176
1374,1574.000,46.447275402774494,1555.4459385972254
1375,1575.000,64.57488168814825,1555.2275463118517
1376,1576.000,81.48218268546634,1555.0065563145336
1377,1577.000,103.45940853384741,1554.7829714661525
1378,1578.000,113.14539334833421,1554.5567946516658
1379,1579.000,133.60853621985643,1554.3280287801435
1380,1580.000,170.03649021519868,1554.0966767848013
1381,1581.000,191.8818693769622,1553.862741623038
1382,1582.000,224.24146772353333,1553.6262262764667
1383,1583.000,223.14630024904955,1553.3871337509504
1384,1584.000,207.3481809233615,1553.1454670766384
1385,1585.000,197.7067676920019,1552.9012293079982
1386,1586.000,175.50841147614574,1552.6544235238543
1387,1587.000,152.6117381725835,1552.4050528274165
1388,1588.000,140.03987165367903,1552.153120346321
1389,1589.000,129.41254776734104,1551.898629232659
1390,1590.000,125.82333333698261,1551.6415826630173
1391,1591.000,123.29014616149107,1551.3819838385089
1392,1592.000,133.03034601519153,1551.1198359848086
1393,1593.000,142.58728764781335,1550.8551423521867
1394,1594.000,157.0750507844532,1550.5879062155468
1395,1595.000,181.0136281255443,1550.3181308744556
1396,1596.000,202.8176503468169,1550.0458196531831
1397,1597.000,251.84653909926737,1549.7709759007325
1398,1598.000,321.55217000912376,1549.4936029908763
1399,1599.000,412.36814467780937,1549.2137043221906
1400,1600.000,498.9312726819071,1548.931283318093
1401,1601.000,590.5368425731281,1548.6463434268721
1402,1602.000,629.3997528782743,1548.3588881217256
1403,1603.000,602.2802740992079,1548.068920900792
1404,1604.000,504.0312537128102,1547.7764452871897
1405,1605.000,399.8136701709525,1547.4814648290476
1406,1606.000,322.40561790045945,1547.1839830995405
1407,1607.000,248.8092423030746,1546.8840036969254
1408,1608.000,194.32460875542642,1546.5815302445735
1409,1609.000,164.23030260899236,1546.2765663910077
1410,1610.000,123.23888719006459,1545.9691158099354
1411,1611.000,107.77977679971718,1545.6591822002829
1412,1612.000,90.06900671376866,1545.3467692862314
1413,1613.000,81.56825618274979,1545.03188081725
1414,1614.000,58.7151554318682,1544.7145205681318
1415,1615.000,49.206843660972254,1544.3946923390276
1416,1616.000,47.52426204451922,1544.0723999554807
1417,1617.000,42.36113273153842,1543.7476472684616
1418,1618.000,39.353150845598066,1543.4204381544018
1419,1619.000,32.74631148476897,1543.090776515231
1420,1620.000,34.02434172159133,1542.7586662784088
1421,1621.000,32.54501960303992,1542.4241113969601
1422,1622.000,27.160453150489957,1542.0871158495102
1423,1623.000,17.28831535968061,1541.7476836403193
1424,1624.000,28.430081200682707,1541.4058187993173
1425,1625.000,10.692135617862505,1541.0615253821375
1426,1626.000,17.037822529847745,1540.7148074701522
1427,1627.000,22.18265682949186,1540.3656691705082
1428,1628.000,11.983164383842677,1540.0141146161573
1429,1629.000,22.24185603410342,1539.6601479658966
1430,1630.000,24.95017759560119,1539.3037734043987
1431,1631.000,22.04468385775158,1538.9449951422484
1432,1632.000,14.444683584022869,1538.5838174159771
1433,1633.000,16.962769511903616,1538.2202444880963
1434,1634.000,7.394623352865892,1537.8542806471341
1435,1635.000,12.22532779233211,1537.485930207668
1436,1636.000,11.996304489640124,1537.1151975103598
1437,1637.000,9.327164078007627,1536.7420869219923
1438,1638.000,9.222515164499555,1536.3666028355005
1439,1639.000,6.632474329991055,1535.988749670009
1440,1640.000,0.0,1535.608531870866
1441,1641.000,9.484260090324142,1535.2259539096758
1442,1642.000,8.627401715663382,1534.8410202843365
1443,1643.000,18.67372448092624,1534.4537355190737
1444,1644.000,10.390733835527499,1534.0641041644726
1445,1645.000,6.280445202483179,1533.6721307975167
1446,1646.000,10.835050978380195,1533.2778200216198
1447,1647.000,9.101418533339256,1532.8811764666607
1448,1648.000,5.068592210981706,1532.4822047890184
1449,1649.000,2.6924973283933014,1532.0809096716066
1450,1650.000,0.0,1531.6772958239085
1451,1651.000,5.326152017988761,1531.2713679820113
1452,1652.000,14.122798091359073,1530.8631309086409
1453,1653.000,0.0,1530.4525893931955
1454,1654.000,0.0,1530.039748251781
1455,1655.000,8.497130672751837,1529.624612327248
1456,1656.000,5.010360510779947,1529.20718648922
1457,1657.000,6.244429365863425,1528.7874756341366
1458,1658.000,0.0,1528.3654846852796
1459,1659.000,0.0015924071853987698,1527.9412185928145
1460,1660.000,6.437009666179165,1527.514682333821
1461,1661.000,6.84400308767249,1527.0858809123274
1462,1662.000,5.004146640650561,1526.6548193593494
1463,1663.000,0.0,1526.2215027329212
1464,1664.000,6.304878881870991,1525.785936118129
1465,1665.000,0.0,1525.3481246271494
1466,1666.000,0.0,1524.9080733992814
1467,1667.000,0.0,1524.4657876009815
1468,1668.000,11.425435574100902,1524.021272425899
1469,1669.000,0.29813390508979865,1523.5745330949103
1470,1670.000,3.039168143848883,1523.1255748561512
1471,1671.000,0.0,1522.674402985057
1472,1672.000,9.158351215608945,1522.2210227843912
1473,1673.000,5.3420814157166205,1521.7654395842833
1474,1674.000,0.0,1521.3076587422634
1475,1675.000,0.0,1520.8476856432953
1476,1676.000,12.379001300186928,1520.3855256998131
1477,1677.000,0.0,1519.9211843517533
1478,1678.000,13.407004933408643,1519.4546670665914
1479,1679.000,0.0,1518.9859793393757
1480,1680.000,0.0,1518.5151266927633
1481,1681.000,8.951909322948268,1518.0421146770518
1482,1682.000,5.3093101297829435,1517.566948870217
1483,1683.000,6.363880122054297,1517.0896348779456
1484,1684.000,0.0,1516.6101783336694
1485,1685.000,0.9732791013964288,1516.1285848986035
1486,1686.000,7.965934738224405,1515.6448602617756
1487,1687.000,0.0,1515.1590101400639
1488,1688.000,0.0,1514.6710402782328
1489,1689.000,7.640019551036403,1514.1809564489636
1490,1690.000,0.0,1513.6887644528924
1491,1691.000,9.822639881355599,1513.1944701186444
1492,1692.000,0.0,1512.6980793028656
1493,1693.000,0.0,1512.1995978902619
1494,1694.000,0.6722182063701894,1511.6990317936297
1495,1695.000,0.0,1511.1963869538927
1496,1696.000,9.222702659863671,1510.6916693401363
1497,1697.000,0.0,1510.1848849496419
1498,1698.000,1.0128641920791779,1509.676039807921
1499,1699.000,10.961782031249186,1509.1651399687507
1500,1700.000,2.887465485792063,1508.652191514208
1501,1701.000,7.568826445296281,1508.1372005547037
1502,1702.000,4.223479770981157,1507.6201732290187
1503,1703.000,6.850816295663208,1507.1011157043367
1504,1704.000,3.8937458237198825,1506.5800341762802
1505,1705.000,9.162998131055929,1506.0569348689442
1506,1706.000,0.9964839650679096,1505.531824034932
1507,1707.000,5.032275044612561,1505.0047079553874
1508,1708.000,0.0,1504.4755929400321
1509,1709.000,9.4074656728003,1503.9444853271998
1510,1710.000,0.0,1503.411391483868
1511,1711.000,3.4446761943029287,1502.876317805697
1512,1712.000,4.511079282938908,1502.339270717061
1513,1713.000,4.414051328915775,1501.8002566710843
1514,1714.000,2.3378538503250184,1501.259282149675
1515,1715.000,10.430352336438318,1500.7163536635617
1516,1716.000,15.100624247675114,1500.1714777523248
1517,1717.000,0.0,1499.6246609844338
1518,1718.000,0.0,1499.075909957282
1519,1719.000,0.0,1498.525231297218
1520,1720.000,0.0,1497.9726316595834
1521,1721.000,1.702098271253135,1497.418117728747
1522,1722.000,2.2062197818609093,1496.861696218139
1523,1723.000,9.02666212971485,1496.3033738702852
1524,1724.000,0.020364543159530513,1495.7431574568404
1525,1725.000,2.3811962213740117,1495.181053778626
1526,1726.000,3.2850213343363066,1494.6170696656636
1527,1727.000,0.0,1494.051211977208
1528,1728.000,0.7680403982169537,1493.483487601783
1529,1729.000,19.23016054278378,1492.9139034572163
1530,1730.000,2.1687925093267495,1492.3424664906734
1531,1731.000,0.0,1491.769183678694
1532,1732.000,0.0,1491.194062027223
1533,1733.000,9.021643428351354,1490.6171085716487
1534,1734.000,0.8896526231642383,1490.0383303768358
1535,1735.000,0.0,1489.45773453716
1536,1736.000,17.542642823458436,1488.8753281765416
1537,1737.000,11.494847551515704,1488.2911184484842
1538,1738.000,0.0,1487.7051125361045
1539,1739.000,0.8728503478321272,1487.117317652168
1540,1740.000,8.97297796087355,1486.5277410391263
1541,1741.000,8.023388030850128,1485.9363899691498
1542,1742.000,0.0,1485.3432717441606
1543,1743.000,13.730154304128973,1484.748393695871
1544,1744.000,14.202225814184885,1484.151763185815
1545,1745.000,0.0,1483.5533876053823
1546,1746.000,0.0,1482.9532743758582
1547,1747.000,0.0,1482.3514309484517
1548,1748.000,7.21400419566703,1481.747864804333
1549,1749.000,9.71356354533009,1481.1425834546699
1550,1750.000,4.376335559341214,1480.5355944406588
1551,1751.000,0.0,1479.9269053335624
1552,1752.000,2.7684122652583483,1479.3165237347416
1553,1753.000,6.738936724306768,1478.7044572756931
1554,1754.000,0.0,1478.09071361808
1555,1755.000,0.0,1477.4753004537715
1556,1756.000,2.931298495127294,1476.8582255048727
1557,1757.000,10.877773476235916,1476.239496523764
1558,1758.000,4.65010970687058,1475.6191212931294
1559,1759.000,4.700188374001982,1474.997107625998
1560,1760.000,0.0,1474.3734633657737
1561,1761.000,9.11810061372853,1473.7481963862715
1562,1762.000,0.0,1473.1213145917536
1563,1763.000,3.268961083040722,1472.4928259169592
1564,1764.000,0.12978367285404602,1471.862738327146
1565,1765.000,2.796081181880254,1471.2310598181198
1566,1766.000,0.0,1470.59779841627
1567,1767.000,8.273082821393928,1469.9629621786062
1568,1768.000,3.34485680721059,1469.3265591927893
1569,1769.000,0.2603144228307883,1468.6885975771693
1570,1770.000,6.924952519180579,1468.0490854808195
1571,1771.000,3.5878609164306,1467.4080310835693
1572,1772.000,0.8121434039601354,1466.76544259604
1573,1773.000,0.41913474032048725,1466.1213282596796
1574,1774.000,8.661223653202796,1465.4756963467971
1575,1775.000,0.0,1464.8285551605973
1576,1776.000,2.721166964785425,1464.1799130352147
1577,1777.000,2.4763056642505035,1463.5297783357496
1578,1778.000,6.000145541700249,1462.8781594582997
1579,1779.000,2.992521170000373,1462.2250648299996
1580,1780.000,17.12686409094954,1461.5705029090504
1581,1781.000,0.0,1460.914482184758
1582,1782.000,7.809885822435035,1460.257011177565
1583,1783.000,4.094434560913669,1459.5980984390862
1584,1784.000,10.976620447854202,1458.9377525521459
1585,1785.000,0.0,1458.2759821308077
1586,1786.000,11.69354117958801,1457.612795820412
1587,1787.000,0.0,1456.9482022976113
1588,1788.000,8.60724972959747,1456.2822102704026
1589,1789.000,7.5659085218369455,1455.614828478163
1590,1790.000,4.7178133083145894,1454.9460656916854
1591,1791.000,0.14556928678848635,1454.2759307132114
1592,1792.000,0.0,1453.6044323764659
1593,1793.000,5.226982453305936,1452.9315795466941
1594,1794.000,0.16911187930691085,1452.257381120693
1595,1795.000,0.0,1451.5818460268483
1596,1796.000,0.0,1450.904983225168
1597,1797.000,9.587032292683944,1450.226801707316
1598,1798.000,9.772849503350471,1449.5473104966495
1599,1799.000,7.969106351747769,1448.8665186482522
1600,1800.000,5.207246751033836,1448.184435248966
1601,1801.000,7.248160582568744,1447.5010694174312
1602,1802.000,7.980272695882377,1446.8164303041176
1603,1803.000,6.563636908642366,1446.1305270913576
1604,1804.000,0.3460450066138492,1445.4433689933862
1605,1805.000,0.7409287436291834,1444.7549652563707
1606,1806.000,0.0,1444.0653251584458
1607,1807.000,6.133756990248685,1443.3744580097514
1608,1808.000,0.0,1442.6823731524646
1609,1809.000,4.353751039165672,1441.9890799608343
1610,1810.000,13.239216158783847,1441.294587841216
1611,1811.000,3.1336097678913575,1440.5989062321087
1612,1812.000,11.260926395813613,1439.9020446041864
1613,1813.000,14.83104653966734,1439.2040124603327
1614,1814.000,0.0,1438.5048193356797
1615,1815.000,0.0,1437.8044747976364
1616,1816.000,8.44155155407202,1437.102988445928
1617,1817.000,1.3908720873698712,1436.4003699126301
1618,1818.000,8.89714913780017,1435.6966288621998
1619,1819.000,9.973524008485583,1434.9917749915144
1620,1820.000,2.6899059700976977,1434.2858180299022
1621,1821.000,10.773963260817709,1433.5787677391822
1622,1822.000,16.320958086306064,1432.8706339136938
1623,1823.000,11.638030619665642,1432.1614263803344
1624,1824.000,0.694977001408688,1431.4511549985914
1625,1825.000,5.114187339419914,1430.7398296605802
1626,1826.000,2.809501708925609,1430.0274602910745
1627,1827.000,15.480242152453457,1429.3140568475465
1628,1828.000,4.955503679803087,1428.599629320197
1629,1829.000,2.015400268010353,1427.8841877319896
1630,1830.000,6.478623861310098,1427.1677421386898
1631,1831.000,9.325917371103287,1426.4503026288967
1632,1832.000,4.0274796759251785,1425.7318793240747
1633,1833.000,6.962017621404584,1425.0124823785955
1634,1834.000,6.36866302023418,1424.2921219797659
1635,1835.000,10.837076652135238,1423.5708083478648
1636,1836.000,12.28868826381995,1422.84855173618
1637,1837.000,8.132925568960673,1422.1253624310393
1638,1838.000,3.726011248154009,1421.401250751846
1639,1839.000,9.005055948885456,1420.6762270511144
1640,1840.000,1.2588032854928315,1419.950301714507
1641,1841.000,13.095536839138504,1419.2234851608614
1642,1842.000,8.781814157765666,1418.4957878422342
1643,1843.000,8.196638756072844,1417.767220243927
1644,1844.000,0.0,1417.0377928845296
1645,1845.000,21.021174684053904,1416.307516315946
1646,1846.000,15.57472487656446,1415.5764011234355
1647,1847.000,14.5100980743548,1414.8444579256452
1648,1848.000,7.6928576253569645,1414.111697374643
1649,1849.000,11.004582844044762,1413.3781301559552
1650,1850.000,24.159966011402275,1412.6437669885977
1651,1851.000,2.966892374885674,1411.9086186251143
1652,1852.000,11.588701148392602,1411.1726958516074
1653,1853.000,10.768850512223025,1410.436009487777
1654,1854.000,8.05166261304862,1409.6985703869514
1655,1855.000,9.371092563877028,1408.960389436123
1656,1856.000,1.4169604440144212,1408.2214775559855
1657,1857.000,11.229662299036818,1407.4818457009633
1658,1858.000,0.0,1406.7415048592516
1659,1859.000,18.430407947151934,1406.000466052848
1660,1860.000,12.278267662414919,1405.258740337585
1661,1861.000,2.4127111968280133,1404.516338803172
1662,1862.000,0.0,1403.7732725732212
1663,1863.000,8.228403194711973,1403.029552805288
1664,1864.000,10.682838309097178,1402.2851906909027
1665,1865.000,1.7043515443924662,1401.5401974556075
1666,1866.000,17.776201641011767,1400.7945843589882
1667,1867.000,9.38735030528801,1400.048362694712
1668,1868.000,5.010454209439786,1399.3015437905601
1669,1869.000,0.0,1398.5541390084622
1670,1870.000,7.144282255468397,1397.8061597445317
1671,1871.000,6.706427570900814,1397.057617429099
1672,1872.000,11.83326347324919,1396.3085235267508
1673,1873.000,14.255278463641162,1395.558889536359
1674,1874.000,8.172004008884414,1394.8087269911157
1675,1875.000,10.78027454142557,1394.0580474585745
1676,1876.000,16.58770545932316,1393.3068625406768
1677,1877.000,11.772110126210691,1392.5551838737892
1678,1878.000,6.538878871258248,1391.8030231287416
1679,1879.000,11.824353989141855,1391.050392010858
1680,1880.000,5.001171740008203,1390.2973022599917
1681,1881.000,10.863751349440463,1389.5437656505596
1682,1882.000,8.478191008420708,1388.7897939915792
1683,1883.000,1.6029598732989143,1388.0353991267011
1684,1884.000,11.83310006575698,1387.280592934243
1685,1885.000,8.733061672773147,1386.5253873272268
1686,1886.000,12.635986746587605,1385.7697942534123
1687,1887.000,0.29819230467182933,1385.0138256953283
1688,1888.000,14.924340329687311,1384.2574936703127
1689,1889.000,15.197093769455023,1383.500810230545
1690,1890.000,6.1957315369213575,1382.7437874630787
1691,1891.000,7.721963510120759,1381.9864374898793
1692,1892.000,8.607344532143316,1381.2287724678567
1693,1893.000,8.201710411099384,1380.4708045889006
1694,1894.000,13.345948920085675,1379.7125460799143
1695,1895.000,4.057241797148436,1378.9540092028515
1696,1896.000,1.4437297452516304,1378.1952062547484
1697,1897.000,6.8859814322408965,1377.436149567759
1698,1898.000,19.732340490808838,1376.6768515091912
1699,1899.000,6.000754518461235,1375.9173244815388
1700,1900.000,2.334593077480804,1375.1575809225192
1701,1901.000,2.8143726948953827,1374.3976333051046
1702,1902.000,9.324402862441502,1373.6374941375584
1703,1903.000,15.37768703652523,1372.8771759634747
1704,1904.000,3.900193638201017,1372.116691361799
1705,1905.000,9.36026805312099,1371.3560529468791
1706,1906.000,9.597073631510511,1370.5952733684894
1707,1907.000,11.107249688129968,1369.83436531187
1708,1908.000,9.18207550224065,1369.0733414977594
1709,1909.000,14.619546317573395,1368.3122146824267
1710,1910.000,12.438639342286706,1367.5509976577132
1711,1911.000,4.625031748938682,1366.7897032510614
1712,1912.000,22.872882674449784,1366.0283443255503
1713,1913.000,0.1419752200674793,1365.2669337799325
1714,1914.000,0.412615451335796,1364.5054845486643
1715,1915.000,14.53159939805505,1363.744009601945
1716,1916.000,9.43645805425058,1362.9825219457493
1717,1917.000,6.827838378136903,1362.221034621863
1718,1918.000,9.518879292082374,1361.4595607079177
1719,1919.000,12.42858868257963,1360.6981133174204
1720,1920.000,5.767529400205831,1359.936705599794
1721,1921.000,4.489179259585853,1359.1753507404142
1722,1922.000,2.0015310393644086,1358.4140619606355
1723,1923.000,3.1143924821667497,1357.6528525178333
1724,1924.000,3.4742602945689214,1356.891735705431
1725,1925.000,15.138790147056625,1356.1307248529433
1726,1926.000,9.9301626739923,1355.3698333260077
1727,1927.000,11.508564473585011,1354.609074526415
1728,1928.000,4.855585107851084,1353.8484618921489
1729,1929.000,14.514672102583972,1353.088008897416
1730,1930.000,0.0,1352.3277290526876
1731,1931.000,11.045703095273666,1351.5676359047263
1732,1932.000,12.354488963373797,1350.807743036626
1733,1933.000,4.695944932153907,1350.048064067846
1734,1934.000,1.9981543457615771,1349.2886126542385
1735,1935.000,11.259943511904567,1348.5294024880955
1736,1936.000,3.8609917018261513,1347.7704472981738
1737,1937.000,2.731786150265407,1347.0117608497346
1738,1938.000,7.951041055426231,1346.2533569445739
1739,1939.000,1.3492905789412362,1345.4952494210588
1740,1940.000,7.223595845831596,1344.7374521541683
1741,1941.000,20.184984944483404,1343.9799790555167
1742,1942.000,5.3829499266048515,1343.2228440733952
1743,1943.000,13.432565807192532,1342.4660611928075
1744,1944.000,1.6468425645002753,1341.7096444354997
1745,1945.000,8.445635140002878,1340.9536078599972
1746,1946.000,6.295420438358178,1340.197965561642
1747,1947.000,6.896159327377745,1339.4427316726224
1748,1948.000,12.416324637988964,1338.687920362011
1749,1949.000,20.74168916420399,1337.933545835796
1750,1950.000,7.059829663077608,1337.1796223369224
1751,1951.000,15.619949854680272,1336.4261641453197
1752,1952.000,9.86729842206205,1335.673185577938
1753,1953.000,12.155929011214084,1334.920700988786
1754,1954.000,4.895972231038968,1334.168724768961
1755,1955.000,3.435025653311186,1333.4172713466887
1756,1956.000,6.438219812647503,1332.6663551873526
1757,1957.000,2.973935206467104,1331.915990793533
1758,1958.000,7.51792429496254,1331.1661927050375
1759,1959.000,1.204233501061708,1330.4169754989382
1760,1960.000,7.5335942103943125,1329.6683537896056
1761,1961.000,8.526768771254183,1328.9203422287458
1762,1962.000,18.325587494570982,1328.172955505429
1763,1963.000,17.736338653869552,1327.4262083461304
1764,1964.000,10.415387485238625,1326.6801155147614
1765,1965.000,4.303372187294144,1325.9346918127058
1766,1966.000,10.92533792114773,1325.1899520788522
1767,1967.000,12.137575810370208,1324.44591118963
1768,1968.000,6.019253940953604,1323.7025840590463
1769,1969.000,2.0588593612828845,1322.9599856387172
1770,1970.000,0.0,1322.218130917901
1771,1971.000,6.8292720764609385,1321.4770349235391
1772,1972.000,18.545748279713962,1320.736712720286
1773,1973.000,5.726866589458723,1319.9971794105413
1774,1974.000,9.231227865507208,1319.2584501344927
1775,1975.000,9.060158929857153,1318.520540070143
1776,1976.000,9.724698566652933,1317.783464433347
1777,1977.000,11.407829522153179,1317.0472384778468
1778,1978.000,0.0,1316.3118774953064
1779,1979.000,5.757798184652756,1315.5773968153474
1780,1980.000,8.866467194420693,1314.8438118055792
1781,1981.000,6.013017128360843,1314.1111378716391
1782,1982.000,13.788231542776884,1313.379390457223
1783,1983.000,4.20704595587722,1312.6485850441227
1784,1984.000,11.915295847742073,1311.918737152258
1785,1985.000,16.92278866028755,1311.1898623397124
1786,1986.000,4.7537707972308,1310.4619762027692
1787,1987.000,6.387189624055054,1309.735094375945
1788,1988.000,4.399898467978801,1309.009232532021
1789,1989.000,10.690352617914641,1308.2844063820853
1790,1990.000,0.0,1307.5606316755582
1791,1991.000,0.0,1306.837924200234
1792,1992.000,4.13280921768478,1306.1162997823153
1793,1993.000,11.064732713558897,1305.395774286441
1794,1994.000,9.311814384272111,1304.676363615728
1795,1995.000,0.777928288197927,1303.9580837118021
1796,1996.000,15.260058445165896,1303.2409505548342
1797,1997.000,6.217740836425492,1302.5249801635746
1798,1998.000,1.7220524046131231,1301.810188595387
1799,1999.000,8.585067053716784,1301.0965919462833
1800,2000.000,13.152577649040268,1300.3842063509596
