# kind,background_subtracted
# version_label,v_o7
# poly_order,7
# iterations_run,6
pixel_index,raman_shift_cm-1,intensity,background_intensity
0,200.000,13.23400140760748,317.9418335923925
1,201.000,9.824779226864678,319.01815577313533
2,202.000,16.009939297602386,320.09181970239763
3,203.000,19.755754018491302,321.1628609815087
4,204.000,23.786100003342085,322.23131499665794
5,205.000,17.368527080331603,323.2972169196684
6,206.000,13.138567291230856,324.36060170876914
7,207.000,11.493592890634773,325.42150410936523
8,208.000,20.446201345193174,326.4799586548068
9,209.000,25.51746933284454,327.53599966715547
10,210.000,17.103989742050203,328.5896612579498
11,211.000,7.829536671031406,329.6409773289686
12,212.000,9.24554442700736,330.6899815729926
13,213.000,24.364337525435303,331.7367074745647
14,214.000,15.754034689252364,332.7811883107476
15,215.000,3.919843848119001,333.823457151881
16,216.000,13.589753137664161,334.86354686233585
17,217.000,6.895182898732003,335.901490101268
18,218.000,9.884719676631107,336.9373193233689
19,219.000,10.521592220384093,337.9710667796159
20,220.000,8.962162481980215,339.0027645180198
21,221.000,16.35793561562889,340.0324443843711
22,222.000,12.4579459770153,341.0601380229847
23,223.000,9.101815122557355,342.0858768774427
24,224.000,14.901284808664741,343.1096921913353
25,225.000,17.230726990999585,344.1316150090004
26,226.000,2.2046468237384715,345.1516761762615
27,227.000,10.336619658836867,346.16990634116314
28,228.000,5.809724045294217,347.1863359547058
29,229.000,10.475447728421841,348.20099527157817
30,230.000,3.60097064911173,349.2139143508883
31,231.000,11.287634943107378,350.22512305689264
32,232.000,10.765061940276212,351.2346510597238
33,233.000,8.998081163883853,352.24252783611615
34,234.000,4.371098329869767,353.24878267013025
35,235.000,8.118853346124695,354.2534446538753
36,236.000,3.7881213117702828,355.25654268822973
37,237.000,2.0476745164394288,356.2581054835606
38,238.000,11.373177439559129,357.2581615604409
39,239.000,3.2165777496346095,358.2567392503654
40,240.000,16.745316303535162,359.25386669646485
41,241.000,13.876550145781948,360.24957185421806
42,242.000,0.0,361.24388249216315
43,243.000,10.924523807393768,362.23682619260626
44,244.000,2.542637647670972,363.22843035232904
45,245.000,9.214981816705233,364.21872218329474
46,246.000,9.144618286648154,365.20772871335186
47,247.000,0.0,366.19547678693687
48,248.000,7.222023934225035,367.181993065775
49,249.000,6.961310970420982,368.16730402957904
50,250.000,14.14392802325267,369.15143597674734
51,251.000,1.1614759749406858,370.1344150250593
52,252.000,12.558970887630608,371.11626711236937
53,253.000,1.4197520026999086,372.0970179973001
54,254.000,5.910993740067454,373.07669325993254
55,255.000,2.743305697504468,374.05531830249555
56,256.000,16.36816864994637,375.03291835005365
57,257.000,10.976902548807402,376.0095184511926
58,258.000,22.05204452129601,376.985143478704
59,259.000,11.209329869732187,377.9598181302678
60,260.000,12.326104070866677,378.93356692913335
61,261.000,12.200670775201218,379.90641422479877
62,262.000,3.419414806311181,380.8783841936888
63,263.000,6.543485160169098,381.8495008398309
64,264.000,14.97260000447028,382.81978799552974
65,265.000,4.3995886779600255,383.78926932203996
66,266.000,7.82230768976234,384.7579683102377
67,267.000,6.474755718710071,385.72590828128995
68,268.000,10.171927612677166,386.69311238732286
69,269.000,4.243631387912217,387.6596036120878
70,270.000,5.4372692283737365,388.6254047716263
71,271.000,7.725962485066702,389.5905385149333
72,272.000,6.811903675381416,390.5550273246186
73,273.000,0.9278524824332521,391.51889351756677
74,274.000,11.418122754404465,392.48215924559554
75,275.000,0.0,393.4448464961124
76,276.000,0.0,394.40697709277003
77,277.000,0.0,395.36857269611943
78,278.000,11.565891195737947,396.3296548042621
79,279.000,3.534880246499938,397.2902447535001
80,280.000,0.0,398.25036371898506
81,281.000,0.0,399.2100327153652
82,282.000,8.03875640256939,400.1692725974306
83,283.000,0.0,401.1281040607576
84,284.000,0.0,402.08654764235075
85,285.000,9.023964278716278,403.0446237212837
86,286.000,0.0,404.00235251933844
87,287.000,3.2985728983572926,404.9597541016427
88,288.000,5.141523622693683,405.91684837730634
89,289.000,2.460471899944821,406.8736551000552
90,290.000,4.759795131135661,407.83019386886434
91,291.000,13.070336871410689,408.78648412858934
92,292.000,1.8911118294043376,409.7425451705957
93,293.000,0.0,410.6983961333872
94,294.000,0.0,411.6540560032324
95,295.000,3.6366953852104302,412.6095436147896
96,296.000,2.7121163482698876,413.5648776517301
97,297.000,6.377920352639535,414.52007664736044
98,298.000,1.9649550147578339,415.47515898524216
99,299.000,1.8429531001889359,416.4301428998111
100,300.000,0.35254652300614,417.38504647699386
101,301.000,1.5288163451757555,418.3398876548242
102,302.000,5.5769277759434885,419.29468422405654
103,303.000,2.3028871712215278,420.2494538287785
104,304.000,5.158314032977955,421.20421396702204
105,305.000,15.934653008627208,422.1589819913728
106,306.000,7.37529489042214,423.1137751095779
107,307.000,0.0,424.0686103851522
108,308.000,14.851378262016851,425.02350473798316
109,309.000,6.513586055066071,425.9784749449339
110,310.000,0.0,426.9335376404451
111,311.000,9.825415682865184,427.88870931713484
112,312.000,4.468896673602558,428.84400632639745
113,313.000,0.6525651209993839,429.7994448790006
114,314.000,0.5247929543195369,430.75504104568046
115,315.000,0.0,431.7108107577361
116,316.000,4.581607192378215,432.6667698076218
117,317.000,10.690839150462182,433.62293384953784
118,318.000,2.3136645999796315,434.5793184000204
119,319.000,6.77593716147129,435.5359388385287
120,320.000,15.492847591967802,436.4928104080322
121,321.000,0.0,437.44994821559476
122,322.000,5.762888767041545,438.40736723295845
123,323.000,2.3699077028749684,439.365082297125
124,324.000,0.0,440.32310811093646
125,325.000,0.0,441.2814592436538
126,326.000,4.094496868465967,442.24015013153405
127,327.000,6.783682921593538,443.1991950784065
128,328.000,0.9861027437535768,444.1586082562464
129,329.000,4.497953294251715,445.1184037057483
130,330.000,8.501645663103147,446.07859533689685
131,331.000,5.945347070463072,447.03919692953696
132,332.000,9.376372866058375,448.00022213394163
133,333.000,6.931871528620832,448.96168447137916
134,334.000,7.091438665322016,449.923597334678
135,335.000,15.123862011209042,450.88597398879097
136,336.000,7.904474428642914,451.8488275713571
137,337.000,4.944375906737321,452.8121710932627
138,338.000,8.430023560799384,453.77601743920064
139,339.000,0.0,454.7403793682282
140,340.000,2.15182348567663,455.7052695143234
141,341.000,8.942231613060471,456.67070038693953
142,342.000,7.973134628440903,457.6366843715591
143,343.000,13.48473526975448,458.6032337302455
144,344.000,4.26418439780673,459.57036060219326
145,345.000,0.0,460.53807700427717
146,346.000,15.90022816840036,461.50639483159966
147,347.000,10.78269914196278,462.4753258580372
148,348.000,0.0,463.44488173678417
149,349.000,12.499206999103478,464.41507400089654
150,350.000,4.448984936166937,465.38591406383307
151,351.000,0.0,466.3574132199958
152,352.000,1.7546743547314918,467.3295826452685
153,353.000,1.2352786024459874,468.302433397554
154,354.000,13.846205582690061,469.27597641730995
155,355.000,0.0,470.2502225280832
156,356.000,2.8057305629574785,471.2251824370425
157,357.000,2.680750264489916,472.2008667355101
158,358.000,2.0818251005084107,473.1772858994916
159,359.000,0.0,474.15445029020464
160,360.000,5.700232845394282,475.1323701546057
161,361.000,10.862219374083963,476.11105562591604
162,362.000,8.161362275854515,477.09051672414546
163,363.000,0.0,478.07076335661577
164,364.000,0.0,479.0518053184813
165,365.000,5.182088706750733,480.03365229324925
166,366.000,0.24646214670190147,481.0163138532981
167,367.000,0.7230165396055668,481.99979946039446
168,368.000,0.0,482.98411846620877
169,369.000,16.244172887170464,483.96928011282955
170,370.000,10.060063466724273,484.9552935332757
171,371.000,0.0,485.94216775200863
172,372.000,10.04885131455893,486.9299116854411
173,373.000,12.674609857553662,487.91853414244633
174,374.000,0.0,488.9080438248651
175,375.000,1.3671176719887512,489.8984493280112
176,376.000,2.353930858824583,490.88975914117543
177,377.000,8.592558351871276,491.8819816481287
178,378.000,3.9957688723766296,492.8751251276234
179,379.000,3.363763246106828,493.86919775389316
180,380.000,4.418163402848336,494.8642075971517
181,381.000,15.910629375910332,495.86016262408964
182,382.000,17.773074301629094,496.8570706983709
183,383.000,1.6869754188738852,497.85493958112613
184,384.000,0.0,498.85377693144653
185,385.000,21.037378693125106,499.85359030687493
186,386.000,0.0,500.8543871638962
187,387.000,1.4885761415740717,501.8561748584259
188,388.000,5.17222235370258,502.8589606462974
189,389.000,7.876132316251301,503.8627516837487
190,390.000,11.17495697209398,504.867555027906
191,391.000,7.370857362732295,505.8733776372677
192,392.000,0.0,506.8802263721857
193,393.000,8.112242004653638,507.8881079953464
194,394.000,6.59814082775074,508.8970291722493
195,395.000,16.384967528315315,509.9069964716847
196,396.000,5.058396633789471,510.9180163662105
197,397.000,0.0,511.9300952326266
198,398.000,0.0,512.9432393524488
199,399.000,13.924809087619224,513.9574549123807
200,400.000,2.0084689952150256,514.972748004785
201,401.000,0.0,515.9891246281525
202,402.000,1.816046312429762,517.0065906875702
203,403.000,5.325945004811274,518.0251519951887
204,404.000,12.484516729313441,519.0448142706865
205,405.000,0.0,520.0655831417349
206,406.000,9.403168855539661,521.0874641444603
207,407.000,10.20070827609436,522.1104627239056
208,408.000,1.2584717655100803,523.1345842344899
209,409.000,4.355188059532679,524.1598339404674
210,410.000,16.123382983615556,525.1862170163845
211,411.000,15.855569452464238,526.2137385475357
212,412.000,10.691791469581858,527.2424035304182
213,413.000,7.576349126814989,528.272216873185
214,414.000,12.440547603903042,529.303183396097
215,415.000,4.792646168027204,530.3353078319728
216,416.000,5.092167173360735,531.3685948266393
217,417.000,0.5265700606220207,532.403048939378
218,418.000,5.748102356627555,533.4386746433725
219,419.000,5.248592673846929,534.4754763261531
220,420.000,22.408427709958914,535.5134582900411
221,421.000,4.6354922474089335,536.5526247525911
222,422.000,13.443337152967615,537.5929798470324
223,423.000,13.767249377291591,538.6345276227084
224,424.000,4.751184954484415,539.6772720455156
225,425.000,12.912180001659522,540.7212169983404
226,426.000,0.0,541.7663662814957
227,427.000,6.516667386845256,542.8127236131547
228,428.000,11.116232370215243,543.8602926297848
229,429.000,0.0,544.9090768865786
230,430.000,0.0,545.9590798578861
231,431.000,12.385347062357596,547.0103049376424
232,432.000,4.53209456020295,548.062755439797
233,433.000,0.0,549.1164345987397
234,434.000,3.882827430273892,550.1713455697261
235,435.000,2.893852570697618,551.2274914293024
236,436.000,10.520947824272639,552.2848751757274
237,437.000,8.922357270605744,553.3434997293942
238,438.000,4.542342066749029,554.4033679332509
239,439.000,2.256216446780968,555.464482553219
240,440.000,5.949463721388838,556.5268462786112
241,441.000,14.247981277452368,557.5904617225476
242,442.000,8.415407577629026,558.655331422371
243,443.000,10.179005159939265,559.7214578400607
244,444.000,5.465193637355583,560.7888433626445
245,445.000,0.0,561.8574903026102
246,446.000,2.1517261016839484,562.927400898316
247,447.000,10.347752685601677,563.9985773143983
248,448.000,7.083034357820679,565.0710216421793
249,449.000,1.063959099926592,566.1447359000734
250,450.000,0.0,567.2197220339917
251,451.000,7.197165082254401,568.2959819177456
252,452.000,4.518697646550891,569.3735173534491
253,453.000,4.475356928080259,570.4523300719197
254,454.000,4.624333266921212,571.5324217330788
255,455.000,8.326799073651614,572.6137939263484
256,456.000,8.412225828949431,573.6964481710505
257,457.000,12.440317083198352,574.7803859168016
258,458.000,12.259912456092138,575.8656085439079
259,459.000,14.70360863624137,576.9521173637586
260,460.000,11.57072338078217,578.0399136192178
261,461.000,4.740217514983669,579.1289984850164
262,462.000,6.449396931859837,580.2193730681402
263,463.000,9.7612665917801,581.3110384082199
264,464.000,4.955008522082494,582.4039954779175
265,465.000,10.133998816688177,583.4982451833118
266,466.000,13.77944263571601,584.593788364284
267,467.000,2.0705452050993927,585.6906257949006
268,468.000,0.0,586.7887581837956
269,469.000,14.079860825447895,587.8881861745521
270,470.000,7.044161653919218,588.9889103460807
271,471.000,11.209102787000461,590.0909312129995
272,472.000,0.0,591.1942492260102
273,473.000,17.393425227725174,592.2988647722748
274,474.000,11.446092824209586,593.4047781757904
275,475.000,6.2766383022378704,594.5119896977621
276,476.000,4.939668463023509,595.6204995369765
277,477.000,7.753291169828685,596.7303078301713
278,478.000,6.087649347593128,597.8414146524069
279,479.000,5.433821982566087,598.9538200174339
280,480.000,0.4060911219390846,600.0675238780609
281,481.000,14.718078873479044,601.182526126521
282,482.000,6.921089405163457,602.2988265948366
283,483.000,7.623504944817,603.416425055183
284,484.000,7.7501257797482594,604.5353212202517
285,485.000,0.0,605.6555147436113
286,486.000,10.388763779931878,606.7770052200681
287,487.000,5.267333813975824,607.8997921860242
288,488.000,5.523043880163073,609.0238751198369
289,489.000,7.693098557826374,610.1492534421736
290,490.000,1.4552804836315545,611.2759265163685
291,491.000,12.365987351223907,612.4038936487761
292,492.000,3.145890910875437,613.5331540891245
293,493.000,1.9143149691327608,614.6637070308673
294,494.000,2.178120388466027,615.7955516115339
295,495.000,8.318581086920517,616.9286869130794
296,496.000,11.855361037767352,618.0631119622326
297,497.000,3.824799269157211,619.1988257308428
298,498.000,0.0,620.3358271362267
299,499.000,13.7983849584881,621.4741150415119
300,500.000,1.046831744018732,622.6136882559813
301,501.000,14.620031464585281,623.7545455354148
302,502.000,7.138816417568705,624.8966855824312
303,503.000,3.2878639531720637,626.040107046828
304,504.000,3.6509274740803903,627.1848085259196
305,505.000,10.27540443512396,628.330788564876
306,506.000,12.853317342941637,629.4780456570584
307,507.000,6.340786755644672,630.6265782443553
308,508.000,13.223983282483687,631.7763847175163
309,509.000,20.076666583515134,632.9274634164849
310,510.000,6.317222369269189,634.0798126307308
311,511.000,0.6825284004197556,635.2334305995803
312,512.000,1.2648064874537113,636.3883155125463
313,513.000,0.0,637.5444655096562
314,514.000,3.776834318221063,638.7018786817789
315,515.000,3.283780929048021,639.8605530709519
316,516.000,0.0,641.0204866707055
317,517.000,10.83049257361347,642.1816774263865
318,518.000,0.0,643.3441232354812
319,519.000,0.0,644.5078219479371
320,520.000,19.774576633517313,645.6727713664827
321,521.000,13.920946753053158,646.8389692469468
322,522.000,10.841881701422835,648.0064132985772
323,523.000,10.459629815642643,649.1751011843573
324,524.000,18.352594478678384,650.3450305213216
325,525.000,10.951609119129103,651.5161988808709
326,526.000,8.214128210914396,652.6886037890856
327,527.000,0.37852427296172664,653.8622427270383
328,528.000,7.328300868895326,655.0371131311047
329,529.000,3.3778256067254233,656.2132123932746
330,530.000,3.5549301385399303,657.3905378614601
331,531.000,3.5174381601959794,658.5690868398041
332,532.000,7.545934411013036,659.748856588987
333,533.000,5.846563673467699,660.9298443265322
334,534.000,13.062591772888595,662.1120472271114
335,535.000,0.0,663.2954624228468
336,536.000,6.841640996385195,664.4800870036148
337,537.000,19.026919982653226,665.6659180173468
338,538.000,8.114958529671071,666.8529524703289
339,539.000,15.08509267249815,668.0411873275018
340,540.000,14.726622487241684,669.2306195127583
341,541.000,15.817607090760362,670.4212459092396
342,542.000,12.35898064036735,671.6130633596326
343,543.000,0.0,672.8060686664629
344,544.000,6.351946407610626,674.0002585923894
345,545.000,5.687786139503601,675.1956298604964
346,546.000,0.0,676.392179154585
347,547.000,5.214787880536278,677.5899031194638
348,548.000,0.5124286387626853,678.7887983612374
349,549.000,0.0,679.9888614475949
350,550.000,9.3095420919027,681.1900889080973
351,551.000,7.799140765537345,682.3924772344626
352,552.000,3.950990119148287,683.5960228808517
353,553.000,2.3922757358486706,684.8007222641513
354,554.000,4.866853235742838,686.0065717642572
355,555.000,5.769503275644297,687.2135677243557
356,556.000,5.705859548795729,688.4217064512043
357,557.000,7.859750784588755,689.6309842154112
358,558.000,5.585312748286356,690.8413972517136
359,559.000,10.544121240744744,692.0529417592553
360,560.000,11.384519098137162,693.2656139018628
361,561.000,10.420891191679289,694.4794098083207
362,562.000,4.322923427354112,695.6943255726459
363,563.000,4.63199374563942,696.9103572543606
364,564.000,10.971452121235416,698.1275008787646
365,565.000,7.213146562793895,699.3457524372061
366,566.000,8.171688112648667,700.5651078873514
367,567.000,0.0,701.7855631534547
368,568.000,0.0,703.0071141266253
369,569.000,10.573278334905922,704.2297566650941
370,570.000,10.57311440551939,705.4534865944806
371,571.000,17.004856291943952,706.6782997080561
372,572.000,13.023157232991252,707.9041917670088
373,573.000,10.08224949929479,709.1311585007052
374,574.000,8.90969939304739,710.3591956069527
375,575.000,0.31524324774022716,711.5882987522598
376,576.000,14.243782427904534,712.8184635720954
377,577.000,5.3976083288521295,714.0496856711479
378,578.000,12.114316376418174,715.2819606235819
379,579.000,10.386428026704493,716.5152839732955
380,580.000,10.91268076582503,717.749651234175
381,581.000,14.737977109650046,718.9850578903499
382,582.000,6.553313603554329,720.2214993964457
383,583.000,7.289404822163306,721.4589711778367
384,584.000,4.608770369102444,722.6974686308976
385,585.000,7.624216876747482,723.9369871232525
386,586.000,20.039458005973643,725.1775219940264
387,587.000,8.03572344590907,726.4190685540909
388,588.000,17.518183913686244,727.6616220863137
389,589.000,15.568622154195964,728.905177845804
390,590.000,15.2180729398425,730.1497310601575
391,591.000,15.915031070299165,731.3952769297008
392,592.000,5.294053372264898,732.6418106277351
393,593.000,13.935487699221767,733.8893273007782
394,594.000,21.577544931194325,735.1378220688057
395,595.000,8.267545974509062,736.387290025491
396,596.000,12.604854761554748,737.6377262384452
397,597.000,9.256025250545008,738.889125749455
398,598.000,15.865020425280136,740.1414835747198
399,599.000,8.144683294911488,741.3947947050885
400,600.000,25.02314589370576,742.6490541062942
401,601.000,13.968628280810776,743.9042567191892
402,602.000,7.977515540022296,745.1603974599777
403,603.000,29.151608779551452,746.4174712204485
404,604.000,25.61155513179358,747.6754728682064
405,605.000,24.53909875309762,748.9343972469023
406,606.000,26.586297823537166,750.1942391764628
407,607.000,23.61568654668099,751.454993453319
408,608.000,27.317828149366846,752.7166548506332
409,609.000,36.574524881474304,753.9792181185258
410,610.000,42.196403015698706,755.2426779843013
411,611.000,47.92086584732806,756.507029152672
412,612.000,50.801292694018116,757.7722663059819
413,613.000,56.022750895570084,759.03838410443
414,614.000,69.73996081370922,760.3053771862908
415,615.000,93.18753883186423,761.5732401681357
416,616.000,115.02787335494702,762.8419676450529
417,617.000,128.2386538091339,764.1115541908661
418,618.000,152.9410976416483,765.3819943583517
419,619.000,184.36165632054337,766.6532826794567
420,620.000,189.61685033448634,767.9254136655137
421,621.000,181.01790919254324,769.1983818074567
422,622.000,147.84692742396533,770.4721815760347
423,623.000,127.91800757797535,771.7468074220246
424,624.000,103.13044522355585,773.0222537764441
425,625.000,87.56747194923776,774.2985150507623
426,626.000,60.531009362889904,775.5755856371101
427,627.000,66.1578750915105,776.8534599084895
428,628.000,50.99119078101762,778.1321322189824
429,629.000,44.556801096042136,779.4115969039578
430,630.000,29.16661371972225,780.6918482802778
431,631.000,31.610954353495686,781.9728806465043
432,632.000,36.162887716896876,783.2546882831032
433,633.000,15.800059547352248,784.5372654526477
434,634.000,24.63957459997812,785.8206064000219
435,635.000,24.99355764737777,787.1047053526222
436,636.000,14.96800847944155,788.3895565205585
437,637.000,22.58523590314553,789.6751540968545
438,638.000,14.501729742353632,790.9614922576463
439,639.000,22.815714837618998,792.248565162381
440,640.000,17.696528045985474,793.5363669540145
441,641.000,15.087457240792787,794.8248917592072
442,642.000,25.100954311480677,796.1141336885194
443,643.000,17.426080163393067,797.4040868366069
444,644.000,19.742358717586285,798.6947452824137
445,645.000,4.267692910634423,799.9861030893655
446,646.000,7.0894826944386296,801.2781543055613
447,647.000,15.595957036035543,802.5708929639644
448,648.000,15.654943917407422,803.8643130825926
449,649.000,9.564017335292647,805.1584086647074
450,650.000,14.282355300997551,806.4531736990025
451,651.000,2.9842888402095014,807.7486021597905
452,652.000,10.369749992809147,809.0446880071909
453,653.000,1.974735812686049,810.3414251873139
454,654.000,10.69075336755293,811.6388076324471
455,655.000,5.534493738762421,812.9368292612376
456,656.000,4.423403021123477,814.2354839788766
457,657.000,8.437289322719835,815.5347656772801
458,658.000,18.84536276472852,816.8346682352715
459,659.000,1.7210484812391087,818.1351855187609
460,660.000,4.041082619075155,819.4363113809248
461,661.000,13.92564433761413,820.7380396623859
462,662.000,4.853689808611307,822.0403641913887
463,663.000,17.892799216021444,823.3432787839786
464,664.000,8.500618755823552,824.6467772441764
465,665.000,7.603037635845567,825.9508533641545
466,666.000,9.099464075590163,827.2555009244098
467,667.000,17.308836306060925,828.5607136939391
468,668.000,10.701836569589545,829.8664854304104
469,669.000,9.781817119665789,831.1728098803342
470,670.000,8.10823122076431,832.4796807792357
471,671.000,0.0,833.7870918518238
472,672.000,1.1264421878389612,835.0950368121611
473,673.000,15.263112636169012,836.403509363831
474,674.000,11.221995799893648,837.7125032001063
475,675.000,9.25731199588381,839.0220120041162
476,676.000,9.975845550990357,840.3320294490096
477,677.000,2.8266518018764373,841.6425491981236
478,678.000,8.052789094855711,842.9535649051443
479,679.000,0.5589557857274485,844.2650702142726
480,680.000,8.252425239615377,845.5770587603846
481,681.000,1.5616688308048197,846.8895241691952
482,682.000,4.507391942583013,848.2024600574169
483,683.000,8.456143967078674,849.5158600329213
484,684.000,3.721704305102776,850.8297176948972
485,685.000,9.516052365990959,852.144026634009
486,686.000,8.316208567444619,853.4587804325554
487,687.000,7.687368335376277,854.7739726646237
488,688.000,13.428896103752095,856.0895968962479
489,689.000,0.0,857.4056466855623
490,690.000,0.0,858.722115582956
491,691.000,9.041791868772975,860.038997131227
492,692.000,10.945093134266699,861.3562848657333
493,693.000,17.32710368545395,862.6739723145461
494,694.000,9.752646001400535,863.9920529985994
495,695.000,10.155121568158052,865.310520431842
496,696.000,0.0,866.6293681213838
497,697.000,9.609553432352072,867.9485895676479
498,698.000,9.098075735484372,869.2681782645157
499,699.000,0.0,870.5881276994745
500,700.000,0.0,871.9084313537644
501,701.000,4.277191297477771,873.2290827025222
502,702.000,6.637190785072562,874.5500752149275
503,703.000,0.0,875.8714023543452
504,704.000,5.260285421531194,877.1930575784688
505,705.000,6.190058660537034,878.515034339463
506,706.000,3.711111915895458,879.8373260841046
507,707.000,6.340995746076828,881.1599262539231
508,708.000,7.444116714659458,882.4828282853406
509,709.000,0.0,883.806025609811
510,710.000,7.145185346042354,885.1295116539576
511,711.000,3.11106216028827,886.4532798397117
512,712.000,0.0,887.7773235844484
513,713.000,5.81756669887784,889.1016363011222
514,714.000,13.461623601596102,890.4262113984039
515,715.000,0.0,891.7510422808123
516,716.000,0.0,893.0761223488503
517,717.000,0.0,894.4014449991363
518,718.000,16.29962237546283,895.7270036245371
519,719.000,2.90330338570152,897.0527916142985
520,720.000,4.033807645823913,898.3788023541761
521,721.000,0.0,899.7050292265657
522,722.000,0.0,901.0314656106312
523,723.000,0.0,902.3581048824344
524,724.000,5.334117584939236,903.6849404150607
525,725.000,5.8517644212522555,905.0119655787478
526,726.000,0.0,906.3391737410101
527,727.000,0.0,907.6665582667652
528,728.000,0.0,908.9941125184577
529,729.000,4.080530143816645,910.3218298561834
530,730.000,5.689928362187288,911.6497036378128
531,731.000,10.969870780888414,912.9777272191116
532,732.000,12.393232046134926,914.305893953865
533,733.000,10.610103806003622,915.6341971939963
534,734.000,12.243011710311407,916.9626302896886
535,735.000,0.0,918.2911865895023
536,736.000,0.8609325595037944,919.6198594404962
537,737.000,11.049327811656099,920.9486421883439
538,738.000,5.92141582254942,922.2775281774506
539,739.000,4.305684248928742,923.6065107510713
540,740.000,0.0,924.9355832514246
541,741.000,0.0,926.26473901981
542,742.000,8.604601603280457,927.5939713967196
543,743.000,6.2826512780459325,928.923273721954
544,744.000,2.4737406652658365,930.2526393347341
545,745.000,1.792336426186921,931.5820615738131
546,746.000,0.0,932.9115337775893
547,747.000,6.548173715785197,934.2410492842148
548,748.000,10.558607568292587,935.5706014317074
549,749.000,14.240631441940764,936.9001835580592
550,750.000,4.722640998654811,938.2297890013452
551,751.000,3.247929900168401,939.5594110998316
552,752.000,0.0,940.8890431920826
553,753.000,11.92028638293209,942.2186786170679
554,754.000,14.885439285733128,943.5483107142669
555,755.000,1.03600017622432,944.8779328237757
556,756.000,6.538228713589774,946.2075382864102
557,757.000,5.425092556188588,947.5371204438114
558,758.000,1.535145361453715,948.8666726385463
559,759.000,0.0,950.1961882142126
560,760.000,3.009343484460487,951.5256605155395
561,761.000,8.982683111512415,952.8550828884876
562,762.000,0.0,954.1844486803519
563,763.000,0.6158397601411707,955.5137512398588
564,764.000,0.0,956.8429839172674
565,765.000,13.741390935534355,958.1721400644657
566,766.000,9.262237964929682,959.5012130350704
567,767.000,6.786387815477951,960.830196184522
568,768.000,5.1738801298173485,962.1590828701826
569,769.000,3.2908265485687025,963.4878664514313
570,770.000,6.999222710241952,964.816540289758
571,771.000,6.013526251140661,966.1450977488594
572,772.000,6.841733805268177,967.4735321947318
573,773.000,8.647313004235457,968.8018369957646
574,774.000,10.194806477168413,970.1300055228315
575,775.000,19.41074985061573,971.4580311493843
576,776.000,2.1972277484579763,972.785907251542
577,777.000,13.362866791817737,974.1136272081823
578,778.000,9.085140598969133,975.4411844010309
579,779.000,7.211095785249086,976.7685722147509
580,780.000,1.265807962968779,978.0957840370312
581,781.000,20.801432741325584,979.4228132586744
582,782.000,13.220883726316401,980.7496532736836
583,783.000,17.00119352065053,982.0762974793495
584,784.000,27.202848723664147,983.4027392763359
585,785.000,21.374204931234203,984.7289720687658
586,786.000,32.276368735696224,986.0549892643038
587,787.000,36.84254472575617,987.3807842742438
588,788.000,48.390192486411365,988.7063505135887
589,789.000,57.216769598864516,990.0316814011354
590,790.000,54.88685364044386,991.3567703595561
591,791.000,75.71700518451973,992.6816108154802
592,792.000,80.3111228004251,994.0061961995749
593,793.000,91.54162405337468,995.3305199466253
594,794.000,96.75676950438537,996.6545754956146
595,795.000,105.34538971019788,997.9783562898022
596,796.000,90.7066172231963,999.3018557768038
597,797.000,92.26128359133327,1000.6250674086668
598,798.000,87.79019235804992,1001.94798464195
599,799.000,68.30382106220134,1003.2706009377986
600,800.000,71.99449723798045,1004.5929097620195
601,801.000,46.425396414840066,1005.9149045851599
602,802.000,44.497243117422386,1007.2365788825775
603,803.000,33.980155865481265,1008.5579261345188
604,804.000,27.93964317380994,1009.87893982619
605,805.000,20.660557552168484,1011.1996134478316
606,806.000,20.57143750521118,1012.5199404947889
607,807.000,20.56229753241371,1013.8399144675863
608,808.000,13.609170128003598,1015.1595288719964
609,809.000,21.667267780889233,1016.4787772191107
610,810.000,23.757863974588076,1017.7976530254119
611,811.000,3.9839761871602377,1019.1161498128398
612,812.000,16.899278891136873,1020.4342611088632
613,813.000,11.925518553453912,1021.751980446546
614,814.000,11.308288635383178,1023.0693013646169
615,815.000,23.782909592465558,1024.3862174075343
616,816.000,15.518429874445246,1025.7027221255548
617,817.000,9.65622492520265,1027.0188090747974
618,818.000,8.179410182689708,1028.3344718173103
619,819.000,0.0,1029.6497039211354
620,820.000,10.812778039629166,1030.9644989603707
621,821.000,1.277639484762176,1032.2788505152378
622,822.000,6.455284827859032,1033.592752172141
623,823.000,5.652477476267904,1034.906197523732
624,824.000,10.524950831028036,1036.219180168972
625,825.000,16.668668286808725,1037.5316937131913
626,826.000,10.13359223184716,1038.8437317681528
627,827.000,11.636824047890741,1040.1552879521093
628,828.000,2.377531110133532,1041.4663558898665
629,829.000,6.321590787160403,1042.7769292128396
630,830.000,8.01936544088744,1044.0870015591127
631,831.000,0.0,1045.3965665734977
632,832.000,15.32539309240883,1046.7056179075912
633,833.000,0.0,1048.0141492198306
634,834.000,0.0,1049.322154175552
635,835.000,12.467313552953328,1050.6296264470466
636,836.000,15.253179286386512,1051.9365597136134
637,837.000,0.0,1053.242947661617
638,838.000,0.0,1054.54878398454
639,839.000,20.89414961696184,1055.8540623830381
640,840.000,2.803752435008164,1057.1587765649917
641,841.000,0.0,1058.4629202455603
642,842.000,0.0,1059.7664871472343
643,843.000,13.886595000114767,1061.0694709998852
644,844.000,5.752594459180727,1062.3718655408193
645,845.000,6.238242485174169,1063.6736645148258
646,846.000,9.004352325771151,1064.9748616742288
647,847.000,5.6463632210645756,1066.2754507789355
648,848.000,0.0,1067.5754255964866
649,849.000,0.0,1068.874779902104
650,850.000,4.091812521262,1070.173507478738
651,851.000,0.0,1071.4716021171175
652,852.000,0.9705213842062221,1072.7690576157938
653,853.000,11.812439218810368,1074.0658677811896
654,854.000,4.455321572355842,1075.3620264276442
655,855.000,1.5232086225421426,1076.6575273774579
656,856.000,1.5171065390607055,1077.9523644609394
657,857.000,5.466379483552373,1079.2465315164477
658,858.000,6.5693646095614895,1080.5400223904385
659,859.000,0.0,1081.8328309375052
660,860.000,2.0804209795755924,1083.1249510204243
661,861.000,11.226528489802376,1084.4163765101976
662,862.000,5.425411713908943,1085.707101286091
663,863.000,0.0,1086.9971192356825
664,864.000,0.0,1088.2864242548958
665,865.000,0.0,1089.5750102480467
666,866.000,0.0,1090.8628711278807
667,867.000,10.393678184388364,1092.1500008156117
668,868.000,0.30894475903528473,1093.4363932409647
669,869.000,0.0,1094.7220423422102
670,870.000,0.0,1096.0069420662057
671,871.000,0.0,1097.2910863684313
672,872.000,0.0,1098.5744692130284
673,873.000,0.0,1099.857084572836
674,874.000,0.0,1101.1389264294262
675,875.000,4.394991226858565,1102.4199887731415
676,876.000,9.789274396870269,1103.7002656031298
677,877.000,0.0,1104.9797509273783
678,878.000,0.0,1106.258438762749
679,879.000,7.647268864987382,1107.5363231350127
680,880.000,0.0,1108.813398078882
681,881.000,0.0,1110.089657638046
682,882.000,0.0,1111.3650958651995
683,883.000,1.4679001779204555,1112.6397068220795
684,884.000,0.0,1113.9134845794943
685,885.000,0.0,1115.1864232173546
686,886.000,2.295991175293011,1116.458516824707
687,887.000,0.0,1117.7297594997613
688,888.000,0.0,1119.0001453499221
689,889.000,0.0,1120.269668491819
690,890.000,4.899588948665723,1121.5383230513344
691,891.000,0.0,1122.8061031636312
692,892.000,3.08218202681428,1124.0730029731858
693,893.000,4.421633366189553,1125.3390166338104
694,894.000,5.237203691317291,1126.6041383086826
695,895.000,0.0,1127.868362170374
696,896.000,0.0,1129.1316824008738
697,897.000,0.9105458083827216,1130.3940931916172
698,898.000,0.0,1131.6555887435097
699,899.000,0.0,1132.9161632669538
700,900.000,7.938242018127539,1134.1758109818725
701,901.000,0.0,1135.4345261177345
702,902.000,11.19183808642174,1136.6923029135783
703,903.000,3.5120493819651983,1137.9491356180347
704,904.000,0.0,1139.205018489352
705,905.000,3.066379204582745,1140.4599457954173
706,906.000,7.8315091862202735,1141.7139118137798
707,907.000,0.0,1142.9669108316725
708,908.000,0.0,1144.2189371460327
709,909.000,0.0,1145.4699850635252
710,910.000,1.492593099438409,1146.7200489005616
711,911.000,2.943838016677546,1147.9691229833224
712,912.000,0.7093323522260562,1149.217201647774
713,913.000,0.0,1150.4642792396921
714,914.000,0.0,1151.7103501146785
715,915.000,7.7173053618203085,1152.9554086381797
716,916.000,7.319338814492767,1154.1994491855073
717,917.000,1.4299308581448713,1155.4424661418552
718,918.000,0.0,1156.6844539023157
719,919.000,4.463437128101077,1157.925406871899
720,920.000,2.4495095344495894,1159.1653194655505
721,921.000,2.2705238918358646,1160.4041861081641
722,922.000,11.16669376539744,1161.6420012346025
723,923.000,5.743954710290382,1162.8787592897097
724,924.000,0.0,1164.1144547283293
725,925.000,0.0,1165.3490820153163
726,926.000,9.217122374445353,1166.5826356255548
727,927.000,2.211968956029523,1167.8151100439704
728,928.000,6.344737234453305,1169.0464997655467
729,929.000,0.4311077046650098,1170.276799295335
730,930.000,0.0,1171.5060031484702
731,931.000,3.116605149815314,1172.7341058501847
732,932.000,10.93992006418216,1173.9611019358179
733,933.000,3.679181049169074,1175.1869859508308
734,934.000,0.0,1176.4117524508172
735,935.000,0.0,1177.6353960015142
736,936.000,0.0,1178.857911178815
737,937.000,3.032496431221489,1180.0792925687786
738,938.000,8.211768232360328,1181.2995347676397
739,939.000,14.028212618178031,1182.518632381822
740,940.000,3.672704972056863,1183.736580027943
741,941.000,0.0,1184.9533723328282
742,942.000,2.9957410664842428,1186.1690039335158
743,943.000,2.7290435227300804,1187.38346947727
744,944.000,0.18819237841398717,1188.596763621586
745,945.000,2.987508965800771,1189.8088810341992
746,946.000,2.962728606906012,1191.019816393094
747,947.000,0.0,1192.229564386509
748,948.000,6.504410287053588,1193.4381197129464
749,949.000,1.177615918822994,1194.645477081177
750,950.000,0.0,1195.8516312102488
751,951.000,6.591528170509946,1197.05657682949
752,952.000,0.8887943214824645,1198.2603086785175
753,953.000,14.440796492757045,1199.462821507243
754,954.000,7.020633924125605,1200.6641100758743
755,955.000,4.802872845074944,1201.864169154925
756,956.000,0.005197474785518352,1203.0629935252146
757,957.000,2.3123820221230744,1204.260577977877
758,958.000,10.074101685639107,1205.456917314361
759,959.000,1.1009516535636976,1206.6520063464363
760,960.000,10.050956103804765,1207.8458398961952
761,961.000,0.0,1209.038412796057
762,962.000,7.2805131112295385,1210.2297198887704
763,963.000,11.309297972584773,1211.4197560274151
764,964.000,8.80179492459456,1212.6085160754055
765,965.000,7.136774093509757,1213.7959949064903
766,966.000,13.64773559524292,1214.982187404757
767,967.000,2.9201565353691876,1216.1670884646308
768,968.000,2.655795009122812,1217.3506929908772
769,969.000,9.738216101398393,1218.5329958986017
770,970.000,16.928334886749326,1219.7139921132507
771,971.000,12.966077429388633,1220.8936765706114
772,972.000,9.941996783187506,1222.0720442168124
773,973.000,13.716012991677871,1223.2490900083221
774,974.000,15.462951088051113,1224.424808911949
775,975.000,6.33183409515982,1225.5991959048401
776,976.000,0.0,1226.7722459744814
777,977.000,10.006796881306855,1227.9439541186932
778,978.000,8.59550765436802,1229.114315345632
779,979.000,15.672482326214777,1230.2833246737853
780,980.000,13.746979868029257,1231.4509771319708
781,981.000,17.837497240665016,1232.617267759335
782,982.000,28.028439394652196,1233.7821916053479
783,983.000,28.793890270198517,1234.9457437298015
784,984.000,31.3247417971927,1236.1079192028074
785,985.000,45.28624989520995,1237.26871310479
786,986.000,37.1563714735139,1238.428120526486
787,987.000,43.17164343106106,1239.5861365689389
788,988.000,59.804537656505545,1240.7427563434944
789,989.000,53.89190802820349,1241.8979749717964
790,990.000,61.277306414218174,1243.0517875857818
791,991.000,92.32942667232419,1244.2041893276757
792,992.000,104.00933965001309,1245.355175349987
793,993.000,128.9294531845003,1246.5047408154996
794,994.000,161.04721610272804,1247.6528808972719
795,995.000,207.42379122137504,1248.7995907786249
796,996.000,263.7244443468601,1249.94486565314
797,997.000,361.08160627534767,1251.0887007246524
798,998.000,494.29619379275823,1252.2310912072417
799,999.000,693.261266674773,1253.372032325227
800,1000.000,900.5929996868394,1254.5115193131605
801,1001.000,996.2434265841821,1255.6495474158178
802,1002.000,903.9770221118094,1256.7861118881904
803,1003.000,711.6998190045181,1257.9212079954818
804,1004.000,496.40864798690654,1259.0548310130935
805,1005.000,369.697016773378,1260.186976226622
806,1006.000,276.27380006815406,1261.317638931846
807,1007.000,213.38666256527722,1262.4468144347227
808,1008.000,158.38217294862693,1263.574498051373
809,1009.000,139.57036489192365,1264.7006851080764
810,1010.000,114.16788205873854,1265.8253709412616
811,1011.000,93.31042210250507,1266.948550897495
812,1012.000,80.0658916665277,1268.0702203334722
813,1013.000,74.77893838399314,1269.190374616007
814,1014.000,72.48940687797631,1270.3090091220238
815,1015.000,67.68200876145534,1271.4261192385447
816,1016.000,73.22476263731983,1272.54170036268
817,1017.000,55.92623809838369,1273.6557479016162
818,1018.000,61.71292372739208,1274.768257272608
819,1019.000,56.795863097035635,1275.8792239029644
820,1020.000,67.0491857699617,1276.9886432300384
821,1021.000,68.0330262987843,1278.0965107012157
822,1022.000,70.95971922609647,1279.2028217739035
823,1023.000,77.09161308448324,1280.3075719155167
824,1024.000,95.35364439653131,1281.4107566034686
825,1025.000,122.58468167484375,1282.5123713251562
826,1026.000,160.0899014220504,1283.6124115779496
827,1027.000,198.6099401308211,1284.710872869179
828,1028.000,245.48100128387978,1285.8077507161202
829,1029.000,322.94553635401394,1286.903040645986
830,1030.000,396.55974280409214,1287.996738195908
831,1031.000,426.3577600870742,1289.088838912926
832,1032.000,395.3157556460253,1290.1793383539748
833,1033.000,327.7167909141283,1291.2682320858717
834,1034.000,249.7021463147007,1292.3555156852992
835,1035.000,184.1228072612064,1293.4411847387937
836,1036.000,132.5061111572693,1294.5252348427307
837,1037.000,110.29867439668806,1295.607661603312
838,1038.000,79.36960136345078,1296.6884606365493
839,1039.000,71.67149943175036,1297.7676275682497
840,1040.000,61.954545965995294,1298.8451580340047
841,1041.000,42.4175693208299,1299.9210476791702
842,1042.000,42.08820484114585,1300.9952921588542
843,1043.000,34.9363288620973,1302.0678871379027
844,1044.000,43.60400270911782,1303.1388282908822
845,1045.000,31.000322697934052,1304.2081113020658
846,1046.000,13.71400113458185,1305.275731865418
847,1047.000,24.976351315423017,1306.341685684577
848,1048.000,22.52091552715865,1307.4059684728413
849,1049.000,16.875593046847825,1308.4685759531521
850,1050.000,14.154292141921587,1309.5295038580784
851,1051.000,18.53631907020008,1310.5887479297999
852,1052.000,17.648073079908727,1311.6463039200912
853,1053.000,15.165223409694363,1312.7021675903056
854,1054.000,5.596796288641599,1313.7563347113585
855,1055.000,9.169627936292045,1314.808801063708
856,1056.000,0.5406785626548753,1315.8595624373452
857,1057.000,0.21048436823184602,1316.9086146317682
858,1058.000,5.190583544027504,1317.9559534559726
859,1059.000,1.6514942715712095,1319.0015747284287
860,1060.000,4.9735217229301725,1320.0454742770698
861,1061.000,21.850196060731605,1321.0876479392684
862,1062.000,9.495962438174047,1322.1280915618258
863,1063.000,0.8185859990519475,1323.166801000948
864,1064.000,0.0,1324.2037721222327
865,1065.000,0.3866891993509398,1325.2390008006491
866,1066.000,0.0,1326.2724829205213
867,1067.000,0.0,1327.3042143755092
868,1068.000,8.871587931409522,1328.3341910685904
869,1069.000,1.3993800879566152,1329.3624089120433
870,1070.000,6.7040191725725435,1330.3888638274275
871,1071.000,22.409201254432446,1331.4135517455675
872,1072.000,5.312151393468412,1332.4364686065317
873,1073.000,4.222384640385371,1333.4576103596146
874,1074.000,5.45831503668137,1334.4769729633185
875,1075.000,1.6220396146638905,1335.4945523853362
876,1076.000,0.0,1336.5103446025291
877,1077.000,1.6920623990883996,1337.5243456009116
878,1078.000,9.713313624369903,1338.53655137563
879,1079.000,1.1390190690553936,1339.5469579309447
880,1080.000,0.0,1340.5555612802082
881,1081.000,0.0,1341.5623574458516
882,1082.000,0.0,1342.5673424593597
883,1083.000,2.5115856387449185,1343.5705123612552
884,1084.000,5.279540798920607,1344.5718632010794
885,1085.000,5.2317159626325065,1345.5713910373674
886,1086.000,9.450158062363016,1346.569091937637
887,1087.000,1.0713030216375046,1347.5649619783626
888,1088.000,7.300435755040326,1348.5589972449598
889,1089.000,4.242697168238692,1349.5511938317613
890,1090.000,6.530835157997672,1350.5415478420023
891,1091.000,0.0,1351.5300553877964
892,1092.000,9.79805840988206,1352.516712590118
893,1093.000,0.0,1353.501515578782
894,1094.000,0.0,1354.4844604924242
895,1095.000,7.036766521520121,1355.46554347848
896,1096.000,0.06505230683319496,1356.4447606931667
897,1097.000,13.022431698539094,1357.4221083014609
898,1098.000,3.4090835229208096,1358.3975824770791
899,1099.000,0.0,1359.3711794024616
900,1100.000,3.426233731257298,1360.3428952687427
901,1101.000,0.11107372425703943,1361.312726275743
902,1102.000,11.863025368062836,1362.2806686319373
903,1103.000,12.358075445554505,1363.2467185544456
904,1104.000,7.048794730999589,1364.2108722690004
905,1105.000,0.22297499006094768,1365.173126009939
906,1106.000,3.208890979826947,1366.133476020173
907,1107.000,9.04489444882529,1367.0919185511748
908,1108.000,0.0,1368.0484498629526
909,1109.000,0.0,1369.0030662240324
910,1110.000,8.020728088560418,1369.9557639114396
911,1111.000,7.4093077893296595,1370.9065392106704
912,1112.000,1.672712584316514,1371.8553884156836
913,1113.000,1.5340851711312098,1372.8023078288688
914,1114.000,0.0,1373.7472937610332
915,1115.000,10.427998468622036,1374.690342531378
916,1116.000,2.734345532521729,1375.6314504674783
917,1117.000,0.0,1376.5706139052622
918,1118.000,0.0,1377.5078291889927
919,1119.000,0.0,1378.4430926712448
920,1120.000,14.203369287114356,1379.3764007128857
921,1121.000,8.298038316947213,1380.3077496830529
922,1122.000,0.0,1381.237135959138
923,1123.000,15.678091073238647,1382.1645559267613
924,1124.000,12.801964020245805,1383.090005979754
925,1125.000,0.0,1384.0134825201376
926,1126.000,0.0,1384.934981958104
927,1127.000,11.368629288008606,1385.8545007119915
928,1128.000,2.312793791729746,1386.7720352082702
929,1129.000,5.4788141184853885,1387.6875818815147
930,1130.000,3.556845825606615,1388.6011371743934
931,1131.000,14.72105046236311,1389.512697537637
932,1132.000,16.555323569973325,1390.4222594300268
933,1133.000,13.12493068163144,1391.3298193183687
934,1134.000,8.021352322523398,1392.2353736774767
935,1135.000,11.249559009846735,1393.1389189901533
936,1136.000,14.268807252836268,1394.0404517471638
937,1137.000,2.0888315527781742,1394.9399684472219
938,1138.000,20.150974403031796,1395.8374655969683
939,1139.000,12.126312289052066,1396.732939710948
940,1140.000,17.202876688406377,1397.6263873115936
941,1141.000,18.345672070797946,1398.5178049292022
942,1142.000,25.20637689808109,1399.407189101919
943,1143.000,28.903301624286087,1400.294536375714
944,1144.000,39.06739969563773,1401.1798433043623
945,1145.000,27.78363255056911,1402.063106449431
946,1146.000,29.561889619751355,1402.9443223802487
947,1147.000,42.170734326108004,1403.823487673892
948,1148.000,45.474446084831925,1404.700598915168
949,1149.000,64.70453730341251,1405.5756526965874
950,1150.000,67.37523538164601,1406.448645618354
951,1151.000,88.4278777116624,1407.3195742883377
952,1152.000,110.89289167794254,1408.1884353220576
953,1153.000,129.14712065733556,1409.0552253426645
954,1154.000,138.3180800190787,1409.9199409809212
955,1155.000,151.112169124822,1410.782578875178
956,1156.000,145.23807832863713,1411.6431356713629
957,1157.000,113.72373297704576,1412.5016080229543
958,1158.000,108.71575940903199,1413.357992590968
959,1159.000,90.48557695606883,1414.2122860439313
960,1160.000,72.69204394212761,1415.0644850578724
961,1161.000,58.51071168370345,1415.9145863162967
962,1162.000,53.0303774898332,1416.7625865101668
963,1163.000,47.677953662109985,1417.60848233789
964,1164.000,41.334660494706895,1418.4522705052932
965,1165.000,43.57271227439037,1419.2939477256095
966,1166.000,38.131492280545444,1420.1335107194545
967,1167.000,26.33192978518491,1420.970956214815
968,1168.000,23.767694052973866,1421.8062809470262
969,1169.000,32.53656934124729,1422.6394816587526
970,1170.000,23.037772900025175,1423.4705550999747
971,1171.000,28.626505972032646,1424.2994980279673
972,1172.000,31.578171792716603,1425.1263072072834
973,1173.000,36.77741159026391,1425.9509794097362
974,1174.000,36.512403585616994,1426.773511414383
975,1175.000,46.07062899249672,1427.5939000075032
976,1176.000,40.13827201741083,1428.4121419825892
977,1177.000,54.347451859681996,1429.228234140318
978,1178.000,56.26221271145391,1430.042173288546
979,1179.000,74.09161575771668,1430.8539562422834
980,1180.000,89.22582717632054,1431.6635798236794
981,1181.000,99.54785713799015,1432.4710408620099
982,1182.000,103.2077758063433,1433.2763361936568
983,1183.000,129.86888133791217,1434.0794626620877
984,1184.000,120.41523088215104,1434.880417117849
985,1185.000,104.76521658145725,1435.6791964185427
986,1186.000,82.45787957118682,1436.4757974288132
987,1187.000,68.50602897967201,1437.270217020328
988,1188.000,59.7900229282352,1438.0624520717647
989,1189.000,46.56204453120313,1438.8524994687969
990,1190.000,45.1740128959234,1439.6403561040765
991,1191.000,32.55843012278456,1440.4260188772155
992,1192.000,21.975407305224735,1441.2094846947753
993,1193.000,26.664306529750775,1441.9907504702492
994,1194.000,16.094612875951498,1442.7698131240486
995,1195.000,18.684924416513468,1443.5466695834866
996,1196.000,4.474053217235223,1444.3213167827648
997,1197.000,11.543697337043113,1445.093751662957
998,1198.000,15.56790082800444,1445.8639711719957
999,1199.000,7.121299735338653,1446.6319722646613
1000,1200.000,9.845039097441031,1447.3977519025589
1001,1201.000,12.674118945883492,1448.1613070541166
1002,1202.000,8.784981305441534,1448.9226346945584
1003,1203.000,18.43877919409806,1449.681731805902
1004,1204.000,5.595143623061631,1450.4385953769383
1005,1205.000,5.566562596776521,1451.1932224032234
1006,1206.000,5.231383112941785,1451.9456098870583
1007,1207.000,0.0,1452.695754837484
1008,1208.000,0.0,1453.443654270262
1009,1209.000,8.3164857921347,1454.1893052078653
1010,1210.000,2.8538373205349217,1454.9327046794651
1011,1211.000,12.900433279079607,1455.6738497209203
1012,1212.000,3.8608476252393302,1456.4127373747606
1013,1213.000,3.092156309819984,1457.14936469018
1014,1214.000,10.086392276979268,1457.8837287230208
1015,1215.000,5.390965464236388,1458.6158265357635
1016,1216.000,13.188060802479413,1459.3456551975205
1017,1217.000,0.0,1460.0732117840134
1018,1218.000,5.909368622425745,1460.7984933775742
1019,1219.000,7.217720932875864,1461.521497067124
1020,1220.000,6.357363051827406,1462.2422199481725
1021,1221.000,9.824802877200227,1462.9606591227998
1022,1222.000,8.993463300349049,1463.676811699651
1023,1223.000,2.94989720608055,1464.3906747939195
1024,1224.000,0.0,1465.1022455273478
1025,1225.000,8.465256971792769,1465.8115210282072
1026,1226.000,2.8238415687053475,1466.5184984312946
1027,1227.000,8.225699122077685,1467.2231748779222
1028,1228.000,10.541799484092508,1467.9255475159075
1029,1229.000,3.5975535004363337,1468.6256134995638
1030,1230.000,0.0,1469.3233699896955
1031,1231.000,0.7875138464148677,1470.018814153585
1032,1232.000,7.007866835013829,1470.7119431649862
1033,1233.000,0.8234977958823038,1471.4027542041176
1034,1234.000,9.28520854234398,1472.091244457656
1035,1235.000,2.4351078812749165,1472.777411118725
1036,1236.000,2.9655266131139797,1473.461251386886
1037,1237.000,0.0,1474.1427624681414
1038,1238.000,1.51731942508286,1474.8219415749172
1039,1239.000,8.642243073938971,1475.498785926061
1040,1240.000,0.0,1476.173292746837
1041,1241.000,0.0,1476.845459268915
1042,1242.000,0.0,1477.5152827303677
1043,1243.000,6.572737624333513,1478.1827603756665
1044,1244.000,0.0,1478.8478894556729
1045,1245.000,0.0,1479.5106672276365
1046,1246.000,7.203255044813886,1480.1710909551862
1047,1247.000,10.232363091671687,1480.8291579083284
1048,1248.000,0.3217796365581762,1481.4848653634417
1049,1249.000,7.39572939672621,1482.1382106032738
1050,1250.000,0.0,1482.7891909169352
1051,1251.000,6.082034400104703,1483.4378035998952
1052,1252.000,3.2576390460151288,1484.084045953985
1053,1253.000,0.0,1484.7279152873853
1054,1254.000,0.0,1485.3694089146302
1055,1255.000,0.0,1486.008524156599
1056,1256.000,2.942334659481048,1486.645258340519
1057,1257.000,3.571243200036861,1487.2796087999632
1058,1258.000,2.0010831251593117,1487.9115728748407
1059,1259.000,5.939061088593689,1488.5411479114064
1060,1260.000,5.49438473774876,1489.1683312622513
1061,1261.000,0.0,1489.7931202863047
1062,1262.000,0.0,1490.4155123488313
1063,1263.000,0.0,1491.0355048214346
1064,1264.000,7.360986917948821,1491.653095082051
1065,1265.000,0.0,1492.268280514962
1066,1266.000,7.196247489230018,1492.88105851077
1067,1267.000,1.696296533570603,1493.4914264664294
1068,1268.000,15.20173921477408,1494.099381785226
1069,1269.000,0.8176921232147834,1494.7049218767852
1070,1270.000,1.1249478429276678,1495.3080441570723
1071,1271.000,0.4121399516038764,1495.908746048396
1072,1272.000,1.9490010205888666,1496.5070249794112
1073,1273.000,15.620916614883072,1497.102878385117
1074,1274.000,0.0,1497.6963037068617
1075,1275.000,0.0,1498.2872983923457
1076,1276.000,0.0,1498.8758598956297
1077,1277.000,5.01049432287391,1499.461985677126
1078,1278.000,0.0,1500.045673203616
1079,1279.000,5.719165051755908,1500.626919948244
1080,1280.000,5.506442609472515,1501.2057233905275
1081,1281.000,0.0,1501.782081016358
1082,1282.000,0.0,1502.355990318014
1083,1283.000,0.0,1502.9274487941543
1084,1284.000,0.0,1503.4964539498333
1085,1285.000,0.0,1504.0630032965018
1086,1286.000,8.277665647983213,1504.6270943520167
1087,1287.000,10.563681359354632,1505.1887246406454
1088,1288.000,0.0,1505.7478916930754
1089,1289.000,0.5283809535826549,1506.3045930464173
1090,1290.000,0.0,1506.858826244213
1091,1291.000,0.0,1507.410588836453
1092,1292.000,2.7577136204322414,1507.9598783795677
1093,1293.000,2.346117563546386,1508.5066924364537
1094,1294.000,1.4329244235314036,1509.0510285764685
1095,1295.000,5.750525624551756,1509.5928843754482
1096,1296.000,1.2139425842833589,1510.1322574157166
1097,1297.000,0.0,1510.6691452860905
1098,1298.000,10.24177141810992,1511.20354558189
1099,1299.000,0.0,1511.7354559049604
1100,1300.000,0.0,1512.2648738636658
1101,1301.000,0.0,1512.7917970729163
1102,1302.000,0.0,1513.3162231541678
1103,1303.000,0.0,1513.8381497354385
1104,1304.000,0.0,1514.3575744513282
1105,1305.000,0.0,1514.8744949430175
1106,1306.000,0.15913614171040535,1515.3889088582896
1107,1307.000,4.016470148455937,1515.9008138515442
1108,1308.000,0.6314404161935272,1516.4102075838064
1109,1309.000,1.2418482772511652,1516.9170877227489
1110,1310.000,0.0,1517.4214519426932
1111,1311.000,0.0,1517.923297924639
1112,1312.000,0.0,1518.4226233562717
1113,1313.000,5.931107068021674,1518.9194259319784
1114,1314.000,2.6292686471367688,1519.4137033528632
1115,1315.000,6.871996673231024,1519.905453326769
1116,1316.000,6.301149431709746,1520.3946735682903
1117,1317.000,7.06902720121434,1520.8813617987857
1118,1318.000,0.0,1521.3655157464082
1119,1319.000,7.743319853890853,1521.8471331461092
1120,1320.000,4.862679260336108,1522.326211739664
1121,1321.000,12.72857972430711,1522.8027492756928
1122,1322.000,3.845895490331941,1523.276743509668
1123,1323.000,2.267354796044401,1523.7481922039556
1124,1324.000,0.0,1524.2170931278047
1125,1325.000,1.298115942601953,1524.683444057398
1126,1326.000,0.0,1525.147242775855
1127,1327.000,0.0,1525.6084870732502
1128,1328.000,0.07651025334644146,1526.0671747466536
1129,1329.000,6.2084823998704906,1526.5233036001296
1130,1330.000,0.0,1526.9768714447737
1131,1331.000,1.0852609012722496,1527.4278760987277
1132,1332.000,11.185575612783623,1527.8763153872164
1133,1333.000,0.0,1528.322187142548
1134,1334.000,5.314990795842277,1528.7654892041578
1135,1335.000,0.0,1529.2062194186265
1136,1336.000,0.0,1529.6443756396998
1137,1337.000,3.031327271680084,1530.0799557283199
1138,1338.000,5.545942447351081,1530.512957552649
1139,1339.000,0.0,1530.9433789880923
1140,1340.000,0.0,1531.371217917329
1141,1341.000,9.323966769658227,1531.7964722303418
1142,1342.000,1.3996101755710697,1532.219139824429
1143,1343.000,5.014547395753198,1532.6392186042467
1144,1344.000,5.7262255181603905,1533.0567064818397
1145,1345.000,4.802859623348013,1533.471601376652
1146,1346.000,0.0,1533.8839012155736
1147,1347.000,0.0,1534.2936039329634
1148,1348.000,0.0,1534.7007074706721
1149,1349.000,1.3791982219147485,1535.1052097780853
1150,1350.000,0.0,1535.507108812143
1151,1351.000,0.184080462619022,1535.906402537381
1152,1352.000,11.430422074046874,1536.303088925953
1153,1353.000,4.417287042333783,1536.6971659576661
1154,1354.000,0.6551803799850404,1537.088631620015
1155,1355.000,0.0,1537.477483908213
1156,1356.000,4.681957174771924,1537.863720825228
1157,1357.000,9.398451618191075,1538.247340381809
1158,1358.000,0.0,1538.6283405965355
1159,1359.000,2.907181504171149,1539.0067194958287
1160,1360.000,0.0,1539.382475114011
1161,1361.000,0.0,1539.7556054933284
1162,1362.000,0.0,1540.1261086839872
1163,1363.000,0.0,1540.4939827441922
1164,1364.000,0.0,1540.8592257401897
1165,1365.000,0.0,1541.2218357462907
1166,1366.000,8.689722155073014,1541.581810844927
1167,1367.000,6.67380287332935,1541.9391491266706
1168,1368.000,0.792294309710087,1542.29384869029
1169,1369.000,2.205357357220464,1542.6459076427795
1170,1370.000,0.9213299006028137,1542.9953240993973
1171,1371.000,1.7804498162827258,1543.3420961837173
1172,1372.000,1.7915789723401758,1543.6862220276598
1173,1373.000,0.0,1544.0276997715323
1174,1374.000,0.0,1544.366527564076
1175,1375.000,0.0,1544.7027035625138
1176,1376.000,0.0,1545.0362259325761
1177,1377.000,0.0,1545.3670928485603
1178,1378.000,2.0640415066327478,1545.6953024933673
1179,1379.000,0.0,1546.020853058546
1180,1380.000,12.165975255663625,1546.3437427443364
1181,1381.000,0.0,1546.663969759723
1182,1382.000,0.0,1546.9815323224739
1183,1383.000,3.626043340815386,1547.2964286591846
1184,1384.000,7.2009089946695894,1547.6086570053303
1185,1385.000,12.112457394689272,1547.9182156053107
1186,1386.000,6.999414287498894,1548.2251027125012
1187,1387.000,0.0,1548.529316589295
1188,1388.000,0.3973894928437858,1548.8308555071562
1189,1389.000,7.663968253327766,1549.1297177466722
1190,1390.000,3.075687402407766,1549.4259015975922
1191,1391.000,6.353537641111643,1549.7194053588883
1192,1392.000,1.2979146611921806,1550.010227338808
1193,1393.000,11.256069145088986,1550.298365854911
1194,1394.000,10.452215765861183,1550.583819234139
1195,1395.000,8.670882187142524,1550.8665858128575
1196,1396.000,3.090429063092188,1551.1466639369078
1197,1397.000,0.0,1551.4240519616746
1198,1398.000,0.0,1551.6987482521135
1199,1399.000,4.481693817159794,1551.97075118284
1200,1400.000,6.554993861853973,1552.240059138146
1201,1401.000,0.0,1552.5066705120935
1202,1402.000,0.25684229145736026,1552.7705837085427
1203,1403.000,9.98100785877682,1553.0317971412233
1204,1404.000,9.016371766213979,1553.290309233786
1205,1405.000,0.6994015801378737,1553.546118419862
1206,1406.000,7.575444856881404,1553.7992231431185
1207,1407.000,4.2504111426706,1554.0496218573294
1208,1408.000,3.0437529735836506,1554.2973130264163
1209,1409.000,11.166864875480542,1554.5422951245196
1210,1410.000,11.573649363938785,1554.7845666360613
1211,1411.000,2.1268489441972633,1555.0241260558028
1212,1412.000,0.0021321110993994807,1555.2609718889007
1213,1413.000,0.0,1555.495102650973
1214,1414.000,0.0,1555.7265168681797
1215,1415.000,14.565178922750874,1555.955213077249
1216,1416.000,18.21216317442486,1556.181189825575
1217,1417.000,8.975610328736366,1556.4044456712636
1218,1418.000,14.466637816792172,1556.6249791832079
1219,1419.000,4.900511058854136,1556.842788941146
1220,1420.000,9.175894464266094,1557.057873535734
1221,1421.000,15.68915543139451,1557.2702315686056
1222,1422.000,12.98150034755463,1557.4798616524454
1223,1423.000,11.822858588947156,1557.6867624110528
1224,1424.000,3.2837205205833015,1557.8909324794167
1225,1425.000,5.62178949622421,1558.0923705037758
1226,1426.000,12.941729858300278,1558.2910751416998
1227,1427.000,13.507930937852507,1558.4870450621474
1228,1428.000,17.869963054457685,1558.6802789455423
1229,1429.000,16.32003251615356,1558.8707754838465
1230,1430.000,20.76562161936704,1559.058533380633
1231,1431.000,24.65377764884488,1559.243551351155
1232,1432.000,29.89436687757984,1559.4258281224202
1233,1433.000,30.224795566732837,1559.6053624332671
1234,1434.000,30.04723196556688,1559.7821530344331
1235,1435.000,35.59093731135704,1559.9561986886429
1236,1436.000,47.12600482933749,1560.1274981706624
1237,1437.000,46.03147073259811,1560.2960502674018
1238,1438.000,47.93537722202609,1560.4618537779738
1239,1439.000,55.196241486235294,1560.6249075137648
1240,1440.000,71.61237370145886,1560.7852102985412
1241,1441.000,83.72369603150014,1560.9427609685
1242,1442.000,99.9935766276351,1561.0975583723648
1243,1443.000,105.4615526285429,1561.2496013714572
1244,1444.000,132.09326416021327,1561.3988888397867
1245,1445.000,140.74536833589104,1561.545419664109
1246,1446.000,161.45313825595122,1561.6891927440488
1247,1447.000,179.3769130078631,1561.830206992137
1248,1448.000,203.1743846660754,1561.9684613339246
1249,1449.000,218.35032629194507,1562.103954708055
1250,1450.000,216.44491593365092,1562.2366860663492
1251,1451.000,209.28244362610872,1562.3666543738914
1252,1452.000,191.0586653908856,1562.4938586091143
1253,1453.000,183.4935102361119,1562.6182977638882
1254,1454.000,160.72057915639948,1562.7399708436005
1255,1455.000,141.4892661327433,1562.8588768672566
1256,1456.000,120.2337891324521,1562.975014867548
1257,1457.000,102.0775101090378,1563.0883838909622
1258,1458.000,90.15600000213749,1563.1989829978625
1259,1459.000,82.86409173743027,1563.3068112625697
1260,1460.000,75.3196372265304,1563.4118677734696
1261,1461.000,60.771766366909105,1563.514151633091
1262,1462.000,55.20516204179512,1563.6136619582048
1263,1463.000,45.79825512007824,1563.7103978799219
1264,1464.000,40.79968145623093,1563.804358543769
1265,1465.000,28.924465890206648,1563.8955431097934
1266,1466.000,38.05795524732821,1563.9839507526717
1267,1467.000,32.9537993382246,1564.0695806617755
1268,1468.000,34.988769958714556,1564.1524320412855
1269,1469.000,20.341502889706362,1564.2325041102936
1270,1470.000,22.38629589711195,1564.309796102888
1271,1471.000,14.265949731749743,1564.3843072682503
1272,1472.000,19.28176212923472,1564.4560368707653
1273,1473.000,15.600095809882305,1564.5249841901177
1274,1474.000,18.861998478622127,1564.5911485213778
1275,1475.000,12.834891824873239,1564.6545291751268
1276,1476.000,16.311639522461064,1564.715125477539
1277,1477.000,8.710371229522252,1564.7729367704778
1278,1478.000,14.121785588365128,1564.8279624116349
1279,1479.000,8.08380222541382,1564.880201774586
1280,1480.000,6.558746751064518,1564.9296542489355
1281,1481.000,8.937005759606109,1564.9763192403939
1282,1482.000,9.951992829101528,1565.0201961708985
1283,1483.000,0.0,1565.0612844787056
1284,1484.000,0.0,1565.0995836185257
1285,1485.000,7.3608089384049435,1565.135093061595
1286,1486.000,5.499689704199454,1565.1678122958006
1287,1487.000,0.0,1565.1977408258035
1288,1488.000,0.0,1565.2248781731187
1289,1489.000,0.2595021237484616,1565.2492238762516
1290,1490.000,6.270827509202718,1565.2707774907972
1291,1491.000,5.308619410452366,1565.2895385895476
1292,1492.000,9.710469237378447,1565.3055067626215
1293,1493.000,10.418423382446917,1565.318681617553
1294,1494.000,17.1524292205645,1565.3290627794354
1295,1495.000,0.0,1565.3366498910063
1296,1496.000,2.737884387219765,1565.3414426127802
1297,1497.000,8.980356376838245,1565.3434406231618
1298,1498.000,0.0,1565.3426436185687
1299,1499.000,0.0,1565.3390513135296
1300,1500.000,3.4644725591776933,1565.3326634408222
1301,1501.000,8.554875248416238,1565.3234797515838
1302,1502.000,9.348186984559334,1565.3115000154407
1303,1503.000,0.0,1565.2967240206067
1304,1504.000,0.0,1565.2791515740291
1305,1505.000,1.1830534985065242,1565.2587825014934
1306,1506.000,0.0,1565.2356166477516
1307,1507.000,3.4549451233422133,1565.2096538766577
1308,1508.000,2.2858049287278845,1565.1808940712722
1309,1509.000,11.695106866007109,1565.149337133993
1310,1510.000,1.020389013313661,1565.1149829866863
1311,1511.000,2.3990874291814634,1565.0778315708185
1312,1512.000,1.7358401524390956,1565.037882847561
1313,1513.000,7.695171202052961,1564.995136797947
1314,1514.000,0.0,1564.9495934229649
1315,1515.000,3.449391256256604,1564.9012527437435
1316,1516.000,0.0,1564.8501148016053
1317,1517.000,0.0,1564.7961796582754
1318,1518.000,8.04161060405022,1564.7394473959498
1319,1519.000,4.237696882524006,1564.679918117476
1320,1520.000,9.328060053547006,1564.617591946453
1321,1521.000,2.691467972618966,1564.552469027381
1322,1522.000,5.013180474204546,1564.4845495257955
1323,1523.000,2.0484923716023786,1564.4138336283977
1324,1524.000,4.610663456804559,1564.3403215431954
1325,1525.000,0.0,1564.264013499635
1326,1526.000,11.34469225125622,1564.1849097487438
1327,1527.000,0.0,1564.1030105632722
1328,1528.000,11.471079762174213,1564.0183162378257
1329,1529.000,0.4061979109976619,1563.9308270890024
1330,1530.000,6.719299544452042,1563.840543455548
1331,1531.000,2.527221301526424,1563.7474656984737
1332,1532.000,4.420230798758439,1563.6515942012416
1333,1533.000,10.613175630152227,1563.5529293698478
1334,1534.000,2.8526773669746035,1563.4514716330254
1335,1535.000,0.0,1563.3472214423468
1336,1536.000,3.659859727602452,1563.2401792723977
1337,1537.000,6.191296379093956,1563.1303456209062
1338,1538.000,0.0,1563.0177210088927
1339,1539.000,8.410085019178496,1562.9023059808214
1340,1540.000,9.254720895241007,1562.784101104759
1341,1541.000,0.0,1562.663106972499
1342,1542.000,2.329753800255503,1562.5393241997444
1343,1543.000,8.264463573771536,1562.4127534262284
1344,1544.000,0.0,1562.283395315882
1345,1545.000,1.4463154430000031,1562.151250557
1346,1546.000,2.187542137642822,1562.0163198623572
1347,1547.000,7.754703030592282,1561.8786039694078
1348,1548.000,11.325050359598663,1561.7381036404013
1349,1549.000,4.938896337425376,1561.5948196625745
1350,1550.000,5.860347151732185,1561.4487528482678
1351,1551.000,11.338941964874039,1561.299904035126
1352,1552.000,9.514338913767006,1561.148274086233
1353,1553.000,6.153203109737888,1560.9938638902622
1354,1554.000,15.147438638336098,1560.8366743616639
1355,1555.000,0.0,1560.6767064408095
1356,1556.000,9.403631905850716,1560.5139610941492
1357,1557.000,6.718491685609706,1560.3484393143904
1358,1558.000,6.988382879345409,1560.1801421206546
1359,1559.000,11.967206441373719,1560.0090705586263
1360,1560.000,11.967808299245007,1559.835225700755
1361,1561.000,27.284181353622444,1559.6586086463776
1362,1562.000,17.77006147808629,1559.4792205219137
1363,1563.000,17.37775051896506,1559.297062481035
1364,1564.000,26.554003295183065,1559.1121357048169
1365,1565.000,24.52414959808243,1558.9244414019176
1366,1566.000,9.515445191251047,1558.733980808749
1367,1567.000,23.50684081033728,1558.5407551896628
1368,1568.000,29.829246162932577,1558.3447658370674
1369,1569.000,24.97544492832276,1558.1460140716772
1370,1570.000,33.97160675736404,1557.9445012426359
1371,1571.000,33.918715272291365,1557.7402287277087
1372,1572.000,44.12551906655494,1557.533197933445
1373,1573.000,38.739251704619846,1557.3234102953802
1374,1574.000,44.782346721825206,1557.1108672781747
1375,1575.000,62.90685762416206,1556.895570375838
1376,1576.000,79.81121788813061,1556.6775211118693
1377,1577.000,101.78565896054192,1556.456721039458
1378,1578.000,111.46901625834766,1556.2331717416523
1379,1579.000,131.92969016844017,1556.0068748315598
1380,1580.000,168.3553350474981,1555.7778319525019
1381,1581.000,190.19856622177258,1555.5460447782275
1382,1582.000,222.55617898692572,1555.3115150130743
1383,1583.000,221.45918960783638,1555.0742443921636
1384,1584.000,205.65941331840418,1554.8342346815957
1385,1585.000,196.0165093213932,1554.5914876786069
1386,1586.000,173.81682978819936,1554.3460052118007
1387,1587.000,150.9190018587119,1554.097789141288
1388,1588.000,138.34615064107925,1553.8468413589208
1389,1589.000,127.71801321153453,1553.5931637884655
1390,1590.000,124.12815761422053,1553.3367583857794
1391,1591.000,121.59450286097899,1553.077627139021
1392,1592.000,131.3344099311605,1552.8157720688396
1393,1593.000,140.8912347714263,1552.5511952285738
1394,1594.000,155.37905829556212,1552.283898704438
1395,1595.000,179.31787438427978,1552.0138846157201
1396,1596.000,201.12231488502198,1551.741155114978
1397,1597.000,250.15180261175192,1551.465712388248
1398,1598.000,319.8582143447759,1551.1875586552242
1399,1599.000,410.67515283051875,1550.9066961694812
1400,1600.000,497.23942878134494,1550.623127218655
1401,1601.000,588.8463318753538,1550.3368541246464
1402,1602.000,627.710761756156,1550.047879243844
1403,1603.000,600.5929900326978,1549.756204967302
1404,1604.000,502.3458652790405,1549.4618337209595
1405,1605.000,398.1303670341679,1549.1647679658322
1406,1606.000,320.7245908017587,1548.8650101982412
1407,1607.000,247.13068305000093,1548.5625629499991
1408,1608.000,192.64871021137128,1548.2574287886287
1409,1609.000,162.55725868244303,1547.949610317557
1410,1610.000,121.56889282365023,1547.6391101763497
1411,1611.000,106.11302795909478,1547.3259310409053
1412,1612.000,88.4057003763321,1547.010075623668
1413,1613.000,79.90859032615526,1546.6915466738446
1414,1614.000,57.05932902238396,1546.370346977616
1415,1615.000,47.55505664165253,1546.0464793583474
1416,1616.000,45.87671532319291,1545.719946676807
1417,1617.000,40.71802816860054,1545.3907518313995
1418,1618.000,37.714691241647415,1545.0588977583525
1419,1619.000,31.112700568040736,1544.7243874319593
1420,1620.000,32.39578413523054,1544.3872238647696
1421,1621.000,30.921720892150688,1544.0474101078494
1422,1622.000,25.54261974901783,1543.7049492509823
1423,1623.000,15.676154577124407,1543.3598444228755
1424,1624.000,26.823801208581244,1543.0120987914188
1425,1625.000,9.091945436132164,1542.6617155638678
1426,1626.000,15.44393201289995,1542.3086979871
1427,1627.000,20.595276652164557,1541.9530493478355
1428,1628.000,10.402506027149457,1541.5947729728505
1429,1629.000,20.66813177078211,1541.233872229218
1430,1630.000,23.38360047547235,1540.8703505245276
1431,1631.000,20.485467692865086,1540.504211307135
1432,1632.000,12.893042933648076,1540.135458066352
1433,1633.000,15.418919667260752,1539.7640943327392
1434,1634.000,5.858780321727409,1539.3901236782726
1435,1635.000,10.697708283371185,1539.0135497166289
1436,1636.000,10.47712589661137,1538.6343761033886
1437,1637.000,7.816644463700413,1538.2526065362995
1438,1638.000,7.7208732445271835,1537.868244755473
1439,1639.000,5.139929456325262,1537.4812945436747
1440,1640.000,0.0,1537.091759726523
1441,1641.000,8.010569827262543,1536.6996441727374
1442,1642.000,7.163470205620797,1536.3049517943791
1443,1643.000,17.21977345288201,1535.907686547118
1444,1644.000,8.94698556956655,1535.5078524304336
1445,1645.000,4.847122512114083,1535.1054534878858
1446,1646.000,9.412377192643135,1534.700493807357
1447,1647.000,7.689617478707987,1534.292977521292
1448,1648.000,3.6678881930627085,1533.8829088069374
1449,1649.000,1.3031151133811818,1533.4702918866187
1450,1650.000,0.0,1533.0551310279538
1451,1651.000,3.96008945587414,1532.637430544126
1452,1652.000,12.768734205876171,1532.2171947941238
1453,1653.000,0.0,1531.7944281830028
1454,1654.000,0.0,1531.3691351621146
1455,1655.000,7.180422770596806,1530.9413202294031
1456,1656.000,3.706559070389403,1530.5109879296106
1457,1657.000,4.953762145411247,1530.0781428545888
1458,1658.000,0.0,1529.6427896434839
1459,1659.000,0.0,1529.2049329830725
1460,1660.000,5.187114392042076,1528.764577607958
1461,1661.000,5.608155699125973,1528.321728300874
1462,1662.000,3.7825761070776025,1527.8763898929224
1463,1663.000,0.0,1527.428567263828
1464,1664.000,5.11254965776061,1526.9782653422394
1465,1665.000,0.0,1526.5254891059462
1466,1666.000,0.0,1526.0702435821786
1467,1667.000,0.0,1525.6125338478537
1468,1668.000,10.294342970140406,1525.1523650298595
1469,1669.000,0.0,1524.6897423053128
1470,1670.000,1.9400720981745962,1524.2246709018254
1471,1671.000,0.0,1523.7571560977872
1472,1672.000,8.092170777382307,1523.2872032226178
1473,1673.000,4.292703342933692,1522.8148176570662
1474,1674.000,0.0,1522.3400048334624
1475,1675.000,0.0,1521.862770236005
1476,1676.000,11.381407598984197,1521.3831194010158
1477,1677.000,0.0,1520.9010579172545
1478,1678.000,12.445080573836094,1520.416591426164
1479,1679.000,0.0,1519.929725622159
1480,1680.000,0.0,1519.4404662529073
1481,1681.000,8.045204880384972,1518.948819119615
1482,1682.000,4.421468922698523,1518.4547900773014
1483,1683.000,5.495129964910802,1517.9583850350891
1484,1684.000,0.0,1517.4596099564747
1485,1685.000,0.14339314035282769,1516.9584708596472
1486,1686.000,7.155821182295767,1516.4549738177043
1487,1687.000,0.0,1515.949124959057
1488,1688.000,0.0,1515.440930467581
1489,1689.000,6.890579416976834,1514.9303965830231
1490,1690.000,0.0,1514.4175296012118
1491,1691.000,9.11477412560248,1513.9023358743975
1492,1692.000,0.0,1513.3848218115181
1493,1693.000,0.0,1512.8649938785138
1494,1694.000,0.028391401399176175,1512.3428585986007
1495,1695.000,0.0,1511.818422552598
1496,1696.000,8.622679620813187,1511.2916923791868
1497,1697.000,0.0,1510.7626747752242
1498,1698.000,0.4575275039328517,1510.2313764960672
1499,1699.000,10.429117644149756,1509.6978043558502
1500,1700.000,2.3776917722400412,1509.16196522776
1501,1701.000,7.082160955598965,1508.623866044401
1502,1702.000,3.760139201943275,1508.0835137980566
1503,1703.000,6.411016458998802,1507.5409155410011
1504,1704.000,3.477701614179523,1506.9960783858205
1505,1705.000,8.770923494311546,1506.4490095056885
1506,1706.000,0.6285918652965847,1505.8997161347033
1507,1707.000,4.688777431796552,1505.3482055682034
1508,1708.000,0.0,1504.7944851630364
1509,1709.000,9.11338866206006,1504.23856233794
1510,1710.000,0.0,1503.6804445737653
1511,1711.000,3.200854586118794,1503.1201394138811
1512,1712.000,4.292695535592202,1502.5576544644077
1513,1713.000,4.221310605391409,1501.9929973946087
1514,1714.000,2.170960062835775,1501.4261759371643
1515,1715.000,10.28950811151708,1500.857197888483
1516,1716.000,14.986030890949223,1500.2860711090507
1517,1717.000,0.0,1499.7128035237247
1518,1718.000,0.0,1499.1374031220917
1519,1719.000,0.0,1498.5598779587508
1520,1720.000,0.0,1497.9802361536617
1521,1721.000,1.721730107536814,1497.3984858924632
1522,1722.000,2.2532805732003,1496.8146354267997
1523,1723.000,9.101342925356903,1496.2286930746432
1524,1724.000,0.12285477934642586,1495.6406672206535
1525,1725.000,2.5116836835550203,1495.050566316445
1526,1726.000,3.443692119001298,1494.4583988809986
1527,1727.000,0.0,1493.8641735009196
1528,1728.000,0.983629169162441,1493.2678988308376
1529,1729.000,19.474480406335715,1492.6695835936644
1530,1730.000,2.4420224189773307,1492.0692365810228
1531,1731.000,0.0,1491.4668666534958
1532,1732.000,0.0,1490.8624827410117
1533,1733.000,9.382658156802108,1490.256093843198
1534,1734.000,1.2802739703224688,1489.6477090296776
1535,1735.000,0.0,1489.037337440429
1536,1736.000,17.99298271384646,1488.4249882861536
1537,1737.000,11.975295151415594,1487.8106708485843
1538,1738.000,0.0,1487.194394480844
1539,1739.000,1.413999392195592,1486.5761686078044
1540,1740.000,9.544716273576569,1485.9560027264233
1541,1741.000,8.625871593928878,1485.333906406071
1542,1742.000,0.0,1484.7098892889303
1543,1743.000,14.394586909678765,1484.0839610903213
1544,1744.000,14.897857400983185,1483.4561315990168
1545,1745.000,0.0,1482.8264106776655
1546,1746.000,0.0,1482.194808263092
1547,1747.000,0.0,1481.5613343667142
1548,1748.000,8.035869925188535,1480.9259990748114
1549,1749.000,10.567334451055558,1480.2888125489444
1550,1750.000,5.262144973675504,1479.6497850263245
1551,1751.000,0.6436481798591558,1479.008926820141
1552,1752.000,3.7186876800917616,1478.3662483199082
1553,1753.000,7.721634008104047,1477.7217599918959
1554,1754.000,0.0,1477.0754723794312
1555,1755.000,0.0,1476.4273961032804
1556,1756.000,4.011982137946916,1475.777541862053
1557,1757.000,11.991349567501175,1475.1259204324988
1558,1758.000,5.796688330063034,1474.472542669937
1559,1759.000,5.879876491398363,1473.8174195086017
1560,1760.000,0.7333660379813409,1473.1605619620186
1561,1761.000,10.364315876610817,1472.5019811233892
1562,1762.000,0.0,1471.8416881659386
1563,1763.000,4.582092656689838,1471.17969434331
1564,1764.000,1.4765110100624952,1470.5160109899375
1565,1765.000,4.176491478574462,1469.8506495214256
1566,1766.000,0.0,1469.1836214349341
1567,1767.000,9.721106690469242,1468.5149383095309
1568,1768.000,4.826804193393173,1467.8446118066067
1569,1769.000,1.7762583297492256,1467.1726536702508
1570,1770.000,8.47496227238048,1466.4990757276196
1571,1771.000,5.172002110666199,1465.8238898893337
1572,1772.000,2.430477850133002,1465.147108149867
1573,1773.000,2.071720412089462,1464.4687425879106
1574,1774.000,10.348114633187379,1463.7888053668125
1575,1775.000,0.10911426507686883,1463.1073087349232
1576,1776.000,4.476814974018453,1462.4242650259816
1577,1777.000,4.266397340448293,1461.7396866595518
1578,1778.000,7.82471885860582,1461.0535861413941
1579,1779.000,4.8516099361684155,1460.3659760638316
1580,1780.000,19.02049789379612,1459.6768691062039
1581,1781.000,0.0,1458.986278035205
1582,1782.000,9.772681294650965,1458.294215705349
1583,1783.000,6.091837940714413,1457.6006950592855
1584,1784.000,13.008643871683944,1456.9057291283161
1585,1785.000,0.0,1456.209331032655
1586,1786.000,13.794823018040915,1455.511513981959
1587,1787.000,0.0,1454.8122912756812
1588,1788.000,10.77778369655448,1454.1116763034456
1589,1789.000,9.771054454480009,1453.40968254552
1590,1790.000,6.957555426798763,1452.7063235732012
1591,1791.000,2.419886950817272,1452.0016130491827
1592,1792.000,2.0143682719776734,1451.2955647280223
1593,1793.000,7.570369543446759,1450.5881924565533
1594,1794.000,2.5469828257550944,1449.8795101742448
1595,1795.000,0.0,1449.1695319136816
1596,1796.000,0.0,1448.4582718009392
1597,1797.000,12.068089943972609,1447.7457440560274
1598,1798.000,12.288197006713517,1447.0319629932865
1599,1799.000,10.518681978177256,1446.3169430218227
1600,1800.000,7.790983354047512,1445.6006986459524
1601,1801.000,9.8659855344481,1444.8832444655518
1602,1802.000,10.632107823422302,1444.1645951765777
1603,1803.000,9.24939842857566,1443.4447655714243
1604,1804.000,3.065643460617821,1442.7237705393823
1605,1805.000,3.4942689329502628,1442.0016250670496
1606,1806.000,1.0580577612290654,1441.2783442387708
1607,1807.000,8.954271762909912,1440.5539432370902
1608,1808.000,2.171885656877066,1439.828437343123
1609,1809.000,7.240989062926019,1439.101841937074
1610,1810.000,16.1596315014051,1438.3741724985948
1611,1811.000,6.087071392760208,1437.6454446072398
1612,1812.000,14.24729705701634,1436.9156739429836
1613,1813.000,17.850182713498953,1436.184876286501
1614,1814.000,0.0,1435.4530675197952
1615,1815.000,0.03804037351483203,1434.7202636264851
1616,1816.000,11.558059307688609,1433.9864806923115
1617,1817.000,4.539507094393002,1433.251734905607
1618,1818.000,12.077735442304856,1432.516042557695
1619,1819.000,13.185878956662691,1431.7794200433373
1620,1820.000,5.933840138751293,1431.0418838612486
1621,1821.000,14.04928038554226,1430.3034506144577
1622,1822.000,19.627454989186162,1429.5641370108137
1623,1823.000,14.975497136562808,1428.8239598634373
1624,1824.000,4.0631959088789245,1428.0829360911212
1625,1825.000,8.512934281105572,1427.3410827188945
1626,1826.000,6.238545121674406,1426.5984168783257
1627,1827.000,18.93934319186451,1425.8549558081354
1628,1828.000,8.44441614544462,1425.1107168545554
1629,1829.000,5.533870528169018,1424.365717471831
1630,1830.000,10.02639077734284,1423.619975222657
1631,1831.000,12.902712221335833,1422.8735077786641
1632,1832.000,7.633026079104411,1422.1263329208955
1633,1833.000,10.596031459790765,1421.3784685402093
1634,1834.000,10.030852362165206,1420.6299326378348
1635,1835.000,14.527141674242557,1419.8807433257575
1636,1836.000,16.006321172731077,1419.130918827269
1637,1837.000,11.877810522651998,1418.380477477348
1638,1838.000,7.497824276770643,1417.6294377232293
1639,1839.000,12.803464875188638,1416.8778181248113
1640,1840.000,5.083467644844859,1416.125637355155
1641,1841.000,16.946107799066567,1415.3729142009333
1642,1842.000,12.657934437015456,1414.6196675629844
1643,1843.000,12.09794254330609,1413.8659164566939
1644,1844.000,0.0,1413.1116800125478
1645,1845.000,24.971713523405242,1412.3569774765947
1646,1846.000,19.549297789090133,1411.6018282109098
1647,1847.000,18.508304305903266,1410.8462516940967
1648,1848.000,11.71428747820778,1410.0902675217922
1649,1849.000,15.048817592898558,1409.3338954071014
1650,1850.000,28.226577818830947,1408.577155181169
1651,1851.000,7.055444206411039,1407.820066793589
1652,1852.000,15.698746687077573,1407.0626503129224
1653,1853.000,14.899934072773021,1406.304925927227
1654,1854.000,12.203319055482325,1405.5469139445177
1655,1855.000,13.542847206742863,1404.7886347932572
1656,1856.000,5.608328977121801,1404.0301090228782
1657,1857.000,15.440150695727652,1403.2713573042724
1658,1858.000,3.7591075697316683,1402.5124004302684
1659,1859.000,22.677614683809907,1401.75325931619
1660,1860.000,16.543052999694055,1400.993955000306
1661,1861.000,6.694541355647971,1400.234508644352
1662,1862.000,0.0,1399.4749415340275
1663,1863.000,12.542680920454586,1398.7152750795453
1664,1864.000,15.01249818389283,1397.955530816107
1665,1865.000,6.048818595604189,1397.1957304043958
1666,1866.000,22.134890368882907,1396.435895631117
1667,1867.000,13.75966459049664,1395.6760484095034
1668,1868.000,9.395787220128796,1394.916210779871
1669,1869.000,3.84982608999303,1394.156404910007
1670,1870.000,11.553788904130897,1393.3966530958692
1671,1871.000,11.127067238049676,1392.6369777619502
1672,1872.000,16.264385538103852,1391.8774014618962
1673,1873.000,18.69622112101274,1391.1179468789874
1674,1874.000,12.622094173359528,1390.3586368266406
1675,1875.000,15.23882775099446,1389.5994942490056
1676,1876.000,21.054025778616733,1388.8405422213832
1677,1877.000,16.245490049117734,1388.0818039508822
1678,1878.000,11.018599223153842,1387.323302776846
1679,1879.000,16.309683828564175,1386.5650621714358
1680,1880.000,9.491368259872388,1385.8071057401276
1681,1881.000,15.358059777719973,1385.0494572222801
1682,1882.000,12.975844508343926,1384.292140491656
1683,1883.000,6.103179443038698,1383.5351795569613
1684,1884.000,16.335094437645466,1382.7785985623545
1685,1885.000,13.236027211946293,1382.0224217880536
1686,1886.000,17.139107349205915,1381.266673650794
1687,1887.000,4.800639295565361,1380.5113787044347
1688,1888.000,19.425272359535484,1379.7565616404645
1689,1889.000,19.695656711426636,1379.0022472885735
1690,1890.000,10.691058382797564,1378.2484606172025
1691,1891.000,12.213174265972384,1377.4952267340277
1692,1892.000,13.093546113371985,1376.742570886628
1693,1893.000,12.681996537115765,1375.9905184628842
1694,1894.000,17.819400008301045,1375.239094991699
1695,1895.000,8.52292485658245,1374.4883261434175
1696,1896.000,5.900698269556642,1373.7382377304434
1697,1897.000,11.333275292210601,1372.9888557077893
1698,1898.000,24.168985826366225,1372.2402061736339
1699,1899.000,10.425763630130405,1371.4923153698696
1700,1900.000,6.746964317316269,1370.7452096826837
1701,1901.000,7.213090356878865,1369.998915643121
1702,1902.000,13.708437072397146,1369.2534599276028
1703,1903.000,19.745993641433643,1368.5088693585662
1704,1904.000,8.251714095010357,1367.7651709049896
1705,1905.000,13.693929317058291,1367.0223916829418
1706,1906.000,13.911788043782735,1366.2805589562172
1707,1907.000,15.40191486316121,1365.5397001368387
1708,1908.000,13.455574214342278,1364.7998427856578
1709,1909.000,18.870746387033478,1364.0610146129666
1710,1910.000,16.666393521001055,1363.3232434789988
1711,1911.000,8.828177605409337,1362.5865573945907
1712,1912.000,27.050242478324662,1361.8509845216754
1713,1913.000,4.2923558260524715,1361.1165531739475
1714,1914.000,4.534808182603911,1360.3832918173962
1715,1915.000,18.624379929120778,1359.6512290708793
1716,1916.000,13.498586293254448,1358.9203937067455
1717,1917.000,10.858058348582063,1358.190814651418
1718,1918.000,13.515919014056408,1357.4625209859437
1719,1919.000,16.391160053388376,1356.7355419466116
1720,1920.000,9.69432807440694,1356.009906925593
1721,1921.000,8.37888452859761,1355.2856454714024
1722,1922.000,5.852805710341045,1354.562787289659
1723,1923.000,6.925882756479041,1353.841362243521
1724,1924.000,7.244595645570371,1353.1214003544296
1725,1925.000,18.866583197409,1352.402931802591
1726,1926.000,13.614009072343151,1351.6859869276568
1727,1927.000,15.147042770729968,1350.97059622927
1728,1928.000,8.447256632275867,1350.256790367724
1729,1929.000,18.058080835485953,1349.5446001645141
1730,1930.000,2.3409423970063017,1348.8340566029938
1731,1931.000,14.488148171069497,1348.1251908289305
1732,1932.000,15.744197848817976,1347.418034151182
1733,1933.000,8.031390957778058,1346.712618042222
1734,1934.000,5.277792861155831,1346.0089741388442
1735,1935.000,14.482211757274854,1345.3071342427252
1736,1936.000,7.024308678963052,1344.607130321037
1737,1937.000,5.834552492889998,1343.90899450711
1738,1938.000,10.991638899026157,1343.212759100974
1739,1939.000,4.326083429936716,1342.5184565700633
1740,1940.000,10.134928450212328,1341.8261195497876
1741,1941.000,23.029183155798364,1341.1357808442017
1742,1942.000,8.158320573457559,1340.4474734265425
1743,1943.000,16.13739656003395,1339.761230439966
1744,1944.000,4.279401801881022,1339.077085198119
1745,1945.000,11.004171814256779,1338.3950711857433
1746,1946.000,8.778163940622107,1337.715222059378
1747,1947.000,9.301319352073506,1337.0375716479266
1748,1948.000,14.742091046644418,1336.3621539533556
1749,1949.000,22.98623184875055,1335.6890031512494
1750,1950.000,9.221298408454231,1335.0181535915458
1751,1951.000,17.696474200910643,1334.3496397990893
1752,1952.000,11.856987525662134,1333.683496474338
1753,1953.000,14.056871506057632,1333.0197584939424
1754,1954.000,6.706236088526339,1332.3584609114737
1755,1955.000,5.15265804202636,1331.6996389579735
1756,1956.000,8.061246957303638,1331.0433280426964
1757,1957.000,4.500362246312079,1330.389563753688
1758,1958.000,8.945735141535351,1329.7383818584647
1759,1959.000,2.5313906953404057,1329.0898183046595
1760,1960.000,8.758038779297294,1328.4439092207026
1761,1961.000,9.646420083557587,1327.8006909164424
1762,1962.000,19.33834311619671,1327.1601998838032
1763,1963.000,18.640074202524374,1326.5224727974755
1764,1964.000,11.207956484451415,1325.8875465155486
1765,1965.000,4.982605919789648,1325.2554580802102
1766,1966.000,11.48904528167941,1324.6262447183205
1767,1967.000,12.583543157779104,1323.999943842221
1768,1968.000,6.345244949739481,1323.3765930502605
1769,1969.000,2.2626148724502855,1322.7562301275498
1770,1970.000,0.0,1322.138893046615
1771,1971.000,6.781687031963429,1321.5246199680366
1772,1972.000,18.369011758836905,1320.913449241163
1773,1973.000,5.418626595213709,1320.3054194047863
1774,1974.000,8.78910881222373,1319.7005691877762
1775,1975.000,8.481761490206281,1319.0989375097938
1776,1976.000,9.007599518015468,1318.5005634819845
1777,1977.000,10.549581592378445,1317.9054864076215
1778,1978.000,0.0,1317.3137457828257
1779,1979.000,4.609813702799556,1316.7253812972006
1780,1980.000,7.569846165414674,1316.1404328345852
1781,1981.000,4.565214526322734,1315.5589404736772
1782,1982.000,12.186677511183916,1314.980944488816
1783,1983.000,2.449145649477032,1314.4064853505229
1784,1984.000,9.99842927364034,1313.8356037263597
1785,1985.000,14.844310518490147,1313.2683404815098
1786,1986.000,2.511010320458354,1312.7047366795416
1787,1987.000,3.977450416949978,1312.14483358305
1788,1988.000,1.8204583455944885,1311.5886726544054
1789,1989.000,7.93846344355984,1311.03629555644
1790,1990.000,0.0,1310.4877441531175
1791,1991.000,0.0,1309.9430605103094
1792,1992.000,0.846822103598015,1309.402286896402
1793,1993.000,7.595041216850632,1308.8654657831494
1794,1994.000,5.655538153825091,1308.332639846175
1795,1995.000,0.0,1307.8038519659463
1796,1996.000,11.221863771776725,1307.2791452282233
1797,1997.000,1.984158075040341,1306.7585629249597
1798,1998.000,0.0,1306.2421485549544
1799,1999.000,3.951713175448049,1305.729945824552
1800,2000.000,8.314785351606133,1305.2219986483938
