pixel_index,raman_shift_cm-1,corrected_intensity,background_intensity
0,-224.57104316264642,1669.5553565819603,-973.5553565819603
1,-221.50432425699708,1655.7229430287261,-949.7229430287263
2,-218.43881032042367,1623.9721567045615,-925.9721567045615
3,-215.37450076891196,1597.3027594463501,-902.30275944635
4,-212.31139501879912,1597.7145134177395,-878.7145134177396
5,-209.2494924868125,1551.2071811093406,-855.2071811093407
6,-206.18879259000485,1536.7805253389279,-831.7805253389279
7,-203.12929474581696,1511.4343092516392,-808.4343092516391
8,-200.07099837203447,1496.168296320177,-785.168296320177
9,-197.01390288680722,1464.9822503450082,-761.9822503450081
10,-193.95800770865156,1454.8759354545637,-738.8759354545638
11,-190.90331225643519,1429.8491161054405,-715.8491161054405
12,-187.84981594939433,1387.9015570826,-692.9015570825999
13,-184.79751820710354,1376.0330234995686,-670.0330234995686
14,-181.74641844952546,1346.2432807986395,-647.2432807986395
15,-178.69651609695023,1320.5320947510709,-624.5320947510709
16,-175.64781057006041,1303.8992314572881,-601.8992314572881
17,-172.6003012898639,1284.3444573470822,-579.3444573470822
18,-169.55398767774147,1258.8675391798115,-556.8675391798115
19,-166.50886915543393,1232.4682440446009,-534.4682440446009
20,-163.4649451450333,1213.1463393605432,-512.1463393605432
21,-160.42221506898943,1184.9015928768981,-489.901592876898
22,-157.3806783501143,1166.7337726732933,-467.73377267329334
23,-154.3403344115668,1152.642647159925,-445.642647159925
24,-151.3011826768701,1126.6279850777573,-423.62798507775744
25,-148.26322256989658,1106.6895554987232,-401.6895554987233
26,-145.22645351487628,1082.8271278259244,-379.8271278259243
27,-142.19087493639498,1063.0404717938313,-358.04047179383133
28,-139.15648625939178,1042.3293574684844,-336.32935746848455
29,-136.12328690915933,1021.6935552476939,-314.6935552476939
30,-133.09127631134805,997.1328358612391,-293.1328358612391
31,-130.06045389197044,973.6469703710703,-271.6469703710703
32,-127.0308190773708,959.2357301715078,-250.23573017150784
33,-124.00237129425771,930.898886989443,-228.89888698944299
34,-120.97510996970625,909.6362128845376,-207.6362128845376
35,-117.94903453112319,883.4474802494252,-186.4474802494252
36,-114.92414440627965,865.3324618099107,-165.33246180991068
37,-111.90043902329803,854.2909306251705,-144.29093062517052
38,-108.8779178106498,818.3226600879535,-123.32266008795352
39,-105.85658019715777,799.4274239247806,-102.42742392478056
40,-102.83642561200682,767.6049961961452,-81.60499619614518
41,-99.81745348471146,755.8551512967136,-60.85515129671364
42,-96.79966324516133,739.1776639555252,-40.17766395552519
43,-93.78305432357782,723.5723092361928,-19.572309236192837
44,-90.76762615054446,702.0388625371027,0.9611374628973408
45,-87.7533781569917,676.577099591615,21.422900408384976
46,-84.74030977419265,657.1867964682641,41.813203531735894
47,-81.72842043378901,640.8677295709588,62.13227042904123
48,-78.71770956774122,620.6196756391823,82.38032436081767
49,-75.70817660838705,593.4424117481931,102.55758825180692
50,-72.69982098840688,562.3357153092247,122.66428469077528
51,-69.69264214082152,550.2993640696857,142.70063593031432
52,-66.68663949899873,537.3331361133612,162.6668638866388
53,-63.68181249665969,521.4368098606112,182.56319013938878
54,-60.67816056788342,500.61016406857334,202.38983593142666
55,-57.67568314707415,480.8529778313605,222.14702216863952
56,-54.674379669004786,456.16503058026274,241.83496941973726
57,-51.67424956877345,435.5461020839475,261.4538979160525
58,-48.67529228184042,424.99597244865936,281.00402755134064
59,-45.67750724401506,408.5144221184198,300.4855778815802
60,-42.68089389143854,379.1012318752287,319.8987681247713
61,-39.685451660609765,359.7561828392643,339.2438171607357
62,-36.691179988365946,339.4790564690825,358.5209435309175
63,-33.698078311893404,320.2696345618183,377.7303654381817
64,-30.706146068727563,317.12769925338534,396.87230074661466
65,-27.715382696735617,303.0530330186764,415.9469669813236
66,-24.725787634138214,290.04541867176385,434.95458132823615
67,-21.737360319505107,265.1046393660995,453.8953606339005
68,-18.75010019172915,228.23047859471535,472.76952140528465
69,-15.764006690080489,204.4227201904232,491.5772798095768
70,-12.779079254139365,192.68114832601532,510.3188516739847
71,-9.795317323852467,175.00554751446498,528.994452485535
72,-6.812720339498258,165.3957026091266,547.6042973908734
73,-3.8312877416934663,147.8513988039349,566.1486011960651
74,-0.8510189714082752,107.37242163360725,584.6275783663928
75,2.128086530051032,96.95855697384263,603.0414430261574
76,5.106029321037733,74.60959104152084,621.3904089584792
77,8.08280995955599,60.3253103949055,639.6746896050945
78,11.058429003276034,55.10550193384165,657.8944980661583
79,14.032887009529823,38.949952899958134,676.0500471000419
80,17.006184535298033,21.858450876865618,694.1415491231344
81,19.978322137229576,0.0,712.1692162096406
82,22.949300371626418,0.0,730.1332600913822
83,25.919119794460926,0.0,748.0338921575976
84,28.88778096135202,0.0,765.8713234547395
85,31.85528442759336,0.0,783.645764686278
86,34.82163074813383,0.0,801.3574262124969
87,37.78682047757753,0.0,819.0065180502966
88,40.7508541701968,0.0,836.5932498729915
89,43.71373237991487,0.0,854.1178310101104
90,46.67545566034272,0.0,871.5804704471964
91,49.63602456472052,0.0,888.9813768256072
92,52.59543964598488,0.0,906.3207584423142
93,55.553701456699436,0.0,923.5988232497014
94,58.51081054911991,0.0,940.8157788553667
95,61.46676747514207,0.0,957.9718325219217
96,64.4215727863451,0.0,975.0671911667889
97,67.3752270339699,124.89793863799468,992.1020613620053
98,70.32773076890612,346.92335066598184,1009.0766493340182
99,73.27908454171161,602.0088390365117,1025.9911609634883
100,76.22928890262982,922.1541982149131,1042.845801785087
101,79.17834440154206,1155.3592230127024,1059.6407769872976
102,82.12625158801092,1337.6237085877858,1076.3762914122142
103,85.07301101125199,1382.9474504446578,1093.0525495553422
104,88.01862322015998,1464.330244434603,1109.669755565397
105,90.96308876328482,1541.7718867558945,1126.2281132441055
106,93.90640818885981,1477.2721739539973,1142.7278260460027
107,96.8485820447497,1491.830902921765,1159.169097078235
108,99.78961087852429,1514.4478708996419,1175.5521291003581
109,102.72949523739555,1467.1228754758629,1191.8771245241371
110,105.66823566825244,1452.855714586655,1208.144285413345
111,108.6058327176521,1496.646186516435,1224.353813483565
112,111.54228693181994,1508.4940898980115,1240.5059101019885
113,114.47759885663223,1364.3992237127857,1256.6007762872143
114,117.4117690376595,1406.3613872909502,1272.6386127090498
115,120.3447980201275,1423.3803803116905,1288.6196196883095
116,123.27668634892807,1390.4560028033832,1304.5439971966168
117,126.20743456862341,1382.5880551437992,1320.4119448562008
118,129.13704322345268,1378.7763380603012,1336.2236619396988
119,132.06551285731456,1354.0206526300474,1351.9793473699526
120,134.99284401378466,1400.3208002801869,1367.6791997198131
121,137.91903723610247,1287.6765827880647,1383.3234172119353
122,140.84409306718004,1343.0878022814188,1398.9121977185812
123,143.7680120496042,1270.5542612385818,1414.4457387614182
124,146.6907947256235,1428.0757624886817,1429.9242375113183
125,149.61244163716773,1273.6521092118403,1445.3478907881597
126,152.53295332582837,1245.283104939376,1460.716895060624
127,155.45233033287602,1266.968553554001,1476.031446445999
128,158.37057319924946,1332.708259290024,1491.291740709976
129,161.28768246555583,1220.50202673355,1506.49797326645
130,164.20365867208554,1199.3496608226808,1521.6503391773192
131,167.1185023587843,1174.2509668477117,1536.7490331522883
132,170.03221406528772,1161.2057504513389,1551.7942495486611
133,172.94479433089745,1192.2138176288524,1566.7861823711476
134,175.85624369458344,1202.2749747283417,1581.7250252716583
135,178.76656269499685,1157.3890284508918,1596.6109715491082
136,181.67575187046137,1205.555785850788,1611.444214149212
137,184.58381175896895,1245.7750543357104,1626.2249456642896
138,187.4907428981885,1201.0466416669412,1640.9533583330588
139,190.39654582546794,1135.370355959558,1655.629644040442
140,193.30122107782782,1125.7460056826387,1670.2539943173613
141,196.2047691919568,1202.173399659461,1684.826600340539
142,199.10719070422718,1141.6523470677005,1699.3476529322995
143,202.0084861506879,1078.1826574396343,1713.8173425603657
144,204.908656067052,1129.7641406623363,1728.2358593376637
145,207.80770098872014,1116.3966069778842,1742.6033930221158
146,210.70562145076136,1110.0798669835538,1756.9201330164462
147,213.60241798793444,1119.8137316320233,1771.1862683679767
148,216.49809113465133,1047.5980122315698,1785.4019877684302
149,219.39264142502475,1056.4325204462732,1799.5674795537268
150,222.2860693928356,1038.3170682962148,1813.6829317037852
151,225.1783755715395,1145.2514681576774,1827.7485318423226
152,228.0695604942582,1020.2355327633443,1841.7644672366557
153,230.95962469383375,1076.2690752025044,1855.7309247974956
154,233.84856870273296,985.3519089212466,1869.6480910787534
155,236.73639305312994,1053.4838477226629,1883.5161522773371
156,239.6230982768823,1083.66470576705,1897.33529423295
157,242.50868490551792,1006.8942975721054,1911.1057024278946
158,245.39315347022654,981.172438013132,1924.827561986868
159,248.27650450191157,1027.4989423232366,1938.5010576767634
160,251.15873853113385,1068.873626093529,1952.126373906471
161,254.03985608813545,942.2963052733251,1965.703694726675
162,256.91985770285055,1044.7667961703435,1979.2332038296565
163,259.7987439048751,1000.2849154509088,1992.7150845490912
164,262.6765152235035,936.8504801401507,2006.1495198598493
165,265.55317218770284,882.4633076222037,2019.5366923777963
166,268.42871532611497,967.1232156404092,2032.8767843595908
167,271.30314516708245,966.8300222975147,2046.1699777024853
168,274.17646223861163,916.5835460558719,2059.416453944128
169,277.04866706839033,895.383605737642,2072.616394262358
170,279.9197601838026,914.2300205249894,2085.7699794750106
171,282.7897421119074,869.1226099602882,2098.877390039712
172,285.65861337944256,922.0611939463188,2111.938806053681
173,288.5263745128295,851.04559274647,2124.95440725353
174,291.3930260381773,896.0756269849371,2137.924373015063
175,294.25856848128063,870.1511176469239,2150.848882353076
176,297.12300236760683,890.2718860788436,2163.7281139211564
177,299.98632822231946,913.4377539885172,2176.562246011483
178,302.8485465702549,897.6485434453743,2189.3514565546257
179,305.7096579359413,849.9040768806535,2202.0959231193465
180,308.56966284359066,799.204177087604,2214.795822912396
181,311.42856181710226,784.5486672216839,2227.451332778316
182,314.28635538004613,849.9373708007597,2240.0626291992403
183,317.1430440556929,792.3701117053106,2252.6298882946894
184,319.9986283669966,743.8467141786268,2265.153285821373
185,322.8531088365991,803.3670028270053,2277.6329971729947
186,325.7064859868105,765.9308026199578,2290.069197380042
187,328.55876033964375,835.5379388904048,2302.462061109595
188,331.4099324167974,719.1882373348799,2314.81176266512
189,334.2600027396556,803.8815240137283,2327.1184759862717
190,337.10897182928807,752.6176253513067,2339.3823746486933
191,339.95684020644154,763.3963681361838,2351.603631863816
192,342.80360839157413,800.2175795213416,2363.7824204786584
193,345.6492769048016,728.081087024374,2375.918912975626
194,348.49384626595753,713.9867185276898,2388.01328147231
195,351.33731699453756,752.9343022787098,2400.0656977212902
196,354.1796896097509,678.9236668900685,2412.0763331099315
197,357.0209646304727,670.9546413398139,2424.045358660186
198,359.86114257527703,748.0270549716079,2435.972945028392
199,362.7002239624255,694.1407374949285,2447.8592625050715
200,365.53820930988053,699.2955189852673,2459.7044810147327
201,368.375099135264,646.491229884331,2471.508770115669
202,371.2108939559204,651.7277010002408,2483.272298999759
203,374.0455942888754,673.0047635077335,2494.9952364922665
204,376.87920065083154,703.3222489483642,2506.677751051636
205,379.7117135581835,653.679989230699,2518.320010769301
206,382.54313352704395,613.0778166305245,2529.9221833694755
207,385.373461073181,634.515563791042,2541.484436208958
208,388.2026967120785,639.99306372307,2553.00693627693
209,391.0308409588929,641.5101498052436,2564.4898501947564
210,393.85789432848804,659.0666557842169,2575.933344215783
211,396.68385733541544,626.6624157748583,2587.3375842251417
212,399.5087304939143,638.2972642604573,2598.7027357395427
213,402.332514317916,639.9710360929184,2610.0289639070816
214,405.1552093210526,550.6835664929686,2621.3164335070314
215,407.976816016644,575.4346910503482,2632.565308949652
216,410.7973349176978,545.2242457240218,2643.775754275978
217,413.6167665369267,517.0520668423696,2654.9479331576304
218,416.43511138672466,607.9179911033907,2666.0820088966093
219,419.25236997918415,593.8218555749072,2677.178144425093
220,422.0685428261007,542.7634976947593,2688.2365023052407
221,424.88363043895106,607.7427552710051,2699.257244728995
222,427.69763332891046,526.7594664821281,2710.240533517872
223,430.5105520068507,614.8134698772274,2721.1865301227726
224,433.3223869833376,590.9046043762273,2732.0953956237727
225,436.13313876863157,614.0327092700709,2742.967290729929
226,438.9428078726914,542.1976242209239,2753.802375779076
227,441.7513948051658,541.3991892623717,2764.6008107376283
228,444.5589000753999,513.6372447996246,2775.3627552003754
229,447.36532419244406,594.9116316097143,2786.0883683902857
230,450.17066766503626,471.2221908416932,2796.777809158307
231,452.9749310016153,560.5687640168371,2807.431235983163
232,455.77811471030765,513.951193028849,2818.048806971151
233,458.5802192989493,488.369320144051,2828.630679855949
234,461.38124527506403,470.82298800158696,2839.177011998413
235,464.1811931458827,514.3120396136319,2849.687960386368
236,466.9800634183262,485.8363183655774,2860.1636816344226
237,469.77785659901633,455.3956680162428,2870.604331983757
238,472.57457319426453,464.98993269807306,2881.010067301927
239,475.3702137100962,563.6189569173366,2891.3810430826634
240,478.1647786522244,475.28258555432603,2901.717414445674
241,480.958268526063,500.98066386356277,2912.0193361364372
242,483.7506838367331,512.7130374739909,2922.286962526009
243,486.542025089035,515.4795523891808,2932.5204476108192
244,489.3322927874933,445.280054987531,2942.719945012469
245,492.12148743630996,514.114392022464,2952.885607977536
246,494.9096095394046,489.9824106226315,2963.0175893773685
247,497.6966596003849,436.88395829211004,2973.11604170789
248,500.4826381225657,376.81888291060477,2983.1811170893952
249,503.267545608969,517.7870327336486,2993.2129672663514
250,506.05138256229174,485.7882563928024,3003.2117436071976
251,508.83414948496187,638.8224028958521,3013.177597104148
252,511.6158468790972,554.8893216270162,3023.110678372984
253,514.39647524651,506.98886234714064,3033.0111376528594
254,517.1760350887173,422.1208751938975,3042.8791248061025
255,519.9545269069569,426.2852106819919,3052.714789318008
256,522.7319512021343,448.48171970335534,3062.5182802966447
257,525.5083084748863,388.7102535273516,3072.2897464726484
258,528.2835992255442,428.97066380097203,3082.029336199028
259,531.0578239541355,391.2628025490385,3091.7371974509615
260,533.8309831603972,348.5865221744043,3101.4134778255957
261,536.6030773437648,344.94167545815344,3111.0583245418466
262,539.3741070033918,341.3281155598006,3120.6718844401994
263,542.1440726381135,347.74569601749135,3130.2543039825086
264,544.9129747464782,368.19427074820305,3139.805729251797
265,547.6808138267464,351.673694047945,3149.326305952055
266,550.4475903768792,315.1838205919594,3158.8161794080406
267,553.2133048945383,354.7245054349178,3168.275494565082
268,555.9779578770863,350.29560401112667,3177.7043959888733
269,558.741549821606,349.89697213472573,3187.1030278652743
270,561.5040812248723,307.52846599988607,3196.471534000114
271,564.2655525833632,297.18994218101307,3205.810057818987
272,567.0259643932789,295.8812576329465,3215.1187423670535
273,569.7853171505118,334.60226969115774,3224.3977303088423
274,572.5436113506637,295.3528360719547,3233.6471639280453
275,575.300847489048,385.13281487267886,3242.867185127321
276,578.0570260606704,271.94206457190467,3252.0579354280953
277,580.8121475602609,290.78044402964497,3261.219555970355
278,583.5662124822481,279.6478124875439,3270.352187512456
279,586.3192213207682,243.54402956908416,3279.455970430916
280,589.0711745696665,380.4689552797827,3288.5310447202173
281,591.8220727224979,250.4224500073933,3297.5775499926067
282,594.5719162725156,261.4043745221052,3306.595625477895
283,597.3207057126959,265.4145899767427,3315.5854100232573
284,600.0684415357108,259.45295790697037,3324.5470420930296
285,602.8151242339444,191.51934023148806,3333.480659768512
286,605.5607542995007,269.6135992522313,3342.3864007477687
287,608.3053322241717,222.73559765457594,3351.264402345424
288,611.0488584994785,223.88519850753437,3360.1148014924656
289,613.7913336166337,253.06226526395676,3368.9377347360432
290,616.5327580665773,229.26666176073195,3377.733338239268
291,619.2731323399585,296.49825221898755,3386.5017477810125
292,622.0124569271163,174.75690124429002,3395.24309875571
293,624.7507323181122,258.0424738268448,3403.957526173155
294,627.4879590027305,283.35483534169634,3412.6451646583037
295,630.2241374704469,200.69385154893007,3421.30614845107
296,632.9592682104623,284.0593885938688,3429.940611406131
297,635.6933517116803,222.45131300727917,3438.548686992721
298,638.4263884627118,193.86949170556545,3447.1305082944345
299,641.158378951903,203.3137919909732,3455.686208009027
300,643.8893236672795,274.7840815517902,3464.21591844821
301,646.6192230966043,257.28022846254316,3472.719771537457
302,649.3480777273369,197.802101184202,3481.197898815798
303,652.0758880466568,164.3495685643784,3489.6504314356216
304,654.8026545414643,229.92249983752663,3498.0775001624734
305,657.5283776983514,167.52076462514015,3506.47923537486
306,660.253058003637,197.14423293595883,3514.855767064041
307,662.9766959433603,200.79277516616276,3523.2072248338372
308,665.6992920032588,223.46626209957776,3531.5337379004222
309,668.4208466687953,135.16456490787004,3539.83543509213
310,671.1413604251347,221.8875551507499,3548.11244484925
311,673.8608337571693,239.63510477617365,3556.3648952238264
312,676.5792671495027,159.40708612053913,3564.592913879461
313,679.2966610864393,211.2033719088913,3572.7966280911087
314,682.0130160520234,135.02383525511686,3580.976164744883
315,684.7283325299978,117.86834966215065,3589.1316503378494
316,687.4426110038125,147.73678902216943,3597.2632109778306
317,690.1558519566619,203.62902761679743,3605.3709723832026
318,692.868055871417,166.54494011730367,3613.4550598826963
319,695.579223230706,165.4844015848039,3621.515598415196
320,698.2893545168386,215.44728747045974,3629.5527125295403
321,700.9984502118704,123.43347361568067,3637.5665263843193
322,703.7065107975428,154.44283625231947,3645.5571637476805
323,706.4135367553458,149.47525200287964,3653.5247479971204
324,709.1195285664634,168.53059788070914,3661.469402119291
325,711.8244867117957,137.60875129020587,3669.391248709794
326,714.5284116719846,53.7095900270142,3677.290409972986
327,717.2313039273643,157.8329922782268,3685.167007721773
328,719.9331639579933,82.97883662258482,3693.021163377415
329,722.6339922436616,116.14700203067787,3700.852997969322
330,725.3337892638621,131.3373678651442,3708.662632134856
331,728.0325554978075,122.54981388087253,3716.4501861191275
332,730.7302914244399,154.78422022519862,3724.2157797748014
333,733.4269975224064,163.04046743810977,3731.9595325618902
334,736.1226742700852,168.31843645244226,3739.6815635475577
335,738.8173221455725,171.61800859408504,3747.381991405915
336,741.5109416266654,108.93906558217259,3755.0609344178274
337,744.203533190916,89.28148952929587,3762.718510470704
338,746.8950973155576,123.64516294169061,3770.3548370583094
339,749.585634477576,67.02996871944924,3777.9700312805508
340,752.275145153654,146.43579015671457,3785.5642098432854
341,754.9636298202095,124.86251094187719,3793.137489058123
342,757.651088953374,69.31001515778462,3800.6899848422154
343,760.3375230289997,105.77818728193415,3808.221812718066
344,763.0229325226718,139.26691218667656,3815.7330878133234
345,765.707317909683,115.7760751394153,3823.2239248605847
346,768.3906796650481,89.30556180280564,3830.6944381971944
347,771.073018263509,141.85525823495936,3838.1447417650406
348,773.754334179532,83.42505088963753,3845.5749491103625
349,776.4346278873015,57.01482661645878,3852.985173383541
350,779.1138998607247,148.62447266109302,3860.375527338907
351,781.7921505734308,98.25387666546703,3867.746123334533
352,784.4693804987717,22.902926667959946,3875.09707333204
353,787.145590109826,84.57151110361065,3882.4284888963894
354,789.8207798793968,14.259518804305117,3889.740481195695
355,792.4949502799948,120.9668389989929,3897.033161001007
356,795.1681017838766,50.69336131387354,3904.3066386861265
357,797.8402348630063,67.43897577260577,3911.5610242273942
358,800.5113499890922,53.20357279650216,3918.796427203498
359,803.1814476335301,70.98704320473462,3926.0129567952654
360,805.8505282674861,61.78927821452908,3933.210721785471
361,808.5185923618096,103.61016944137009,3940.38983055863
362,811.1856403871095,148.44960889920094,3947.550391100799
363,813.8516728136932,115.30748900061826,3954.6925109993817
364,816.5166901116122,20.183702557080323,3961.8162974429197
365,819.1806927506274,83.07814277910165,3968.9218572208983
366,821.8436812002308,4.990703276454951,3976.009296723545
367,824.5056559296545,0.0,3983.078721941627
368,827.1666174078396,80.8697615337469,3990.130238466253
369,829.8265661034585,69.83604851132532,3997.1639514886747
370,832.4855024849082,49.820034199919064,4004.179965800081
371,835.1434270203171,89.82161420859575,4011.1783857914043
372,837.800340177542,40.84068454688622,4018.159315453114
373,840.4562424241626,38.87714162497741,4025.1228583750226
374,843.1111342274786,39.93088225392057,4032.0691177460794
375,845.7650160545319,70.00180364582593,4038.998196354174
376,848.4178883720845,0.0,4045.9101965859372
377,851.0697516466315,57.194779573465894,4052.805220426534
378,853.7206063443801,46.31663054052933,4059.6833694594707
379,856.3704529312879,0.0,4066.5447448663926
380,859.0192918730282,20.610552573118184,4073.389447426882
381,861.6671236350059,0.0,4080.217577518256
382,864.31394868235,45.97076488462517,4087.029235115375
383,866.9597674799295,44.17548020956656,4093.8245197904334
384,869.6045804923382,0.0,4100.6035307127595
385,872.2483881838899,67.63363335137456,4107.366366648625
386,874.8911910186428,94.88687403896711,4114.113125961033
387,877.532989460375,25.15609339047751,4120.8439066095225
388,880.1737839725984,83.44119385002796,4127.558806149972
389,882.8135750185533,0.0,4134.257921734392
390,885.4523630612158,23.058649889268054,4140.941350110732
391,888.0901485632864,44.390812377328075,4147.609187622672
392,890.7269319871929,95.73846979056907,4154.261530209431
393,893.3627137951172,42.101526594442475,4160.8984734055575
394,895.9974944489448,0.0,4167.520112340742
395,898.631274410303,0.0,4174.1265417396025
396,901.2640541405545,0.0,4180.717855921493
397,903.8958341007889,29.70585119970019,4187.2941488003
398,906.5266147518397,20.144486115754262,4193.855513884246
399,909.1563965542456,66.59795572431813,4200.402044275682
400,911.785179968309,55.066167329104246,4206.933832670896
401,914.412965454046,20.549028640094548,4213.450971359905
402,917.0397534712083,0.0,4219.953552226262
403,919.6655444792959,47.55833325315052,4226.4416667468495
404,922.2903389375183,0.0,4232.91540599168
405,924.914137304827,19.625139376299558,4239.3748606237
406,927.5369400399219,42.17987910141255,4245.820120898587
407,930.1587476012165,27.74872333545045,4252.25127666455
408,932.7795604468668,65.33158263787573,4258.668417362124
409,935.3993790347723,0.0,4265.071632023981
410,938.0182038225445,11.538990725282929,4271.461009274717
411,940.6360352675474,12.163362669337403,4277.836637330663
412,943.2528738268853,102.80139600032362,4284.198603999676
413,945.8687199573735,0.0,4290.546996680943
414,948.4835741155871,0.0,4296.881902364781
415,951.0974367578167,59.7965923675647,4303.203407632435
416,953.7103083401039,57.488401344120575,4309.511598655879
417,956.3221893182211,0.0,4315.806561197615
418,958.9330801476809,0.0,4322.088380610472
419,961.5429812837137,0.0,4328.357141837409
420,964.1518931813114,0.0,4334.612929411309
421,966.7598162951818,0.0,4340.855827454785
422,969.366751079788,0.0,4347.0859196799765
423,971.9726979893106,0.0,4353.30328938835
424,974.5776574776903,0.0,4359.508019470496
425,977.1816299985851,16.299807594066806,4365.700192405933
426,979.7846160053978,8.120109737094936,4371.879890262905
427,982.3866159512661,0.0,4378.047194698183
428,984.9876302890789,32.79781304313656,4384.202186956863
429,987.5876594714425,0.0,4390.344947872161
430,990.186703950719,31.52444213477338,4396.475557865227
431,992.7847641789988,0.0,4402.594096944925
432,995.3818406081166,0.0,4408.700644707652
433,997.9779336896427,0.0,4414.795280337126
434,1000.573043874887,0.0,4420.878082604189
435,1003.1671716149039,0.0,4426.949129866603
436,1005.7603173604717,0.0,4433.008500068859
437,1008.3524815621288,0.0,4439.056270741967
438,1010.9436646701442,86.90748099673783,4445.092519003262
439,1013.5338671345313,0.0,4451.117321556198
440,1016.1230894050258,0.0,4457.130754690156
441,1018.711331931127,128.86710571976437,4463.132894280236
442,1021.2985951620632,0.0,4469.123815787058
443,1023.8848795468114,0.0,4475.103594256569
444,1026.470185534075,34.92769568016956,4481.07230431983
445,1029.054513572306,28.969979807170603,4487.030020192829
446,1031.6378641097094,0.0,4492.97681567627
447,1034.2202375942145,13.087235844616771,4498.912764155383
448,1036.8016344735036,2.1620614002904404,4504.83793859971
449,1039.3820551949946,3.247588437081504,4510.7524115629185
450,1041.9615002058513,65.3437448174027,4516.656255182597
451,1044.5399699529753,0.0,4522.5495411800475
452,1047.117464883021,0.0,4528.432340860096
453,1049.6939854423679,59.69527488911626,4534.304725110884
454,1052.2695320771581,45.83323559632572,4540.166764403674
455,1054.8441052332637,0.0,4546.018528792644
456,1057.4177053563044,53.139912085307515,4551.8600879146925
457,1059.9903328916403,78.30848901076388,4557.691510989236
458,1062.5619882843885,61.48713318199407,4563.512866818006
459,1065.132671979384,50.6757762151492,4569.324223784851
460,1067.702384421232,27.87435014446055,4575.125649855539
461,1070.2711260542715,27.082787422446017,4580.917212577554
462,1072.838897322574,56.30102092010384,4586.698979079896
463,1075.4056986699793,98.52898392711995,4592.47101607288
464,1077.9715305400584,61.76661015206082,4598.233389847939
465,1080.5363933761182,10.013833722583513,4603.9861662774165
466,1083.1002876212347,35.27058918561943,4609.729410814381
467,1085.6632137182005,115.5368115075944,4615.463188492406
468,1088.2251721095913,60.81243607461511,4621.187563925385
469,1090.7861632376814,16.097398692673778,4626.902601307326
470,1093.3461875445328,74.39163558784912,4632.608364412151
471,1095.905245471927,25.695083406507365,4638.304916593493
472,1098.46333746141,107.00767921549686,4643.992320784503
473,1101.0204639542565,73.3293605023564,4649.670639497644
474,1103.5766253915,42.66006517550886,4655.339934824491
475,1106.1318222139191,83.99973156446686,4661.000268435533
476,1108.686054862038,69.34829842002819,4666.651701579972
477,1111.2393237761314,58.70570491447961,4672.29429508552
478,1113.7916293962098,76.07189064179329,4677.928109358207
479,1116.3429721620435,0.446795617832322,4683.553204382168
480,1118.8933525131456,10.830360280546302,4689.169639719454
481,1121.442770888781,11.22252549017503,4694.777474509825
482,1123.9912277279564,65.62323252944589,4700.376767470554
483,1126.5387234694306,62.03242310377482,4705.967576896225
484,1129.0852585517114,0.0,4711.54996065853
485,1131.630833413053,107.87602379392501,4717.123976206075
486,1134.1754484914625,100.3103194358282,4722.689680564172
487,1136.7191042246905,19.7528696653535,4728.2471303346465
488,1139.2618010502408,29.20361830437014,4733.79638169563
489,1141.803539405368,67.66250959863282,4739.337490401367
490,1144.3443197270637,82.12948821799,4744.87051178201
491,1146.884142452086,24.60449925658213,4750.395500743418
492,1149.4230080169348,52.08748823303995,4755.91251176696
493,1151.960916857867,86.57840109068638,4761.421598909314
494,1154.497869410875,31.077184197735733,4766.922815802264
495,1157.0338661117146,78.58378434749557,4772.416215652504
496,1159.5689073958924,91.09814875856591,4777.901851241434
497,1162.102993698651,129.62022507503752,4783.3797749249625
498,1164.6361254550068,62.149961366699245,4788.850038633301
499,1167.168303099705,99.68730612922718,4794.312693870773
500,1169.699527067262,133.2322082843939,4799.767791715606
501,1172.2297977919327,53.78461718026665,4805.215382819733
502,1174.7591157077213,104.34448259140845,4810.655517408592
503,1177.2874812483974,198.9117547190699,4816.08824528093
504,1179.8148948474795,113.48638419140207,4821.513615808598
505,1182.341356938219,189.06832206365107,4826.931677936349
506,1184.866867953646,103.65751981835638,4832.342480181644
507,1187.3914283265335,118.2539293655509,4837.746070634449
508,1189.9150384893949,122.85750304296744,4843.142496957033
509,1192.4376988745196,152.4681936162342,4848.531806383766
510,1194.9594099139338,113.0859542790713,4853.914045720929
511,1197.480172039423,235.71073865350172,4859.289261346498
512,1199.999985682517,110.3425007900396,4864.65749920996
513,1202.5188512745185,156.98119516789848,4870.0188048321015
514,1205.0367692464622,110.62677669518871,4875.373223304811
515,1207.5537400291519,187.27920070912205,4880.720799290878
516,1210.0697640531457,189.93842297620176,4886.061577023798
517,1212.5848417487398,181.6043996924327,4891.395600307567
518,1215.0989735460025,191.27708748351688,4896.722912516483
519,1217.6121598747504,95.95644340505623,4902.043556594944
520,1220.124401164562,225.64242494275004,4907.35757505725
521,1222.6356978447595,135.33499001260043,4912.6650099874
522,1225.1460503444202,149.03409696110248,4917.9659030388975
523,1227.6554590923877,168.73970456545612,4923.260295434544
524,1230.1639245172487,134.4517720337608,4928.548227966239
525,1232.671447047365,176.17025900521276,4933.829740994787
526,1235.1780271108323,179.8951255503116,4939.104874449688
527,1237.683665135513,204.6263321710585,4944.3736678289415
528,1240.1883615490297,161.3638398011517,4949.636160198848
529,1242.6921167787552,208.1076098061949,4954.892390193805
530,1245.1949312518154,192.85760398388993,4960.14239601611
531,1247.696805395102,208.61378456424336,4965.386215435757
532,1250.197739635266,142.3761142097619,4970.623885790238
533,1252.6977343987,238.14455601565624,4975.855443984344
534,1255.1967901115713,221.91907351003556,4981.080926489964
535,1257.6949071997894,216.69963065411685,4986.300369345883
536,1260.1920860890336,222.4861918424176,4991.513808157582
537,1262.6883272047364,123.27872190295966,4996.72127809704
538,1265.1836309720957,177.07718609746735,5001.922813902533
539,1267.6779978160494,151.8815501215704,5007.11844987843
540,1270.171428161312,221.69178010500036,5012.308219895
541,1272.6639224323465,108.50784261179433,5017.492157388206
542,1275.1554810533817,261.32970464049595,5022.670295359504
543,1277.6461044484013,223.15733362435185,5027.842666375648
544,1280.1357930411484,169.9906974315154,5033.009302568485
545,1282.6245472551275,142.8297643652404,5038.17023563476
546,1285.1123675135918,178.67450316409304,5043.325496835907
547,1287.5992542395686,203.52488300214281,5048.475116997857
548,1290.0852078558491,153.38087348916451,5053.6191265108355
549,1292.5702287849579,155.2424446708401,5058.75755532916
550,1295.0543174492088,203.10956702895874,5063.890432971041
551,1297.5374742706645,158.98221148161701,5069.017788518383
552,1300.0196996711404,141.86034938341618,5074.139650616584
553,1302.500994072224,208.74395252566865,5079.256047474331
554,1304.9813578952583,249.63299313659263,5084.367006863407
555,1307.4607915613472,204.52744388151586,5089.472556118484
556,1309.9392954913649,189.42727786307114,5094.572722136929
557,1312.416870105932,178.33246862140277,5099.667531378597
558,1314.8935158254415,156.24299013436303,5104.757009865637
559,1317.3692330700455,191.1588168177159,5109.841183182284
560,1319.8440222596535,218.07992352533347,5114.9200764746665
561,1322.3178838139404,235.00628554939067,5119.993714450609
562,1324.7908181523494,155.9378786205807,5125.062121379419
563,1327.2628256940743,182.87467890830703,5130.125321091693
564,1329.733906858077,191.81666302087797,5135.183336979122
565,1332.2040620630912,168.76380800571678,5140.236191994283
566,1334.673291727602,190.71609134955997,5145.28390865044
567,1337.1415962698552,190.6734909786437,5150.326509021356
568,1339.6089761078672,91.6359852589303,5155.36401474107
569,1342.0754316594202,211.60355299628554,5160.3964470037145
570,1344.5409633420516,181.57617343668971,5165.42382656331
571,1347.005571573068,225.55382626643222,5170.446173733568
572,1349.4692567695386,261.5364916123208,5175.463508387679
573,1351.9320193483022,282.5241500418706,5180.475849958129
574,1354.393859725946,237.5167825635126,5185.483217436487
575,1356.8547783188405,217.51437062679088,5190.485629373209
576,1359.314775543107,195.5168961225636,5195.483103877436
577,1361.7738518146389,348.5243413831986,5200.475658616801
578,1364.2320075490975,299.53668918278527,5205.463310817215
579,1366.6892431618994,235.55392273732105,5210.446077262679
580,1369.145559068231,264.57602570492145,5215.423974295079
581,1371.6009556830488,262.60298218601474,5220.397017813985
582,1374.055433421065,222.63477672354747,5225.3652232764525
583,1376.5089926967653,273.6713943031782,5230.328605696822
584,1378.9616339244062,275.71282035348395,5235.287179646516
585,1381.4133575179947,306.75904074615573,5240.240959253844
586,1383.8641638913205,310.8100417961996,5245.1899582038
587,1386.3140534579227,333.865810262143,5250.134189737857
588,1388.7630266311246,204.92633334622678,5255.073666653773
589,1391.2110838240014,309.9915986946071,5260.008401305393
590,1393.6582254494103,200.06159439756266,5264.938405602437
591,1396.1044519199663,307.13630898968404,5269.863691010316
592,1398.5497636480434,221.21573145008279,5274.784268549917
593,1400.9941610458013,197.29985120259062,5279.700148797409
594,1403.4376445251607,294.38865811595224,5284.611341884048
595,1405.8802144977976,205.4821425040318,5289.517857495968
596,1408.3218713751753,289.58029512602116,5294.419704873979
597,1410.7626155685143,238.68310718661724,5299.316892813383
598,1413.2024474887992,366.7905703362467,5304.209429663753
599,1415.6413675468034,289.9026766712559,5309.097323328744
600,1418.0793761530363,190.01941873410215,5313.980581265898
601,1420.5164737178077,342.14078951356987,5318.85921048643
602,1422.9526606511824,359.26678244496543,5323.733217555035
603,1425.3879373629825,225.3973914103126,5328.602608589687
604,1427.8223042628301,276.5326107385563,5333.467389261444
605,1430.2557617600855,226.6724352057645,5338.3275647942355
606,1432.6883102638963,194.81686003532104,5343.183139964679
607,1435.1199501831777,218.96588089814213,5348.034119101858
608,1437.5506819266068,265.11949391285634,5352.880506087144
609,1439.9805059026396,234.2776956460184,5357.722304353982
610,1442.4094225194956,221.44048311230654,5362.5595168876935
611,1444.8374321851727,218.6078537747171,5367.392146225283
612,1447.2645353074354,188.77980554477563,5372.220194455224
613,1449.6907322938155,212.95633678273134,5377.043663217269
614,1452.1160235516197,256.1374462977474,5381.862553702253
615,1454.5404094879248,244.3231333481217,5386.676866651878
616,1456.9638905095774,302.5133976414709,5391.486602358529
617,1459.3864670232015,218.7082393349383,5396.291760665062
618,1461.8081394351793,215.90765903538886,5401.092340964611
619,1464.2289081516817,248.1116577996172,5405.888342200383
620,1466.6487735786422,190.32023713453782,5410.679762865462
621,1469.0677361217652,243.5333989973924,5415.466601002608
622,1471.4857961865337,224.75114579595538,5420.248854204045
623,1473.9029541781917,250.97348038871314,5425.026519611287
624,1476.3192105017695,190.20040608508862,5429.799593914911
625,1478.73456556206,176.4319266456332,5434.568073354367
626,1481.1490197636335,207.6680462822169,5439.331953717783
627,1483.5625735108324,315.9087696582401,5444.09123034176
628,1485.9752272077735,254.15410188883106,5448.845898111169
629,1488.38698125835,198.404048541046,5453.595951458954
630,1490.7978360662087,252.65861563406906,5458.341384365931
631,1493.2077920348047,292.91780963941073,5463.082190360589
632,1495.6168495673357,185.18163748111147,5467.8183625188885
633,1498.0250090667907,262.4501065359391,5472.549893464061
634,1500.432270935925,299.7232246335943,5477.276775366406
635,1502.8386355772768,261.0010000568991,5481.998999943101
636,1505.2441033931436,172.28344154201204,5486.716558457988
637,1507.648674785617,260.5705582786195,5491.4294417213805
638,1510.0523501565458,330.8623599101338,5496.137640089866
639,1512.4551299075615,303.1588565339034,5500.841143466097
640,1514.857014440075,204.4600587014029,5505.539941298597
641,1517.258004155265,287.7659774184431,5510.234022581557
642,1519.658099454089,256.0766241453575,5514.9233758546425
643,1522.0573007372814,239.39201079721897,5519.607989202781
644,1524.4556084053436,312.712149744023,5524.287850255977
645,1526.8530228585744,354.0370538109055,5528.9629461890945
646,1529.249544497016,230.36673627833352,5533.6332637216665
647,1531.645173720518,236.70121088229916,5538.298789117701
648,1534.0399109286823,281.040491814535,5542.959508185465
649,1536.433756520912,322.38459372270063,5547.615406277299
650,1538.8267108963691,272.73353171059625,5552.266468289404
651,1541.2187744539901,218.08732133834383,5556.912678661656
652,1543.6099475924989,272.4459786226098,5561.55402137739
653,1546.0002307103919,228.80952003679158,5566.190479963208
654,1548.389624205942,272.1779625112149,5570.822037488785
655,1550.778128477212,339.55132343334935,5575.448676566651
656,1553.165743922015,357.9296206479912,5580.070379352009
657,1555.5524709379674,366.31287245747626,5584.687127542524
658,1557.9383099224615,285.70109762187167,5589.298902378128
659,1560.3232612726447,301.09431535918793,5593.905684640812
660,1562.7073253854676,362.49254534555894,5598.507454654441
661,1565.090502657655,296.8958077154657,5603.104192284534
662,1567.472793485695,385.3041230619219,5607.695876938078
663,1569.8541982658724,214.71751243667222,5612.282487563328
664,1572.234717394246,338.1359973504086,5616.864002649591
665,1574.6143512666388,390.5595997729479,5621.440400227052
666,1576.9931002786825,344.9883421334589,5626.011657866541
667,1579.3709648257554,240.4222473206337,5630.577752679366
668,1581.7479453030446,254.86133868291017,5635.13866131709
669,1584.124042105495,229.30564002865958,5639.69435997134
670,1586.4992556278405,388.75517562639925,5644.244824373601
671,1588.873586264596,261.20997020497725,5648.790029795023
672,1591.2470344100473,187.67004895378432,5653.329951046216
673,1593.61960045828,291.13543752294936,5657.864562477051
674,1595.9912848031436,384.6061620235423,5662.393837976458
675,1598.3620878382683,310.08224902776874,5666.917750972231
676,1600.73200995707,216.56372556917722,5671.436274430823
677,1603.101051552752,271.0506191428585,5675.9493808571415
678,1605.469213018288,351.5429577056384,5680.457042294362
679,1607.8364947464297,284.0407696762877,5684.959230323712
680,1610.2028971297236,328.54408393571885,5689.455916064281
681,1612.5684205604928,169.05292982717856,5693.947070172821
682,1614.933065430832,273.5673371564644,5698.432662843536
683,1617.2968321326396,209.08733619211216,5702.912663807888
684,1619.6597210575703,173.61295766559397,5707.387042334406
685,1622.0217325970775,315.1442327715322,5711.855767228468
686,1624.3828671423937,215.68119316788852,5716.3188068321115
687,1626.7431250845273,238.22387097616775,5720.776129023832
688,1629.1025068142835,191.7722987816196,5725.22770121838
689,1631.461012722231,328.32650963343167,5729.673490366568
690,1633.8186431987433,294.88653704494027,5734.11346295506
691,1636.1753986339554,282.452414993827,5738.547585006173
692,1638.5312794178026,189.0241779223088,5742.975822077691
693,1640.8862859399928,234.60186073735895,5747.398139262641
694,1643.2404185900214,199.18549881088347,5751.8145011891165
695,1645.5936777571687,209.77512797994405,5756.224872020056
696,1647.9460638304968,292.37078454693983,5760.62921545306
697,1650.2975771988479,234.97250527982033,5765.02749472018
698,1652.6482182508632,268.58032741228,5769.41967258772
699,1654.9979873749471,274.19428864395286,5773.805711356047
700,1657.3468849593069,230.81442714062996,5778.18557285937
701,1659.69491139192,212.44078153443934,5782.559218465561
702,1662.0420670605622,170.07339092406346,5786.9266090759365
703,1664.3883523527838,276.7122948749238,5791.287705125076
704,1666.733767655916,247.35753341939835,5795.642466580602
705,1669.078313357097,362.00914705700234,5799.990852942998
706,1671.421989843224,255.6671767546104,5804.33282324539
707,1673.764797500998,198.33166394663203,5808.668336053368
708,1676.1067367168994,311.002650535238,5812.997349464762
709,1678.4478078771954,221.68017889054227,5817.319821109458
710,1680.788011367933,310.36429185080215,5821.635708149198
711,1683.1273475749497,289.0550327226347,5825.944967277365
712,1685.4658168838746,261.7524452811949,5830.247554718805
713,1687.8034196801152,271.4565737703988,5834.543426229601
714,1690.1401563488737,248.16746290310493,5838.832537096895
715,1692.4760272751305,298.88515786132393,5843.114842138676
716,1694.8110328436542,266.6097042964193,5847.390295703581
717,1697.145173439002,264.3411483293012,5851.658851670699
718,1699.4784494455284,250.07953655063193,5855.920463449368
719,1701.8108612473554,345.824916021028,5860.175083978972
720,1704.1424092284094,205.57733427125004,5864.42266572875
721,1706.47309377239,260.33683930242296,5868.663160697577
722,1708.8029152628033,302.1034795862106,5872.896520413789
723,1711.1318740829165,353.8773040650376,5877.122695934962
724,1713.4599706158156,283.65836215227864,5881.341637847721
725,1715.7872052443474,281.44670373246026,5885.55329626754
726,1718.1135783511702,286.24237916146194,5889.757620838538
727,1720.4390903187102,256.04543926671795,5893.954560733282
728,1722.7637415292008,302.85593534741656,5898.144064652583
729,1725.0875323646478,272.6739191746983,5902.326080825302
730,1727.4104632068527,280.4994429918588,5906.500557008141
731,1729.7325344374156,276.33255951454885,5910.667440485451
732,1732.0537464377048,236.1733219309699,5914.82667806903
733,1734.3740995889043,397.02178390208337,5918.978216097917
734,1736.693594271959,178.87799956180606,5923.122000438194
735,1739.01223086763,243.74202351720487,5927.257976482795
736,1741.3300097564463,298.61391084870775,5931.386089151292
737,1743.6469313187392,247.4937171102929,5935.506282889707
738,1745.9629959346241,259.38149832970066,5939.618501670299
739,1748.2782039840201,152.2773110086273,5943.722688991373
740,1750.592555846615,274.18121212292044,5947.81878787708
741,1752.9060519019097,216.09325912279292,5951.906740877207
742,1755.2186925291735,168.0135099330064,5955.986490066994
743,1757.5304781074892,262.94202295308605,5960.057977046914
744,1759.841409015707,271.8788570575134,5964.121142942487
745,1762.151485632489,264.8240715959264,5968.175928404074
746,1764.4607083362762,186.77772639332397,5972.222273606676
747,1766.7690775053009,212.7398817502617,5976.260118249738
748,1769.0765935176005,246.71059844305364,5980.289401556946
749,1771.3832567509894,260.68993772397425,5984.310062276026
750,1773.6890675830712,247.6779613214594,5988.322038678541
751,1775.9940263912588,314.67473144029736,5992.325268559703
752,1778.298133552744,124.68031076184707,5996.319689238153
753,1780.6013894445127,122.69476244421912,6000.305237555781
754,1782.9037944433512,211.7181501224868,6004.281849877513
755,1785.2053489258242,114.75053790888524,6008.249462091115
756,1787.5060532682999,74.79199039301056,6012.208009606989
757,1789.8059078469332,167.84257264201915,6016.157427357981
758,1792.1049130376825,141.90235020082855,6020.097649799171
759,1794.403069216282,81.97138909232126,6024.028610907679
760,1796.7003767582758,46.049755817539335,6027.950244182461
761,1798.9968360389948,46.137517355882665,6031.862482644117
762,1801.292447433556,97.23474116532361,6035.765258834676
763,1803.5872113168869,144.34149518259073,6039.658504817409
764,1805.881128063699,139.45784782337523,6043.542152176625
765,1808.1741980484908,0.0,6047.416132017465
766,1810.4664216455658,121.71962503428767,6051.280374965712
767,1812.757799229017,25.865188832422973,6055.134811167577
768,1815.0483311727382,0.0,6058.9793702895195
769,1817.338017850406,0.0,6062.81398151802
770,1819.6268596355064,8.361426440591458,6066.6385735594085
771,1821.9148569013043,0.0,6070.453074639634
772,1824.2020100208736,0.0,6074.257412504099
773,1826.4883193670692,15.948485582577632,6078.051514417422
774,1828.7737853125595,16.164692836729046,6081.835307163271
775,1831.0584082297898,0.0,6085.6087170441415
776,1833.3421884910144,29.628330118843223,6089.371669881157
777,1835.6251264682794,94.87590898611325,6093.124091013887
778,1837.9072225334185,0.0,6096.865905300124
779,1840.1884770580743,11.402962884305452,6100.597037115695
780,1842.4688904136776,0.0,6104.317410354268
781,1844.7484629714586,49.973051572870645,6108.026948427129
782,1847.027195102445,36.274425736986814,6111.725574263013
783,1849.3050871774549,0.0,6115.413210307873
784,1851.5821395671057,48.910221475299295,6119.089778524701
785,1853.858352641822,0.0,6122.755200393314
786,1856.133726771804,44.59060308982862,6126.409396910171
787,1858.4082623270751,77.9477114118481,6130.052288588152
788,1860.6819596774308,106.31620454362746,6133.6837954563725
789,1862.9548191924816,93.69616294003026,6137.30383705997
790,1865.2268412416286,130.0876675400741,6140.912332459926
791,1867.4980261940707,26.490799767157114,6144.509200232843
792,1869.7683744188032,47.905641529249806,6148.09435847075
793,1872.0378862846237,109.33227521908157,6151.667724780918
794,1874.306562160131,73.77078371436892,6155.229216285631
795,1876.5744024137064,62.221250377989236,6158.778749622011
796,1878.8414074135449,134.6837590581872,6162.316240941813
797,1881.1075775276333,60.15839408879128,6165.841605911209
798,1883.37291312377,67.6452402893974,6169.354759710603
799,1885.6374145695258,171.14438296556636,6172.855617034434
800,1887.901082232293,207.6559079090457,6176.344092090954
801,1890.163916479252,57.17990139794256,6179.820098602057
802,1892.4259176773926,146.71645019694188,6183.283549803058
803,1894.6870861934933,163.26564155750657,6186.734358442493
804,1896.947422394136,194.82756321806755,6190.172436781932
805,1899.2069266457013,124.40230340422931,6193.597696595771
806,1901.4655993143692,74.98995082897545,6197.010049171025
807,1903.723440766132,167.59059469285785,6200.409405307142
808,1905.9804513667602,201.20432468421222,6203.795675315788
809,1908.2366314818362,95.83123097933549,6207.1687690206645
810,1910.491981476747,97.47140424270856,6210.528595757291
811,1912.7465017166712,78.12493562719555,6213.875064372804
812,1915.0001925665924,105.79191677421386,6217.208083225786
813,1917.2530543912974,234.47243981398333,6220.527560186017
814,1919.5050875553682,176.1665973656809,6223.833402634319
815,1921.756292423188,152.87448253766433,6227.125517462336
816,1924.0066693589508,190.5961889276732,6230.403811072327
817,1926.2562187266349,181.33181062302083,6233.668189376979
818,1928.5049408900306,80.08144220079885,6236.918557799201
819,1930.7528362127405,86.84517872807464,6240.154821271925
820,1932.9999050581482,115.6231157620914,6243.376884237909
821,1935.2461477894503,108.41534935048094,6246.584650649519
822,1937.4915647696378,153.22197603144195,6249.778023968558
823,1939.736156361517,126.04309283395105,6252.956907166049
824,1941.9799229276869,101.87879727797917,6256.121202722021
825,1944.2228648305502,59.72918737465534,6259.270812625345
826,1946.4649824323067,10.594361626502177,6262.405638373498
827,1948.7062760949755,113.4744190276233,6265.525580972377
828,1950.9467461803574,93.36945906389064,6268.630540936109
829,1953.1863930500724,53.27958171316095,6271.720418286839
830,1955.4252170655398,105.20488744548402,6274.795112554516
831,1957.6632185879698,74.14547722326643,6277.854522776734
832,1959.9003979783934,150.101452501518,6280.898547498482
833,1962.1367555976371,39.072915228018246,6283.927084771982
834,1964.3722918063306,82.05996784352737,6286.940032156473
835,1966.6070069649084,62.062713282000914,6289.937286717999
836,1968.8409014336091,140.08125497075525,6292.918745029245
837,1971.073975572475,171.1156968307041,6295.884303169296
838,1973.3062297413528,88.16614327654042,6298.83385672346
839,1975.537664299892,142.23269921693918,6301.767300783061
840,1977.7682796075442,86.31547005475568,6304.684529945244
841,1979.9980760235687,36.41456168723562,6307.585438312764
842,1982.227053907036,25.530080506206104,6310.469919493794
843,1984.4552136168147,113.66213339826936,6313.337866601731
844,1986.6825555115743,0.0,6316.189172254976
845,1988.9090799497951,78.976271423242,6319.023728576758
846,1991.1347872897607,79.15857280509135,6321.841427194909
847,1993.3596778895653,39.35784075831725,6324.642159241683
848,1995.5837521070937,10.574184646453432,6327.425815353547
849,1997.8070103000562,132.80771432901656,6330.192285670983
850,2000.029452825956,81.05854016170724,6332.941459838293
851,2002.2510800421044,36.32677299662009,6335.67322700338
852,2004.4718923056187,56.612524182431116,6338.387475817569
853,2006.6918899734262,86.91590556460051,6341.0840944353995
854,2008.9110734022538,42.23702948557366,6343.762970514426
855,2011.1294429486413,114.57600878499579,6346.423991215004
856,2013.3469989689288,6.932956799882049,6349.067043200118
857,2015.5637418192728,128.30798736484758,6351.692012635152
858,2017.779671855621,173.70121481229035,6354.29878518771
859,2019.9947894337456,126.11275397259942,6356.887246027401
860,2022.209094909215,110.5427201743505,6359.4572798256495
861,2024.422588637403,167.99122924450148,6362.0087707554985
862,2026.635270973502,55.45839750860978,6364.54160249139
863,2028.8471422725002,76.94434179102154,6367.0556582089785
864,2031.0582028891977,102.44917941506083,6369.550820584939
865,2033.2684531782093,64.97302820325149,6372.0269717967485
866,2035.477893493941,129.51600647750456,6374.483993522495
867,2037.686524190628,97.0782330593247,6376.921766940675
868,2039.8943456222898,83.65982726999937,6379.340172730001
869,2042.1013581427783,137.26090893081073,6381.739091069189
870,2044.3075621057355,163.88159836323484,6384.118401636765
871,2046.5129578646165,74.52201638913812,6386.477983610862
872,2048.717545772697,80.1822843309692,6388.817715669031
873,2050.921326183046,43.86252401198635,6391.137475988014
874,2053.1242994485447,134.56285775642027,6393.43714224358
875,2055.326465921889,140.28340838971053,6395.7165916102895
876,2057.5278259555826,142.02429923868021,6397.97570076132
877,2059.7283799019287,104.7856541317442,6400.214345868256
878,2061.928128113057,91.56759739911195,6402.432402600888
879,2064.1270709408877,76.37025387299673,6404.629746127003
880,2066.3252087371698,75.19374888778657,6406.806251112213
881,2068.5225418534487,259.03820828027983,6408.96179171972
882,2070.7190706410856,165.9037583898571,6411.096241610143
883,2072.9147954512437,48.79052605870311,6413.209473941297
884,2075.1097166349136,54.69863863199225,6415.301361368008
885,2077.30383454288,144.62822395809053,6417.3717760419095
886,2079.497149525742,163.57941038876925,6419.420589611231
887,2081.689661933906,86.55232677938693,6421.447673220613
888,2083.881372117607,163.54710248909487,6423.452897510905
889,2086.0722804268694,109.56386738105175,6425.436132618948
890,2088.262387211536,151.6027518226001,6427.3972481774
891,2090.4516928212624,217.6638866854937,6429.336113314506
892,2092.640197605517,239.74740334606577,6431.252596653934
893,2094.8279019135784,245.85343368546,6433.14656631454
894,2097.014806094527,114.98211008980707,6435.017889910193
895,2099.200910497267,85.13356545045463,6436.866434549545
896,2101.386215470518,81.30793316411655,6438.692066835883
897,2103.570721362798,137.5053471331321,6440.494652866868
898,2105.75442852244,33.72594176563052,6442.2740582343695
899,2107.9373372976024,124.96985197573395,6444.030148024266
900,2110.1194480362346,29.237213183772838,6445.762786816227
901,2112.3007610861114,33.52816131646705,6447.471838683533
902,2114.481276794826,158.842832807145,6449.157167192855
903,2116.6609955097674,184.18136459592642,6450.818635404074
904,2118.8399175781515,172.54389412993805,6452.456105870062
905,2121.018043347003,14.930559363500834,6454.069440636499
906,2123.1953731631525,142.34149875834555,6455.658501241654
907,2125.371907373251,80.77685128379107,6457.223148716209
908,2127.547646323773,113.23675641696809,6458.763243583032
909,2129.7225903609797,0.0,6460.2786458570035
910,2131.896739830967,0.0,6461.7692150447865
911,2134.070095079637,91.76518985534949,6463.2348101446505
912,2136.2426564527154,74.32471035372873,6464.675289646271
913,2138.4144242957254,57.909488469495955,6466.090511530504
914,2140.585398954014,41.519666730782774,6467.480333269217
915,2142.755580772737,152.15538817493416,6468.844611825066
916,2144.924970096879,84.81679634869033,6470.18320365131
917,2147.093567271218,162.5040353084005,6471.4959646915995
918,2149.261372640361,97.21724962021199,6472.782750379788
919,2151.428386548723,31.95658436028043,6474.04341563972
920,2153.59460934054,25.722185114966123,6475.277814885034
921,2155.760041359857,5.514197981033249,6476.485802018967
922,2157.924682950536,0.0,6477.667230434151
923,2160.08853445626,8.178046987576636,6478.821953012423
924,2162.2515962205125,14.050177875412373,6479.949822124588
925,2164.413868586603,76.9493103697223,6481.050689630278
926,2166.5753518976653,20.875593122302234,6482.124406877698
927,2168.736046496624,0.0,6483.170824703445
928,2170.8959527262455,48.810206567663954,6484.189793432336
929,2173.055070929094,10.81883712284889,6485.181162877151
930,2175.2134014475637,0.0,6486.144782338469
931,2177.3709446238536,56.91949939551432,6487.080500604486
932,2179.527700799978,51.01183404923995,6487.98816595076
933,2181.683670317786,9.132373859943982,6488.867626140056
934,2183.838853518918,9.281271577862753,6489.718728422137
935,2185.9932507448457,0.0,6490.541319533541
936,2188.1468623368546,54.664754302590154,6491.33524569741
937,2190.299688636058,110.89964737672199,6492.100352623278
938,2192.451729983358,104.16351449313333,6492.836485506867
939,2194.6029867195075,79.4565109701116,6493.543489029888
940,2196.7534591850467,108.77879264016065,6494.221207359839
941,2198.9031477203625,36.13051585017911,6494.869484149821
942,2201.0520526656323,0.0,6495.488162538312
943,2203.2001743608726,20.922914851012138,6496.077085148988
944,2205.3475131458963,0.0,6496.636094090512
945,2207.4940693603535,0.8349690436652963,6497.165030956335
946,2209.6398433437075,0.0,6497.663736824501
947,2211.7848354352277,84.86794774256487,6498.132052257435
948,2213.929045974017,19.43018269824279,6498.569817301757
949,2216.0724752989954,0.0,6498.976871488078
950,2218.215123748887,62.6469461692177,6499.353053830782
951,2220.356991662249,0.0,6499.6982028278635
952,2222.4980793774566,17.9878435393166,6500.012156460683
953,2224.6383872326965,107.70524780619508,6500.294752193805
954,2226.777915565975,116.45417302523128,6500.545826974769
955,2228.9166647151233,152.23478276609694,6500.765217233903
956,2231.0546350177897,0.0,6500.952758884124
957,2233.191826811439,74.89171267926304,6501.108287320737
958,2235.3282404333577,123.76836257876221,6501.231637421238
959,2237.4638762206546,73.67735645491393,6501.322643545086
960,2239.5987345102517,158.6188604664494,6501.381139533551
961,2241.732815638896,63.59304129052907,6501.406958709471
962,2243.866119943157,81.60006612291545,6501.399933877085
963,2245.998647759416,46.64010267820049,6501.3598973217995
964,2248.1303994238788,136.7133191899884,6501.286680810012
965,2250.261375272573,27.81988441109479,6501.180115588905
966,2252.391575641344,180.9599676137468,6501.040032386253
967,2254.5210008658582,116.13373858980685,6500.866261410193
968,2256.6496512816097,0.0,6500.65863234907
969,2258.7775272239005,46.5830256288109,6500.416974371189
970,2260.904629027866,167.85888387534487,6500.141116124655
971,2263.030957028447,227.16911426285424,6499.830885737146
972,2265.1565115604276,118.5138891842771,6499.486110815723
973,2267.281292958393,137.89338155336463,6499.106618446635
974,2269.405301556769,104.30776480489385,6498.692235195106
975,2271.528537689776,74.75721289485864,6498.242787105141
976,2273.651001691477,136.24190030065984,6497.75809969934
977,2275.7726938957626,128.76200202134532,6497.237997978655
978,2277.89361463632,133.31769357774738,6496.682306422253
979,2280.0137642466816,246.90915101274186,6496.090848987258
980,2282.1331430601863,187.53655089142376,6495.463449108576
981,2284.2517514100064,79.20007030129364,6494.799929698706
982,2286.36958962914,63.89988685248409,6494.100113147516
983,2288.486658050383,165.63617867794892,6493.363821322051
984,2290.602957006388,131.40912443365778,6492.590875566342
985,2292.7184868296013,197.2189032988017,6491.781096701198
986,2294.83324785231,153.0656949760005,6490.9343050239995
987,2296.947240406613,164.9496796914782,6490.050320308522
988,2299.060464824442,147.87103819531148,6489.1289618046885
989,2301.1729214375487,195.82995176157328,6488.170048238427
990,2303.2846105775047,96.82660218855017,6487.17339781145
991,2305.395532575703,173.86117179899884,6486.138828201001
992,2307.505687763373,127.93384344024162,6485.066156559758
993,2309.615076471552,147.04480048446567,6483.955199515534
994,2311.7236990311094,149.19422682886398,6482.805773171136
995,2313.831555772741,120.38230689585271,6481.617693104147
996,2315.9386470269615,214.60922563328222,6480.390774366718
997,2318.044973124106,242.8751685146126,6479.124831485387
998,2320.150534394351,166.18032153914646,6477.8196784608535
999,2322.2553311676747,203.52487123219998,6476.4751287678
1000,2324.3593637738973,245.90900464531296,6475.090995354687
1001,2326.4626325426493,153.3329093564489,6473.667090643551
1002,2328.5651378034036,187.7967734702106,6472.203226529789
1003,2330.666879885434,185.30078561801747,6470.6992143819825
1004,2332.767859117872,172.84513495831652,6469.1548650416835
1005,2334.8680758296446,137.4300111767834,6467.569988823217
1006,2336.967530349513,255.05560448651067,6465.944395513489
1007,2339.06622300607,157.72210562823238,6464.277894371768
1008,2341.164154127729,235.42970587049876,6462.570294129501
1009,2343.2613240427263,278.17859700989084,6460.821402990109
1010,2345.3577330791304,258.9689713712305,6459.0310286287695
1011,2347.4533815648324,253.80102180774065,6457.198978192259
1012,2349.548269827552,232.67494170129157,6455.325058298708
1013,2351.642398194819,265.5909249625847,6453.409075037415
1014,2353.7357669940207,252.5491660313346,6451.450833968665
1015,2355.8283765523383,221.54985987650343,6449.450140123497
1016,2357.9202271968015,287.59320199646845,6447.406798003532
1017,2360.0113192542567,195.6793884192357,6445.320611580764
1018,2362.1016530513734,229.80861570266006,6443.19138429734
1019,2364.1912289146617,273.9810809346054,6441.018919065395
1020,2366.280047170445,306.19698173318284,6438.803018266817
1021,2368.3681081448763,341.456516246918,6436.543483753082
1022,2370.455412163948,316.75988315497034,6434.24011684503
1023,2372.541959553462,191.10728166735043,6431.89271833265
