pixel_index,raman_shift_cm-1,corrected_intensity,background_intensity
0,-227.09331618238608,3837.6231150123203,-3144.6231150123203
1,-224.0189782969017,3787.9681203262385,-3091.9681203262385
2,-220.94585774026788,3734.441411633264,-3039.441411633264
3,-217.873953916477,3677.043069713906,-2987.043069713906
4,-214.80326622991177,3616.7731731323242,-2934.7731731323242
5,-211.733794085304,3589.6317982424416,-2882.6317982424416
6,-208.66553688777796,3524.619019194047,-2830.619019194047
7,-205.59849404281357,3485.7349079389082,-2778.7349079389082
8,-202.5326649562789,3417.9795342368793,-2726.9795342368793
9,-199.46804903439326,3369.3529656620067,-2675.3529656620067
10,-196.40464568376845,3327.855267608642,-2623.855267608642
11,-193.34245431136543,3268.4865032975463,-2572.4865032975463
12,-190.28147432453758,3217.2467337820017,-2521.2467337820017
13,-187.22170513098962,3166.136017953919,-2470.136017953919
14,-184.1631461388035,3109.1544125499445,-2419.1544125499445
15,-181.10579675642558,3071.3019721575706,-2368.3019721575706
16,-178.0496563926772,2996.578749221245,-2317.578749221245
17,-174.99472445675926,2959.984794048475,-2266.984794048475
18,-171.94100035821748,2905.5201548159416,-2216.5201548159416
19,-168.8884835069791,2855.1848775756034,-2166.1848775756034
20,-165.8371733133401,2807.979006260808,-2115.979006260808
21,-162.78706918795197,2755.902582692399,-2065.902582692399
22,-159.73817054185884,2697.9556465848245,-2015.9556465848243
23,-156.69047678644293,2657.1382355522474,-1966.1382355522471
24,-153.6439873334747,2609.450385114651,-1916.450385114651
25,-150.59870159507594,2548.892128703951,-1866.8921287039511
26,-147.55461898374344,2512.4634976701004,-1817.4634976701004
27,-144.5117389123427,2464.1645212872,-1768.1645212872
28,-141.47006079409707,2423.9952267596072,-1718.9952267596075
29,-138.42958404259622,2353.9556392280447,-1669.9556392280447
30,-135.39030807179853,2315.0457817757056,-1621.0457817757056
31,-132.3522322960245,2269.265675434367,-1572.265675434367
32,-129.31535612996328,2210.6153391904954,-1523.6153391904954
33,-126.27967898865738,2166.0947899913554,-1475.0947899913554
34,-123.24520028752887,2106.704042751119,-1426.7040427511188
35,-120.21191944234891,2070.443110356973,-1378.4431103569732
36,-117.17983586926164,2021.3120036752307,-1330.3120036752307
37,-114.14894898477108,1972.310731557435,-1282.310731557435
38,-111.11925820574348,1923.4393008464717,-1234.4393008464717
39,-108.0907629494093,1887.697716382676,-1186.697716382676
40,-105.06346263335683,1832.0859810099403,-1139.0859810099403
41,-102.03735667553863,1797.6040955818248,-1091.6040955818248
42,-99.0124444942694,1735.2520589676642,-1044.2520589676642
43,-95.98872550823029,1686.0298680586775,-997.0298680586775
44,-92.96619913645374,1643.937517774074,-949.937517774074
45,-89.94486479833647,1607.9750010671664,-902.9750010671664
46,-86.92472191364166,1559.1423089314749,-856.1423089314749
47,-83.90576990248161,1507.439430406837,-809.4394304068369
48,-80.8880081853416,1462.8663525855177,-762.8663525855177
49,-77.87143618304951,1400.423060618316,-716.423060618316
50,-74.85605331680831,1368.1095377206739,-670.1095377206739
51,-71.8418590081745,1319.9257651787857,-623.9257651787857
52,-68.82885267906663,1272.8717223557046,-577.8717223557046
53,-65.81703375174588,1231.947386697455,-531.9473866974549
54,-62.80640164885512,1180.1527337391362,-486.15273373913624
55,-59.79695579338843,1123.4877371110342,-440.4877371110342
56,-56.78869560867168,1090.9523685447298,-394.9523685447298
57,-53.78162051842758,1039.5465978792054,-349.54659787920536
58,-50.775729946717085,1003.270393066955,-304.27039306695497
59,-47.77102331794594,956.1237201800927,-259.12372018009273
60,-44.76750005690368,913.1065434164607,-214.10654341646068
61,-41.765159588715974,866.2188251057391,-169.21882510573914
62,-38.76400133886841,817.4605257155513,-124.46052571555128
63,-35.76402473319572,778.8316038575754,-79.83160385757537
64,-32.76522919790775,756.3320162936525,-35.33201629365249
65,-29.767614159554796,697.9617179418938,9.038282058106233
66,-26.771179045042768,677.72066188279,53.279338117210045
67,-23.775923281635357,643.6087993653191,97.3912006346809
68,-20.781846296951887,573.626079813057,141.373920186943
69,-17.78894751896295,513.7724508302827,185.22754916971735
70,-14.797226375986087,462.04785820808956,228.95214179191044
71,-11.806682296698796,419.45224593049306,272.54775406950694
72,-8.817314710142869,391.9855561805375,316.0144438194625
73,-5.829123045694024,339.6477293464086,359.3522706535914
74,-2.8421067330922782,292.4387040275369,402.5612959724631
75,0.14373479757540802,245.35841704071072,445.6415829592893
76,3.1284021158621207,206.4068034261827,488.5931965738173
77,6.11189579098918,163.5837964537759,531.4162035462241
78,9.094216391796264,128.88932762899958,574.1106723710004
79,12.075364486802131,88.32332669914695,616.676673300853
80,15.055340644146067,55.88572165941514,659.1142783405849
81,18.034145431642095,0.0,701.4235612409943
82,21.011779416735614,0.0,743.6045974927652
83,23.988243166531575,0.0,785.6574643203548
84,26.963537247790168,0.0,827.5822406758912
85,29.937662226900766,0.0,869.3790072330576
86,32.91061866992533,0.0,911.0478463809914
87,35.88240714256803,0.0,952.5888422181688
88,38.853028210179566,0.0,994.0020805463028
89,41.82248243777241,0.0,1035.2876488642278
90,44.790770390003374,0.0,1076.4456363617974
91,47.757892631186685,0.0,1117.4761339137722
92,50.72384972528528,0.0,1158.3792340737118
93,53.68864223590647,0.0,1199.1550310678667
94,56.652270726332326,0.0,1239.803620789071
95,59.614735759474115,0.0,1280.325100790632
96,62.576037897913494,7.2804297197781125,1320.719570280222
97,65.53617770388084,371.01286988622905,1360.987130113771
98,68.49515573925311,848.8721172106434,1401.1278827893566
99,71.45297256557761,1414.8580675589037,1441.1419324410963
100,74.40962874403307,2049.970615166959,1481.0293848330411
101,77.3651248354751,2653.2096526469395,1520.7903473530605
102,80.3194614004037,3220.575070993257,1560.4249290067428
103,83.27263899897407,3423.06675958872,1599.9332404112802
104,86.22465819100103,3676.684606210639,1639.3153937893612
105,89.17551953595022,3641.4284970369335,1678.5715029630665
106,92.12522359294904,3757.298316652248,1717.701683347752
107,95.07377092077361,3726.29394805405,1756.70605194595
108,98.02116207786827,3761.4152726587454,1795.5847273412546
109,100.96739762232177,3676.6621703077863,1834.3378296922137
110,103.9124781118889,3614.034519273777,1872.9654807262232
111,106.8564041039775,3583.532196266585,1911.4678037334152
112,109.79917615565283,3660.155076439448,1949.8449235605522
113,112.74079482363969,3526.903033395084,1988.096966604916
114,115.68126066432679,3504.775939191796,2026.2240608082038
115,118.62057423374719,3547.7736643495873,2064.2263356504127
116,121.5587360876044,3524.8960778562623,2102.1039221437377
117,124.49574678126797,3416.143047173542,2139.856952826458
118,127.43160686973448,3370.5144382431645,2177.4855617568355
119,130.36631690769696,3410.0101154930035,2214.9898845069965
120,133.29987744949491,3299.629941843167,2252.370058156833
121,136.2322890491167,3393.3737787121145,2289.6262212878855
122,139.16355226023396,3377.241486022758,2326.758513977242
123,142.0936676361519,3358.2329222085755,2363.7670777914245
124,145.0226357298614,3207.3479442197167,2400.6520557802833
125,147.95045709399545,3176.586407529113,2437.413592470887
126,150.87713228085534,3138.948166138586,2474.051833861414
127,153.802661842417,3204.433072584957,2510.566927415043
128,156.72704633029653,3177.0409779461506,2546.9590220538494
129,159.65028629578688,3047.7717318473105,2583.2282681526895
130,162.5723822898362,3105.6251824669007,2619.3748175330993
131,165.49333486305662,3050.601176542821,2655.398823457179
132,168.41314456572837,3007.6995593785105,2691.3004406214895
133,171.33181194779138,3028.920174849057,2727.079825150943
134,174.2493375588472,2938.262865407308,2762.737134592692
135,177.1657219481592,2892.727472089976,2798.272527910024
136,180.08096566466543,2965.3138345237476,2833.6861654762524
137,182.9950692569613,2903.021790931397,2868.978209068603
138,185.9080332733019,2910.8511781378857,2904.1488218621143
139,188.81985826161477,2918.8018315764766,2939.1981684235234
140,191.73054476948494,2846.873585294843,2974.126414705157
141,194.64009334417423,2772.0662719611755,3008.9337280388245
142,197.5485045326085,2700.379722870289,3043.620277129711
143,200.45577888135784,2830.813767949736,3078.186232050264
144,203.36191693668673,2718.36823576591,3112.63176423409
145,206.26691924451046,2670.042953530152,3146.957046469848
146,209.17078635041474,2645.8377471048725,3181.1622528951275
147,212.07351879965572,2800.752441009642,3215.247558990358
148,214.975117137149,2742.786858427312,3249.213141572688
149,217.87558190748723,2679.940821210119,3283.059178789881
150,220.77491365492253,2544.214149885792,3316.785850114208
151,223.6731129233731,2634.606663663666,3350.393336336334
152,226.5701802564384,2582.1181804407815,3383.8818195592185
153,229.46611619737095,2581.7485168080057,3417.2514831919943
154,232.3609212891045,2557.4974880561267,3450.5025119438733
155,235.254596074228,2549.364908181975,3483.635091818025
156,238.1471410950204,2556.3505898945223,3516.6494101054777
157,241.03855689340276,2433.4543446209955,3549.5456553790045
158,243.9288440109948,2473.675982512984,3582.324017487016
159,246.8180029890541,2565.015312452547,3614.984687547453
160,249.70603436854333,2286.472142058323,3647.527857941677
161,252.592938690076,2520.0462776916384,3679.9537223083616
162,255.47871649392968,2391.7375244626155,3712.2624755373845
163,258.363368320063,2308.5456862362817,3744.4543137637183
164,261.2468947081159,2311.470565638677,3776.529434361323
165,264.12929619738355,2286.5119640629637,3808.4880359370363
166,267.01057332684024,2241.669681675533,3840.330318324467
167,269.89072663511973,2250.9435174221153,3872.0564825778847
168,272.76975666055233,2225.333269033891,3903.666730966109
169,275.6476639411169,2269.838733033591,3935.161266966409
170,278.52444901448234,2074.4597047416137,3966.5402952583863
171,281.4001124179814,2115.1959782821305,3997.8040217178695
172,284.27465468862164,2052.0473465891937,4028.9526534108063
173,287.1480763630787,2140.013601412842,4059.986398587158
174,290.02037797772266,2056.0945333252184,4090.9054666747816
175,292.8915600685701,2138.2899317266683,4121.710068273332
176,295.7616231713273,2026.5995848518523,4152.400415148148
177,298.63056782137136,1907.023279775859,4182.976720224141
178,301.4983945537667,1946.560802420303,4213.439197579697
179,304.36510390322456,2014.2119375594448,4243.788062440555
180,307.23069640415906,1941.9764688262921,4274.023531173708
181,310.09517259065035,1906.8541787187105,4304.1458212812895
182,312.95853299644244,1845.8448486055304,4334.15515139447
183,315.82077815497587,1889.948258732662,4364.051741267338
184,318.68190859934845,1836.1641882291915,4393.8358117708085
185,321.5419248623545,1841.4924151135037,4423.507584886496
186,324.40082747645005,1880.9327162993814,4453.067283700619
187,327.2586169737681,1809.4848676021138,4482.515132397886
188,330.11529388612485,1837.1486437446129,4511.851356255387
189,332.9708587450158,1775.923818363508,4541.076181636492
190,335.8253120816024,1823.8101640152718,4570.189835984728
191,338.6786544267448,1736.8074521823146,4599.192547817685
192,341.5308863109626,1814.915453279099,4628.084546720901
193,344.38200826445666,1738.1339366582506,4656.866063341749
194,347.2320208171135,1742.4626706166582,4685.537329383342
195,350.0809244984986,1659.901422401591,4714.098577598409
196,352.92871983784795,1694.4499582168046,4742.550041783195
197,355.7754073640895,1637.1080432286435,4770.8919567713565
198,358.6209876058153,1673.8754415721587,4799.124558427841
199,361.4654610913093,1679.7519163572142,4827.248083642786
200,364.30882834853236,1514.7372296745862,4855.262770325414
201,367.1510899051333,1558.8311426020873,4883.168857397913
202,369.9922462884202,1522.0334152106598,4910.96658478934
203,372.8322980254065,1488.343806570495,4938.656193429505
204,375.67124564277583,1557.7620747571364,4966.237925242864
205,378.5090896668932,1525.2879768575904,4993.71202314241
206,381.34583062380057,1464.9212689764308,5021.078731023569
207,384.18146903923406,1484.6617062419118,5048.338293758088
208,387.0160054386023,1431.509042812082,5075.490957187918
209,389.8494403469996,1470.4630318808722,5102.536968119128
210,392.68177428920154,1473.5234256842323,5129.476574315768
211,395.51300778967135,1399.689975506215,5156.310024493785
212,398.3431413725471,1411.9624316850986,5183.037568314901
213,401.1721755616568,1449.3405436194917,5209.659456380508
214,404.00011088050945,1364.8240597744407,5236.175940225559
215,406.8269478523065,1326.4127276875388,5262.587272312461
216,409.65268699991304,1450.1062939750336,5288.893706024966
217,412.47732884589936,1408.904504337941,5315.095495662059
218,415.30087391251044,1296.807103568146,5341.192896431854
219,418.1233227216769,1434.8138355545143,5367.186164445486
220,420.9446757950149,1286.9244432890046,5393.075556710995
221,423.76493365383055,1429.138668872769,5418.861331127231
222,426.5840968191046,1309.4562535222722,5444.543746477728
223,429.4021658115188,1226.876937575389,5470.123062424611
224,432.2191411514271,1304.400460497518,5495.599539502482
225,435.0350233588802,1308.0265608876962,5520.973439112304
226,437.8498129536034,1309.7549764846917,5546.245023515308
227,440.6635104550185,1297.585444173128,5571.414555826872
228,443.47611638223714,1222.5176999895866,5596.482300010413
229,446.28763125404345,1197.551479128715,5621.448520871285
230,449.0980555889204,1317.68651594933,5646.31348405067
231,451.9073899050428,1194.9225439805396,5671.07745601946
232,454.71563472026685,1221.2592959278372,5695.740704072163
233,457.52279055212995,1213.6965036792171,5720.303496320783
234,460.3288579178725,1183.2338983112895,5744.7661016887105
235,463.13383733441157,1109.8712100953726,5769.128789904627
236,465.93772931835446,1076.6081685036133,5793.391831496387
237,468.740534386009,993.4445022150994,5817.555497784901
238,471.5422530533709,1099.379939121949,5841.620060878051
239,474.34288583609975,1169.414206335443,5865.585793664557
240,477.1424332495754,1035.547030192114,5889.452969807886
241,479.94089580885884,1044.778136259869,5913.221863740131
242,482.7382740286946,1072.107249344086,5936.892750655914
243,485.5345684235302,1179.5340934937376,5960.465906506262
244,488.3297795074833,1086.0583920074787,5983.941607992521
245,491.12390779439,1050.6798674397724,6007.320132560228
246,493.9169537977522,964.3982416069939,6030.601758393006
247,496.7089180307814,899.2132355935319,6053.786764406468
248,499.4998010063637,972.1245697579143,6076.875430242086
249,502.2896032371056,866.1319637388933,6099.868036261107
250,505.07832523527094,913.2351364615715,6122.7648635384285
251,507.8659675128352,958.4338061435028,6145.566193856497
252,510.6525305814745,1033.7276903008078,6168.272309699192
253,513.4380149525376,1016.1165057542712,6190.883494245729
254,516.2224211370742,873.5999686354608,6213.400031364539
255,519.0057496458431,873.1777943928319,6235.822205607168
256,521.7880009892673,835.849697797832,6258.150302202168
257,524.5691756774899,874.6153929510147,6280.384607048985
258,527.349274220333,891.4745932881524,6302.525406711848
259,530.1282971273154,883.4270115863274,6324.572988413673
260,532.9062449076541,934.4723599700628,6346.527640029937
261,535.6831180702653,869.6103499174151,6368.389650082585
262,538.4589171237501,878.840692266087,6390.159307733913
263,541.2336425764065,893.1630972195398,6411.83690278046
264,544.0072949362308,892.5772743530961,6433.422725646904
265,546.7798747109247,766.082932620051,6454.917067379949
266,549.5513824078598,747.6797803577847,6476.320219642215
267,552.3218185341308,844.367525293861,6497.632474706139
268,555.0911835965197,856.1458745521468,6518.854125447853
269,557.8594781014963,795.0145346589106,6539.985465341089
270,560.6267025552378,703.9732115489442,6561.026788451056
271,563.3928574636134,783.0216105716518,6581.978389428348
272,566.157943332193,728.159436497177,6602.840563502823
273,568.9219606662454,747.3863935225036,6623.613606477496
274,571.6849099707288,713.7021852775615,6644.2978147224385
275,574.4467917503048,608.106514831341,6664.893485168659
276,577.2076065093377,741.5990846979967,6685.400915302003
277,579.9673547518818,769.1795968429597,6705.82040315704
278,582.7260369816963,622.8477526890456,6726.152247310954
279,585.4836537022351,748.6032531225501,6746.39674687745
280,588.2402054166545,696.445798499386,6766.554201500614
281,590.9956926278119,594.3750886511643,6786.624911348836
282,593.7501158382588,642.3908228913169,6806.609177108683
283,596.5034755502411,558.4927000211974,6826.507299978803
284,599.2557722657269,504.6804183361983,6846.319581663802
285,602.0070064863595,668.9536756318521,6866.046324368148
286,604.7571787135041,490.31216920994484,6885.687830790055
287,607.5062894482053,493.7555958846169,6905.244404115383
288,610.2543391912278,594.2836519884804,6924.71634801152
289,613.0013284430221,481.8960333787272,6944.103966621273
290,615.7472577037522,391.5924354432318,6963.407564556768
291,618.4921274732767,613.3725531066575,6982.6274468933425
292,621.2359382511634,595.2360808365793,7001.763919163421
293,623.9786905366676,570.1827126495737,7020.817287350426
294,626.7203848287655,508.21214211734514,7039.787857882655
295,629.461021626125,519.3240623728179,7058.675937627182
296,632.2006014271102,460.5181661162587,7077.481833883741
297,634.9391247298017,508.7941456213739,7096.205854378626
298,637.6765920319783,537.1516927414268,7114.848307258573
299,640.4130038311263,514.5904989153441,7133.409501084656
300,643.1483606244258,442.11025517381313,7151.889744826187
301,645.8826629087713,319.7106521454134,7170.289347854587
302,648.615911180751,391.3913800626997,7188.6086199373
303,651.3481059366674,300.1521287683354,7206.847871231665
304,654.0792476725168,369.99258772117537,7225.007412278825
305,656.8093368840093,343.91244600239406,7243.087553997606
306,659.5383740665627,282.9113923215864,7261.088607678414
307,662.2663597152908,444.98911502287774,7279.010884977122
308,664.9932943250127,441.1453020910285,7296.8546979089715
309,667.7191783902655,378.3796411575513,7314.620358842449
310,670.4440124052783,258.69181950681195,7332.308180493188
311,673.1677968639898,300.08152408213573,7349.918475917864
312,675.8905322600505,395.54844149193013,7367.45155850807
313,678.6122190868176,427.0922580157712,7384.907741984229
314,681.3328578373408,292.7126596105336,7402.287340389466
315,684.0524490044011,309.4093319164858,7419.590668083514
316,686.7709930804666,389.18196026340775,7436.818039736592
317,689.4884905577176,251.0302296766822,7453.969770323318
318,692.2049419280413,363.953824883436,7471.046175116564
319,694.9203476830454,199.95243031860446,7488.0475696813955
320,697.6347083140254,229.02573013108122,7504.974269868919
321,700.3480243120076,259.1734081897994,7521.826591810201
322,703.0602961676999,238.39514808985223,7538.604851910148
323,705.7715243715453,259.6906331586015,7555.3093668413985
324,708.4817094136749,147.05954646177634,7571.940453538224
325,711.1908517839485,148.5015708095998,7588.4984291904
326,713.898951971916,151.0163887628769,7604.983611237123
327,716.6060104668494,311.60368263911914,7621.396317360881
328,719.3120277577308,292.2631345186401,7637.73686548136
329,722.0170043332379,168.99442625067604,7654.005573749324
330,724.7209406817824,296.7972394594817,7670.202760540518
331,727.4238372914718,157.67125555045823,7686.328744449542
332,730.1256946501194,312.6161557162359,7702.383844283764
333,732.8265132452582,166.63162094280779,7718.368379057192
334,735.5262935641329,296.71733201561256,7734.282667984387
335,738.2250360936999,235.87296952567522,7750.127030474325
336,740.9227413206145,179.098213875679,7765.901786124321
337,743.6194097312624,154.3927452861044,7781.607254713896
338,746.3150418117328,200.75624380132285,7797.243756198677
339,749.0096380478178,242.18838929570484,7812.811610704295
340,751.7031989250447,119.68886147973535,7828.311138520265
341,754.395724928622,176.25733990611297,7843.742660093887
342,757.0872165435093,164.89350397587077,7859.106496024129
343,759.777674254347,165.59703294447536,7874.402967055525
344,762.467098545498,143.36760592793325,7889.632394072067
345,765.1554899010542,201.2049019089136,7904.795098091086
346,767.8428488047955,203.10859974283994,7919.89140025716
347,770.5291757402347,140.0783781640057,7934.921621835994
348,773.21447119059,221.11391579168776,7949.886084208312
349,775.8987356388018,217.2148911362492,7964.785108863751
350,778.5819695675135,187.38098260524566,7979.619017394754
351,781.2641734591041,89.61186850953709,7994.388131490463
352,783.9453477956359,100.90722706940142,8009.092772930599
353,786.6254930589066,108.26673642063179,8023.733263579368
354,789.304609730443,187.69007462065383,8038.309925379346
355,791.9826982914508,112.176919654632,8052.823080345368
356,794.6597592228886,36.72694944157956,8067.27305055842
357,797.335793005405,133.33984184045585,8081.660158159544
358,800.0108001193773,109.01527465629442,8095.984725343706
359,802.6847810448968,168.75292564629672,8110.247074353703
360,805.3577362617708,120.55247252594563,8124.447527474054
361,808.0296662495286,155.4135929751119,8138.586407024888
362,810.7005714874031,203.33596464416405,8152.664035355836
363,813.3704524543621,70.31926516008207,8166.680734839918
364,816.0393096290765,121.36317213255461,8180.636827867445
365,818.7071434899483,156.46736316009446,8194.532636839906
366,821.3739545150784,120.63151583615036,8208.36848416385
367,824.0397431823112,134.85530775520783,8222.144692244792
368,826.7045099691816,95.13841651890107,8235.861583481099
369,829.3682553529727,91.48051974212285,8249.519480257877
370,832.0309798106598,141.88129505913457,8263.118704940865
371,834.6926838189556,49.34042012966711,8276.659579870333
372,837.3533678542847,0.0,8290.142427354966
373,840.0130323927852,43.43243033424733,8303.567569665753
374,842.6716779103288,67.06467097011046,8316.93532902989
375,845.329304882494,0.0,8330.246027624658
376,847.9859137845843,0.0,8343.499987571327
377,850.6415050916322,0.0,8356.697530929037
378,853.2960792783794,147.16102031129958,8369.8389796887
379,855.9496368192856,140.07534423312063,8382.92465576688
380,858.6021781885507,28.045119000313207,8395.954880999687
381,861.2537038600642,0.0,8408.929977136682
382,863.9042143074706,123.14973416525208,8421.850265834748
383,866.5537100041132,133.28393134800172,8434.716068651998
384,869.2021914230661,30.472292958342223,8447.527707041658
385,871.8496590371261,170.71449765404031,8460.28550234596
386,874.496113318808,62.01022420997106,8472.989775790029
387,877.1415547403471,31.359151524207846,8485.640848475792
388,879.7859837737115,142.76095862415605,8498.239041375844
389,882.4294008905813,0.0,8510.784675327362
390,885.0718065623589,0.0,8523.278071025981
391,887.7132012601866,79.28045098030816,8535.719549019692
392,890.3535854549159,22.890570297262457,8548.109429702738
393,892.9929596171166,72.55196669050747,8560.448033309493
394,895.6313242171028,120.26432009163545,8572.735679908365
395,898.2686797248869,1.027310604316881,8584.972689395683
396,900.9050266102188,38.8406185104086,8597.159381489591
397,903.5403653425843,105.70392427606566,8609.296075723934
398,906.1746963911675,0.0,8621.383091442156
399,908.8080202249073,34.57925220881589,8633.420747791184
400,911.440337312444,0.0,8645.409363715327
401,914.0716481221547,3.650742049836481,8657.349257950164
402,916.7019531221288,0.0,8669.240749016435
403,919.3312527802059,3.9158447860663728,8681.084155213934
404,921.9595475639308,65.1202053845991,8692.8797946154
405,924.5868379405753,22.372014939590372,8704.62798506041
406,927.2131243771485,7.670955850733662,8716.329044149266
407,929.838407340382,0.0,8727.983289236887
408,932.462687296728,0.0,8739.59103742671
409,935.0859647123694,0.0,8751.152605564568
410,937.7082400532228,0.0,8762.66831023259
411,940.3295137849136,19.861532256907594,8774.138467743092
412,942.9497863728164,8.436605867535036,8785.563394132465
413,945.56905828203,0.0,8796.943405155065
414,948.1873299773584,0.0,8808.278816277116
415,950.8046019233606,30.43005732941492,8819.569942670585
416,953.4208745843155,5.182900792915461,8830.817099207085
417,956.0361484242229,57.97939954823414,8842.020600451766
418,958.6504239068178,0.0,8853.180760657197
419,961.2637014955725,0.0,8864.29789375727
420,963.8759816536715,13.627686638912564,8875.372313361087
421,966.487264844032,0.0,8886.40433274684
422,969.0975515293113,0.0,8897.39426485573
423,971.7068421718914,37.65757771418066,8908.34242228582
424,974.3151372338787,14.75088271403547,8919.249117285965
425,976.9224371771173,0.0,8930.114661749676
426,979.528742463176,106.06063279096998,8940.93936720903
427,982.1340535533631,0.0,8951.723544828543
428,984.7383709087011,0.0,8962.467505399083
429,987.3416949899563,0.0,8973.17155933174
430,989.9440262576219,0.0,8983.836016651734
431,992.5453651719309,63.53881300770445,8994.461186992296
432,995.1457121928345,0.0,9005.047379588566
433,997.745067780019,0.0,9015.594903271483
434,1000.3434323929131,20.895933538326062,9026.104066461674
435,1002.9408064906589,0.0,9036.575177163348
436,1005.5371905321516,48.99145704181683,9047.008542958183
437,1008.1325849760022,0.0,9057.404470999225
438,1010.7269902805637,0.0,9067.763268004774
439,1013.320406903918,0.0,9078.085240252278
440,1015.9128353038824,0.0,9088.370693572226
441,1018.5042759380011,0.0,9098.61993334203
442,1021.094729263569,0.0,9108.833264479928
443,1023.6841957375923,0.0,9119.01099143887
444,1026.272675816824,53.84658179958569,9129.153418200414
445,1028.8601699577453,0.0,9139.26084826861
446,1031.4466786165844,77.66641533610527,9149.333584663895
447,1034.0322022492853,9.628070083012062,9159.371929916988
448,1036.6167413115336,42.62381393722535,9169.376186062775
449,1039.200296258766,0.0,9179.346654634206
450,1041.7828675461258,9.71636334381219,9189.283636656188
451,1044.3644556285121,0.0,9199.187432639463
452,1046.945060960557,0.0,9209.05834257452
453,1049.5246839966146,39.10333407452708,9218.896665925473
454,1052.1033251907966,0.0,9228.702701623948
455,1054.6809849969304,121.5232519370038,9238.476748062996
456,1057.257663868588,0.0,9248.219103090954
457,1059.8333622590803,63.06993599463385,9257.930064005366
458,1062.4080806214504,0.0,9267.609927546855
459,1064.9818194084803,3.7410101069763186,9277.258989893024
460,1067.5545790726921,0.0,9286.87754665234
461,1070.1263600663372,0.0,9296.465892858034
462,1072.6971628414149,165.97567703801178,9306.024322961988
463,1075.2669878496495,41.44686917137369,9315.553130828626
464,1077.8358355425155,148.94739027119795,9325.052609728802
465,1080.4037063712103,74.47694766629502,9334.523052333705
466,1082.9706007866864,0.0,9343.964750708734
467,1085.5365192396246,138.62200369260245,9353.377996307398
468,1088.1014621804438,169.23692003479118,9362.763079965209
469,1090.6654300593113,103.8797081064331,9372.120291893567
470,1093.228423326121,0.0,9381.44992167366
471,1095.7904424305154,66.24774174965023,9390.75225825035
472,1098.351487821864,58.97241007394405,9400.027589926056
473,1100.9115599492866,158.72379564533185,9409.276204354668
474,1103.4706592616449,67.50161146457867,9418.498388535421
475,1106.02878620753,88.30557119321747,9427.694428806783
476,1108.5859412352806,158.13538915963727,9436.864610840363
477,1111.14212479297,5.990780365207684,9446.009219634792
478,1113.6973373284277,122.87146049038347,9455.128539509617
479,1116.251579289199,174.7771459008145,9464.222854099185
480,1118.804851122585,66.70755365344849,9473.292446346552
481,1121.3571532756257,73.66240150264639,9482.337598497354
482,1123.9084861951014,0.0,9491.358592093711
483,1126.4588503275409,128.6442920318823,9500.355707968118
484,1129.008246119193,12.670773762663885,9509.329226237336
485,1131.5566740160834,149.72057370372568,9518.279426296274
486,1134.104134463945,180.79341318810475,9527.206586811895
487,1136.65062790827,177.88901428290228,9536.110985717098
488,1139.1961547942988,200.00709979538806,9544.992900204612
489,1141.7407155669923,177.1473932791123,9553.852606720888
490,1144.2843106710754,214.30961904001015,9562.69038095999
491,1146.8269405510057,210.49350214251172,9571.506497857488
492,1149.368605650996,59.69876841565747,9580.301231584343
493,1151.9093064149793,179.9251444591864,9589.074855540814
494,1154.4490432866526,142.17235764967336,9597.827642350327
495,1156.9878167094457,111.44013614661526,9606.559863853385
496,1159.5256271265414,229.72820889854665,9615.271791101453
497,1162.062474980854,192.03630564914965,9623.96369435085
498,1164.598360715056,144.36415694336574,9632.635843056634
499,1167.1332847715569,156.71149413349121,9641.288505866509
500,1169.6672475925027,210.0780493852999,9649.9219506147
501,1172.2002496198031,201.46355568414583,9658.536444315854
502,1174.732291295093,60.867746841067856,9667.132253158932
503,1177.2633730597727,160.29035749891045,9675.70964250109
504,1179.7934953549716,132.7311231384174,9684.268876861583
505,1182.3226586215653,215.18978008434897,9692.810219915651
506,1184.850863300182,144.6660655115902,9701.33393448841
507,1187.3781098312013,147.1597174512517,9709.840282548748
508,1189.9043986547329,267.6704747967942,9718.329525203206
509,1192.429730210642,285.1980773101168,9726.801922689883
510,1194.9541049385446,246.74226562768126,9735.257734372319
511,1197.477523277792,266.30278126661324,9743.697218733387
512,1199.9999856674879,221.87936663081382,9752.120633369186
513,1202.5214925464873,264.4717650170642,9760.528234982936
514,1205.042044353389,288.0797206211373,9768.920279378863
515,1207.5616415265292,257.70297854391174,9777.297021456088
516,1210.0802845040125,474.34128479746323,9785.658715202537
517,1212.5979737236787,331.99438631119483,9794.005613688805
518,1215.1147096231118,292.6620309379232,9802.337969062077
519,1217.6304926396485,391.343967460014,9810.656032539986
520,1220.1453232103702,436.03994559545754,9818.960054404542
521,1222.659201772123,497.7497160040093,9827.25028399599
522,1225.1721287614785,390.4730302932767,9835.526969706723
523,1227.6841046147697,418.2096410248396,9843.79035897516
524,1230.1951297680778,333.9593017203424,9852.040698279658
525,1232.7052046572387,351.7217668676258,9860.278233132374
526,1235.2143297178204,345.4967919268256,9868.503208073174
527,1237.7225053851535,446.2841333364704,9876.71586666353
528,1240.2297320943242,393.0835485196003,9884.9164514804
529,1242.7360102801495,515.8947958898807,9893.10520411012
530,1245.2413403772102,264.7176348576977,9901.282365142302
531,1247.7457228198355,448.5518258362754,9909.448174163725
532,1250.2491580421051,612.3971302477839,9917.602869752216
533,1252.751646477852,540.253310529446,9925.746689470554
534,1255.2531885606527,355.1201301396377,9933.879869860362
535,1257.7537847238304,542.9973535640165,9942.002646435983
536,1260.253435400485,490.8847463216098,9950.11525367839
537,1262.752141023432,574.7820749709372,9958.217925029063
538,1265.24990202527,647.6891071161135,9966.310892883886
539,1267.7467188383337,433.60561141294784,9974.394388587052
540,1270.2425918947056,536.531357575077,9982.468642424923
541,1272.7375216262299,565.4661163800447,9990.533883619955
542,1275.231508464504,612.4096596754334,9998.590340324567
543,1277.7245528408664,563.3617603849543,10006.638239615046
544,1280.2166551864245,528.3221925145808,10014.67780748542
545,1282.707815932027,662.2907311586187,10022.709268841381
546,1285.1980355082733,805.2671525058558,10030.732847494144
547,1287.6873143455227,671.2512338456454,10038.748766154355
548,1290.1756528738822,717.2427535740208,10046.75724642598
549,1292.6630515232252,800.2414911998021,10054.758508800198
550,1295.1495107231667,685.2472273507137,10062.752772649286
551,1297.6350309030745,788.259743779472,10070.740256220528
552,1300.1196124920737,1010.2788233699248,10078.721176630075
553,1302.6032559190533,925.3042501431355,10086.695749856864
554,1305.085961612639,954.3358092634971,10094.664190736503
555,1307.5677300012255,990.3732870448403,10102.62671295516
556,1310.0485615129558,1037.4164709565575,10110.583529043442
557,1312.528456575725,1011.4651496296719,10118.534850370328
558,1315.0074156171947,977.5191128630049,10126.480887136995
559,1317.485439064766,1068.5781516292282,10134.421848370772
560,1319.962527345606,1026.6420580810045,10142.357941918995
561,1322.4386808866388,892.710625557087,10150.289374442913
562,1324.9139001145345,1092.783648588429,10158.216351411571
563,1327.3881854557364,911.8609229042886,10166.139077095711
564,1329.86153733642,832.9422454383403,10174.05775456166
565,1332.3339561825405,803.0274143347906,10181.97258566521
566,1334.8054424197987,885.1162289544754,10189.883771045525
567,1337.2759964736404,802.208489880968,10197.791510119032
568,1339.7456187692935,934.3039989266945,10205.696001073306
569,1342.2143097317264,905.4025591390491,10213.59744086095
570,1344.6820697856688,760.5039748064792,10221.49602519352
571,1347.1488993556054,1010.6080514646183,10229.391948535382
572,1349.6147988657824,782.7145959023837,10237.285404097616
573,1352.079768740203,890.8234161680812,10245.176583831919
574,1354.5438094026276,915.934321575518,10253.065678424482
575,1357.0069212765693,859.0471227101189,10260.952877289881
576,1359.4691047853119,970.1616314350158,10268.838368564984
577,1361.9303603518867,1016.2776608971799,10276.72233910282
578,1364.3906883990874,1014.3950255335112,10284.604974466489
579,1366.8500893494663,997.5135410769581,10292.486458923042
580,1369.30856362534,902.6330245626159,10300.366975437384
581,1371.7661116487689,950.753294333841,10308.246705666159
582,1374.2227338415896,931.8741700483624,10316.125829951638
583,1376.6784306253965,911.9954726843898,10324.00452731561
584,1379.133202421526,880.1170245467201,10331.88297545328
585,1381.5870496510993,788.2386492728365,10339.761350727164
586,1384.0399727349757,935.3601718390346,10347.639828160965
587,1386.4919720937928,770.4814185665164,10355.518581433484
588,1388.9430481479394,791.602217127509,10363.397782872491
589,1391.3932013175568,762.7223965513658,10371.277603448634
590,1393.8424320225672,854.8417872306836,10379.158212769316
591,1396.2907406826373,810.9602209273999,10387.0397790726
592,1398.7381277171949,819.0775307789008,10394.9224692211
593,1401.1845935454448,833.1935513041535,10402.806448695846
594,1403.6301385863333,701.3081184097791,10410.69188159022
595,1406.074763258588,836.4210693961886,10418.578930603811
596,1408.5184679806787,597.5322429636781,10426.467757036322
597,1410.961253170849,776.6414792185496,10434.35852078145
598,1413.403119247098,810.748619679196,10442.251380320804
599,1415.8440666271993,803.8535072822306,10450.14649271777
600,1418.2840957286726,669.9559863885988,10458.044013611401
601,1420.723206968814,680.0559027896616,10465.944097210338
602,1423.161400764671,630.1531037133354,10473.846896286665
603,1425.598677533067,591.247437830174,10481.752562169826
604,1428.0350376905767,675.3387552594904,10489.66124474051
605,1430.4704816535418,642.4269075754655,10497.573092424534
606,1432.9050098380687,881.5117478132488,10505.488252186751
607,1435.3386226600269,623.5931304750811,10513.406869524919
608,1437.7713205350517,716.6709115363865,10521.329088463614
609,1440.2031038785335,700.7449484518947,10529.255051548105
610,1442.633973105646,634.8151001617334,10537.184899838267
611,1445.0639286313046,574.8812270975577,10545.118772902442
612,1447.4929708701993,653.9431911886386,10553.056808811361
613,1449.9211002367945,645.0008558679874,10560.999144132013
614,1452.3483171452988,704.0540860784513,10568.945913921549
615,1454.7746220097063,523.1027482788395,10576.89725172116
616,1457.2000152437633,690.1467104500025,10584.853289549997
617,1459.6244972609807,551.1858421009729,10592.814157899027
618,1462.048068474641,472.22001427504983,10600.77998572495
619,1464.4707292977969,492.2490995559274,10608.750900444073
620,1466.8924801432563,551.2729720737789,10616.727027926221
621,1469.3133214235886,599.2915075113942,10624.708492488606
622,1471.7332535511505,554.304583110259,10632.695416889741
623,1474.1522769380492,516.3120776766918,10640.687922323308
624,1476.5703919961604,384.3138715879177,10648.686128412082
625,1478.9875991371316,506.30984679822177,10656.690153201778
626,1481.4038987723677,599.299886845014,10664.700113154986
627,1483.819291313046,462.28387685497364,10672.716123145026
628,1486.2337771701182,609.2617035501225,10680.738296449877
629,1488.6473567542907,427.23325525396285,10688.766744746037
630,1491.0600304760403,578.1984218975758,10696.801578102424
631,1493.4717987456206,534.157095025721,10704.842904974279
632,1495.8826619730505,603.1091678029643,10712.890832197036
633,1498.2926205681047,550.0545350197663,10720.945464980234
634,1500.7016749403317,541.9930930986102,10729.00690690139
635,1503.1098254990588,598.924740100083,10737.075259899917
636,1505.517072653373,514.8493757290162,10745.150624270984
637,1507.923416812127,536.7669013405666,10753.233098659433
638,1510.3288583839521,551.6772199463503,10761.32278005365
639,1512.7333977772391,596.5802362205304,10769.41976377947
640,1515.1370354001579,592.4758565059292,10777.52414349407
641,1517.539771660626,638.3639888201524,10785.636011179848
642,1519.9416069663582,703.244542861672,10793.755457138328
643,1522.3425417248254,682.1174300159582,10801.882569984042
644,1524.7425763432652,650.9825633615783,10810.017436638422
645,1527.1417112286997,652.8398576763011,10818.160142323699
646,1529.539946787898,606.6892294432109,10826.310770556789
647,1531.9372834274184,657.5305968568155,10834.469403143185
648,1534.3337215535917,696.3638798291558,10842.636120170844
649,1536.7292615724973,672.1889999959039,10850.811000004096
650,1539.1239038900083,748.0058807224923,10858.994119277508
651,1541.517648911753,747.8144471102023,10867.185552889798
652,1543.910497043145,767.6146260022833,10875.385373997717
653,1546.3024486893632,567.4063459900572,10883.593654009943
654,1548.6935042553448,671.1895374190262,10891.810462580974
655,1551.08366414582,709.9641323949891,10900.035867605011
656,1553.4729287652783,772.7300647901393,10908.26993520986
657,1555.8612985179932,656.4872702491793,10916.51272975082
658,1558.248773807988,755.2356861954322,10924.764313804568
659,1560.6353550390804,858.9752518369296,10933.02474816307
660,1563.021042614843,791.705908172562,10941.294091827438
661,1565.405836938638,655.4275979981394,10949.57240200186
662,1567.7897384135867,729.1402659125379,10957.859734087462
663,1570.1727474425943,808.8438583237712,10966.156141676229
664,1572.5548644283288,843.5383234551537,10974.461676544846
665,1574.9360897732374,598.2236113513445,10982.776388648655
666,1577.316423879533,771.8996738845035,10991.100326115497
667,1579.6958671492164,817.5664647603735,10999.433535239627
668,1582.074419984056,795.2239395244123,11007.776060475588
669,1584.4520827855836,939.8720555678756,11016.127944432124
670,1586.828855955117,809.5107721339355,11024.489227866065
671,1589.2047398937543,708.1400503238037,11032.859949676196
672,1591.579735002338,786.7598531028252,11041.240146897175
673,1593.953841681527,703.3701453065751,11049.629854693425
674,1596.3270603317142,803.970893646996,11058.029106353004
675,1598.6993913531007,786.5620667184776,11066.437933281522
676,1601.0708351456424,775.1436350039967,11074.856364996003
677,1603.441392109082,789.7155708811915,11083.284429118808
678,1605.811062642922,780.2778486284988,11091.722151371501
679,1608.1798471464615,720.8304444312398,11100.16955556876
680,1610.5477460187558,729.3733363877509,11108.62666361225
681,1612.9147596586463,605.9065045154657,11117.093495484534
682,1615.2808884647463,608.4299307570582,11125.570069242942
683,1617.646132835457,572.9435989865069,11134.056401013493
684,1620.0104931689361,592.4474950152489,11142.552504984751
685,1622.3739698631293,637.9416065982568,11151.058393401743
686,1624.736563315759,609.4259234401579,11159.574076559842
687,1627.0982739243195,532.9004372013551,11168.099562798645
688,1629.459102086095,452.3651415040986,11176.634858495901
689,1631.8190481981226,639.8200319386378,11185.179968061362
690,1634.1781126572441,515.2651060693133,11193.734893930687
691,1636.5362958600588,461.70036344064283,11202.299636559357
692,1638.8935982029461,530.1258055834696,11210.87419441653
693,1641.2500200820805,429.5414360210416,11219.458563978958
694,1643.6055618933883,463.9472602751266,11228.052739724873
695,1645.960224032593,332.3432858721353,11236.656714127865
696,1648.3140068951873,381.7295223492056,11245.270477650794
697,1650.6669108764497,536.1059812603307,11253.89401873967
698,1653.0189363714244,422.4726761824568,11262.527323817543
699,1655.3700837749454,401.829622721596,11271.170377278404
700,1657.7203534816279,494.1768385189389,11279.823161481061
701,1660.069745885852,397.5143432569457,11288.485656743054
702,1662.4182613817948,369.842158665484,11297.157841334516
703,1664.7659003633883,462.1603085279112,11305.839691472089
704,1667.11266322438,482.4688186871899,11314.53118131281
705,1669.458550358255,404.76771705200736,11323.232282947993
706,1671.80356215831,340.05703360286316,11331.942966397137
707,1674.1476990176068,395.33680039819956,11340.6631996018
708,1676.4909613289979,469.6070515805077,11349.392948419492
709,1678.8333494851029,320.8678233824012,11358.132176617599
710,1681.1748638783274,353.11915413279166,11366.880845867208
711,1683.5155049008576,369.36108426292776,11375.638915737072
712,1685.855272944665,463.5936563125433,11384.406343687457
713,1688.1941684014917,308.8169149359546,11393.183085064045
714,1690.532191662873,396.0309069081777,11401.969093091822
715,1692.869343120119,644.2356811310201,11410.76431886898
716,1695.2056231643153,246.4312886392072,11419.568711360793
717,1697.5410321863421,435.61778260647407,11428.382217393526
718,1699.8755705768506,455.7952183516918,11437.204781648308
719,1702.2092387262728,571.9636533449648,11446.036346655035
720,1704.5420370248328,454.1231472137333,11454.876852786267
721,1706.873965862533,516.2737617489038,11463.726238251096
722,1709.2050256291443,589.4155609109348,11472.584439089065
723,1711.5352167142444,545.5486108359473,11481.451389164053
724,1713.8645395071744,456.67297984184916,11490.32702015815
725,1716.1929943970636,551.7887384344394,11499.21126156556
726,1718.52058177283,446.8959593134987,11508.104040686501
727,1720.8473020231622,386.99471737893145,11517.005282621069
728,1723.173155536539,568.0850897368273,11525.914910263173
729,1725.4981427012347,422.16715570561064,11534.83284429439
730,1727.822263905283,514.2409968221436,11543.759003177856
731,1730.1455195365181,532.3066968478124,11552.693303152188
732,1732.4679099825535,466.36434177463525,11561.635658225365
733,1734.7894356307784,354.4140198314308,11570.58598016857
734,1737.1100968683836,557.4558214898352,11579.544178510165
735,1739.429894082327,463.4898394704687,11588.510160529531
736,1741.7488276593613,472.5161687490581,11597.483831250942
737,1744.0668979860257,556.5349065624687,11606.465093437531
738,1746.3841054486304,431.5461524149068,11615.453847585093
739,1748.7004504332815,483.55000808396835,11624.449991916032
740,1751.015933325864,352.54657762675015,11633.45342237325
741,1753.3305545120609,541.5359673859966,11642.464032614003
742,1755.6443143773256,283.51828599617147,11651.481714003829
743,1757.957213306897,514.493644389564,11660.506355610436
744,1760.2692516858099,508.4621558024428,11669.537844197557
745,1762.58042989888,423.4239357811057,11678.576064218894
746,1764.890748330709,399.37910218801153,11687.620897811988
747,1767.2002073656786,350.3277752079248,11696.672224792075
748,1769.5088073879738,391.2700773539673,11705.729922646033
749,1771.8165487815409,284.2061334737555,11714.793866526245
750,1774.1234319301334,320.13607075550317,11723.863929244497
751,1776.4294572172814,365.0600187341388,11732.939981265861
752,1778.7346250263042,301.97810929741536,11742.021890702585
753,1781.038935740316,356.89047669197134,11751.109523308029
754,1783.3423897422,197.79725752953345,11760.202742470467
755,1785.6449874146433,318.69859079292473,11769.301409207075
756,1787.946729140111,246.59461784223822,11778.405382157762
757,1790.2476153008558,217.48548242092693,11787.514517579073
758,1792.5476462789247,202.3713306619029,11796.628669338097
759,1794.8468224561498,231.2523110936654,11805.747688906335
760,1797.1451442141463,202.12857464637273,11814.871425353627
761,1799.442611934328,64.00027465801031,11823.99972534199
762,1801.7392259978872,268.86756688044443,11833.132433119556
763,1804.0349867857976,168.73060948555394,11842.269390514446
764,1806.329894678846,86.58956307133121,11851.410436928669
765,1808.623950057583,194.44459066800482,11860.555409331995
766,1810.9171533023664,146.29585774413863,11869.704142255861
767,1813.2095047933326,36.14353221272722,11878.856467787273
768,1815.5010049103992,52.98778443732954,11888.01221556267
769,1817.791654033299,0.0,11897.171212761838
770,1820.0814525415333,55.666715898214534,11906.333284101785
771,1822.3704008143927,0.0,11915.49825183066
772,1824.6584992309688,0.0,11924.665935721601
773,1826.9457481701404,0.0,11933.83615306667
774,1829.2321480105604,0.0,11943.008718670724
775,1831.517699130694,0.0,11952.183444845296
776,1833.8024019087904,0.0,11961.360141402512
777,1836.086256722879,0.0,11970.538615648957
778,1838.3692639507951,30.281327620406955,11979.718672379593
779,1840.6514239701537,0.0,11988.900113871628
780,1842.9327371583568,30.917260121592335,11998.082739878408
781,1845.213203892609,113.73365237666803,12007.266347623332
782,1847.4928245499073,0.0,12016.450731793715
783,1849.7715995070266,21.364315465296386,12025.635684534704
784,1852.0495291405475,100.17900455685049,12034.82099544315
785,1854.3266138268248,0.0,12044.0064515615
786,1856.602853942033,26.808162628285572,12053.191837371714
787,1858.8782498621024,52.62306521088067,12062.37693478912
788,1861.1528019627888,38.43847684366483,12071.561523156335
789,1863.4265106196165,94.25462076286385,12080.745379237136
790,1865.6993762079214,82.07172278962935,12089.92827721037
791,1867.9713991028154,0.0,12099.10998866384
792,1870.2425796792072,234.70971741182075,12108.29028258818
793,1872.5129183118058,192.53107462924163,12117.468925370758
794,1874.782415375105,219.35431921042618,12126.645680789574
795,1877.0510712433959,178.17968999284312,12135.820310007157
796,1879.3188862907648,140.00742843557964,12144.99257156442
797,1881.5858608910858,184.83777862540228,12154.162221374598
798,1883.8519954180224,282.67098728287783,12163.329012717122
799,1886.117290245048,256.5073037685106,12172.49269623149
800,1888.3817457454188,244.34698008881242,12181.653019911188
801,1890.6453622921756,178.19027090244344,12190.809729097557
802,1892.9081402581783,172.03743352630408,12199.962566473696
803,1895.1700800160584,291.8887279416231,12209.111272058377
804,1897.4311819382542,236.74441680010023,12218.2555831999
805,1899.69144639699,282.60476543001823,12227.395234569982
806,1901.950873764292,406.4700418423108,12236.52995815769
807,1904.209464411973,276.34051673671456,12245.659483263285
808,1906.467218711651,212.2164635078443,12254.783536492156
809,1908.7241370347397,317.09815825132864,12263.901841748671
810,1910.9802197524282,254.98587976989256,12273.014120230107
811,1913.2354672357242,352.8799095794875,12282.120090420512
812,1915.4898798554204,207.78053191539584,12291.219468084604
813,1917.7434579821127,272.6880337383245,12300.311966261675
814,1919.9962019861794,242.6027047405223,12309.397295259478
815,1922.248112237795,227.52483735191163,12318.475162648088
816,1924.499189106955,224.4547267461512,12327.545273253849
817,1926.749432963422,390.3926708467716,12336.607329153228
818,1928.9988441767632,253.33897033330322,12345.661029666697
819,1931.2474231163558,205.29392864732654,12354.706071352673
820,1933.4951701513555,317.25785199866004,12363.74214800134
821,1935.7420856507272,261.2310493713903,12372.76895062861
822,1937.9881699832188,213.2138325300166,12381.786167469983
823,1940.233423517396,288.2065160255843,12390.793483974416
824,1942.4778466216037,136.20941720176052,12399.79058279824
825,1944.7214396639936,99.22285620092225,12408.777143799078
826,1946.9642030125046,260.24715597032446,12417.752844029676
827,1949.206137034894,149.28264226815736,12426.717357731843
828,1951.447242098689,100.32964366967462,12435.670356330325
829,1953.687518571241,278.3884915733215,12444.611508426678
830,1955.9269668196805,224.4595202067976,12453.540479793202
831,1958.165587210947,163.54306663321222,12462.456933366788
832,1960.4033801117696,30.63947075713986,12471.36052924286
833,1962.6403458886848,175.74907533079204,12480.250924669208
834,1964.8764849080226,187.87222596009633,12489.127774039904
835,1967.1117975359116,241.0092711107627,12497.990728889237
836,1969.3462841382832,136.16056211447903,12506.839437885521
837,1971.5799450808665,173.32645317494826,12515.673546825052
838,1973.8127807291858,268.5073013740148,12524.492698625985
839,1976.044791448567,221.70346667779086,12533.29653332221
840,1978.2759776041346,86.91531194276831,12542.084688057232
841,1980.506339560816,124.14320292187767,12550.856797078122
842,1982.7358776833412,238.38750827064723,12559.612491729353
843,1984.9645923362252,114.64859955331849,12568.351400446682
844,1987.1924838837995,151.92685124889795,12577.073148751102
845,1989.4195526901863,102.22264075731437,12585.777359242686
846,1991.6457991193092,225.53634840550694,12594.463651594493
847,1993.8712235348962,104.86835745353528,12603.131642546465
848,1996.0958263004804,44.21905410073123,12611.780945899269
849,1998.3196077793782,199.58882749170698,12620.411172508293
850,2000.5425683347253,0.0,12629.021930277437
851,2002.7647083294457,163.3871758469504,12637.61282415305
852,2004.9860281262634,169.81654388218521,12646.183456117815
853,2007.2065280877248,118.26657481535949,12654.73342518464
854,2009.4262085761507,159.73767260944805,12663.262327390552
855,2011.64506995368,184.2302442094242,12671.769755790576
856,2013.8631125822471,142.7446995483533,12680.255300451647
857,2016.0803368235902,34.2814515535174,12688.718548446483
858,2018.2967430392428,203.84091615251782,12697.159083847482
859,2020.5123315905562,265.4235122793616,12705.576487720638
860,2022.727102838663,222.02966188062237,12713.970338119378
861,2024.9410571445228,188.65978992149212,12722.340210078508
862,2027.1541948688687,80.3143243919476,12730.685675608052
863,2029.366516372263,105.99369631277841,12739.006303687222
864,2031.5780220150557,87.69833974177709,12747.301660258223
865,2033.7887121574033,131.42869177980901,12755.571308220191
866,2035.9985871592676,179.18519257691332,12763.814807423087
867,2038.2076473804043,399.96828533843836,12772.031714661562
868,2040.4158931803888,138.7784163311244,12780.221583668876
869,2042.6233249185868,267.61603488923356,12788.383965110766
870,2044.829942954166,230.481593420629,12796.518406579371
871,2047.0357476461122,220.37554741293206,12804.624452587068
872,2049.2407393532053,233.2983554395778,12812.701644560422
873,2051.4449184340237,189.25047916596122,12820.749520834039
874,2053.6482852469567,335.2323833555074,12828.767616644493
875,2055.850840150203,276.24453587582866,12836.755464124171
876,2058.052583501749,264.2874077048182,12844.712592295182
877,2060.2535156594136,333.3614729367091,12852.63852706329
878,2062.453636980787,133.46720878825363,12860.532791211746
879,2064.652947823286,296.6050956047802,12868.39490439522
880,2066.8514485441347,127.77561686636545,12876.224383133635
881,2069.049139500341,265.9792591938167,12884.020740806183
882,2071.2460210487393,300.21651235497666,12891.783487645023
883,2073.4420935459566,71.4878692706061,12899.512130729394
884,2075.637357348435,90.79382602067926,12907.20617397932
885,2077.8318128124133,189.13488185039387,12914.865118149606
886,2080.0254602939367,223.51153917629745,12922.488460823703
887,2082.218300148873,329.9243035924119,12930.075696407588
888,2084.4103327328667,298.37368387634524,12937.626316123655
889,2086.6015584013926,212.86019199535258,12945.139808004647
890,2088.79197750972,163.38434311250057,12952.6156568875
891,2090.9815904129273,66.94665559276291,12960.053344407237
892,2093.170397465902,231.54765100910663,12967.452348990893
893,2095.358399023335,97.1878541486094,12974.81214585139
894,2097.5455954397294,244.86779301860224,12982.132206981398
895,2099.7319870693786,152.5879988527031,12989.412001147297
896,2101.9175742664115,280.3490061170105,12996.65099388299
897,2104.102357384735,146.1513525161663,13003.848647483834
898,2106.286336778086,196.99557899945103,13011.004421000549
899,2108.46951279999,132.88222976693214,13018.117770233068
900,2110.651885803799,191.8118522755376,13025.188147724462
901,2112.8334561426514,112.78499724519497,13032.215002754805
902,2115.0142241695125,206.80221866491047,13039.19778133509
903,2117.1941902371454,190.86407379889533,13046.135926201105
904,2119.373354698131,94.97112319268126,13053.028876807319
905,2121.5517179048366,86.12393067919038,13059.87606932081
906,2123.7292802094694,100.32306338489798,13066.676936615102
907,2125.906041964016,96.56909173590066,13073.4309082641
908,2128.082003520287,95.86258946406451,13080.137410535935
909,2130.2571652299,160.20413361304963,13086.79586638695
910,2132.431527444281,105.59430454454196,13093.405695455458
911,2134.605090514663,139.03368594424683,13099.966314055753
912,2136.7778547920902,78.52286482807904,13106.477135171921
913,2138.949820627415,146.06243154821277,13112.937568451787
914,2141.120988371295,0.0,13119.347020200737
915,2143.2913583742015,214.29510662428402,13125.704893375716
916,2145.4609309864263,35.98941242098226,13132.010587579018
917,2147.6297065580493,154.73650094777986,13138.26349905222
918,2149.7976854389726,15.53697932992145,13144.463020670079
919,2151.9648679789148,30.391458065590996,13150.608541934409
920,2154.1312545273913,10.300551032012663,13156.699448967987
921,2156.296845433731,0.0,13162.735124508437
922,2158.461641047079,72.28505209790637,13168.714947902094
923,2160.6256417163904,49.36170490205404,13174.638295097946
924,2162.78884779042,168.4954613584796,13180.50453864152
925,2164.9512596177524,0.0,13186.313047668711
926,2167.1128775467605,88.93681210024806,13192.063187899752
927,2169.273701925654,100.24567836696406,13197.754321633036
928,2171.433733102429,33.61419226091493,13203.385807739085
929,2173.5929714249123,0.0,13208.957001654375
930,2175.751417240728,38.532744624748375,13214.467255375252
931,2177.909070897315,0.0,13219.915917451812
932,2180.065932741936,57.69766701815388,13225.302332981846
933,2182.22200312165,76.37415639536266,13230.625843604637
934,2184.3772823833306,68.11421250506828,13235.885787494932
935,2186.5317708736784,0.0,13241.081499356795
936,2188.6854689391894,23.787689582470193,13246.21231041753
937,2190.83837692617,101.72245157849102,13251.277548421509
938,2192.9904951807566,0.0,13256.276537624148
939,2195.141824048888,90.79140121426826,13261.208598785732
940,2197.2923638763136,0.0,13266.07304916533
941,2199.4421150085973,81.130797485308,13270.869202514692
942,2201.591077791111,0.0,13275.596369072147
943,2203.7392525690607,118.74614444352483,13280.253855556475
944,2205.8866396874337,201.15903483922375,13284.840965160776
945,2208.0332394910592,122.6430024535548,13289.356997546445
946,2210.179052324565,60.19875116302137,13293.801248836979
947,2212.324078532395,0.0,13298.173011611896
948,2214.4683184588075,139.52842509935,13302.47157490065
949,2216.611772447876,124.30377582350775,13306.696224176492
950,2218.7544408434856,0.0,13310.846241350351
951,2220.8963239893396,129.07909523519993,13314.9209047648
952,2223.037422228948,103.08051081215672,13318.919489187843
953,2225.1777359056464,0.0,13322.841265806874
954,2227.3172653625725,0.0,13326.685502222568
955,2229.4560109426875,165.54853755725708,13330.451462442743
956,2231.5939729887664,0.0,13334.138406876256
957,2233.731151843397,42.25440767307737,13337.745592326923
958,2235.86754784898,48.72772801263636,13341.272271987364
959,2238.003161347732,0.0,13344.717695432966
960,2240.1379926816935,115.91889138431725,13348.081108615683
961,2242.2720421927065,240.63824614198893,13351.361753858011
962,2244.4053102224357,275.44113015318726,13354.558869846813
963,2246.5377971123676,75.3283083727365,13357.671691627263
964,2248.6695032037987,213.30054940328773,13360.699450596712
965,2250.8004288378324,220.35862550143065,13363.64137449857
966,2252.9305743554014,221.50331258377992,13366.49668741622
967,2255.0599400972496,228.7353902331015,13369.264609766899
968,2257.1885264039424,192.05564170440266,13371.944358295597
969,2259.316333615845,173.46485393108742,13374.535146068913
970,2261.443362073163,45.963817530991946,13377.036182469008
971,2263.5696121158994,173.55332681252912,13379.44667318747
972,2265.6950840838813,145.23417978086582,13381.765820219134
973,2267.819778316758,152.007178143871,13383.992821856129
974,2269.943695153982,40.873127318380284,13386.12687268162
975,2272.0668349348402,196.83283643624236,13388.167163563758
976,2274.1891979984225,364.8871183503943,13390.112881649606
977,2276.3107846836424,200.03678964102073,13391.96321035898
978,2278.431595329226,131.28267062166196,13393.717329378338
979,2280.5516302737265,264.62558534528944,13395.37441465471
980,2282.670889855512,0.0,13396.933638389593
981,2284.789374412757,305.60583096722985,13398.39416903277
982,2286.907084283474,150.2448287237239,13399.755171276276
983,2289.0240198054694,285.9841939517355,13401.015806048264
984,2291.1401813163952,314.8247694931015,13402.175230506899
985,2293.2555691536977,222.76740196574247,13403.232598034258
986,2295.3701836546575,273.8129417698219,13404.187058230178
987,2297.4840251563637,237.96224309379613,13405.037756906204
988,2299.597093995734,217.2161639205333,13405.783836079467
989,2301.709390509492,338.5755660334762,13406.424433966524
990,2303.8209150341954,132.04131502264136,13406.958684977359
991,2305.931667906211,205.61428029086892,13407.385719709131
992,2308.041649461722,195.29533505981817,13407.704664940182
993,2310.1508600367424,247.08535637610476,13407.914643623895
994,2312.259299967099,361.98522511743795,13408.014774882562
995,2314.3669695884396,268.9958259987252,13408.004174001275
996,2316.4738692362266,272.1180475781366,13407.881952421863
997,2318.5799992457482,367.3527822632459,13407.647217736754
998,2320.685359952115,277.7009263171494,13407.29907368285
999,2322.789951690251,419.16337986455255,13406.836620135447
1000,2324.8937747949017,203.7410468979142,13406.258953102086
1001,2326.9968296006336,245.43483528348224,13405.565164716518
1002,2329.0991164418388,397.24565676745624,13404.754343232544
1003,2331.2006356527227,544.174426982132,13403.825573017868
1004,2333.301387567315,452.22206545193694,13402.777934548063
1005,2335.4013725194654,255.3894955995238,13401.610504400476
1006,2337.5005908428434,355.677644752006,13400.322355247994
1007,2339.599042870946,343.0874441469168,13398.912555853083
1008,2341.69672893708,520.6198289384047,13397.380171061595
1009,2343.7936493743796,476.2757382033451,13395.724261796655
1010,2345.8898045158035,457.05611494738696,13393.943885052613
1011,2347.985194694135,485.9619061111189,13392.038093888881
1012,2350.079820241961,481.9940625761519,13390.005937423848
1013,2352.173681491713,582.1535391712459,13387.846460828754
1014,2354.2667787756286,554.4412946783668,13385.558705321633
1015,2356.3591124257714,628.8582918388965,13383.141708161103
1016,2358.4506827740274,676.4054973596212,13380.594502640379
1017,2360.5414901521194,456.08388191894846,13377.916118081052
1018,2362.6315348915587,679.8944201729137,13375.105579827086
1019,2364.720817323708,603.8380907613755,13372.161909238625
1020,2366.8093377797504,489.9158763140913,13369.084123685909
1021,2368.8970965906797,535.1287634568034,13365.871236543197
1022,2370.98409408732,481.47774281735474,13362.522257182645
1023,2373.070330600308,560.9638090318695,13359.03619096813
