pixel_index,raman_shift_cm-1,corrected_intensity,background_intensity
0,-228.03615456840282,607.3393768626456,55.66062313735438
1,-224.95924409098728,588.4333339806602,64.56666601933973
2,-221.88355426971083,584.5656433034185,73.43435669658153
3,-218.80908450551493,578.7361612787834,82.2638387212167
4,-215.7358341996988,572.9447447859881,91.05525521401191
5,-212.66380275396062,558.1912511348867,99.80874886511329
6,-209.5929895703694,556.475538065204,108.52446193479604
7,-206.52339405133682,542.7974637457858,117.20253625421427
8,-203.4550155997016,529.1568867738494,125.8431132261506
9,-200.38785361863216,520.5536661742341,134.44633382576595
10,-197.32190751168937,522.9876613986507,143.01233860134923
11,-194.25717668281138,515.458732324933,151.54126767506705
12,-191.1936605362985,497.96673925628664,160.03326074371336
13,-188.13135847683048,485.5115429205407,168.4884570794593
14,-185.07026990944925,479.0930044693971,176.90699553060287
15,-182.01039423958915,479.7109854776815,185.2890145223185
16,-178.95173087303797,468.3653479425931,193.63465205740692
17,-175.89427921595657,454.0559542829551,201.94404571704487
18,-172.83803867489166,438.7826673384653,210.21733266153473
19,-169.78300865674996,433.5453503689457,218.45464963105428
20,-166.729188568796,435.34386705359367,226.65613294640633
21,-163.67657781869758,420.1780814902314,234.82191850976855
22,-160.62517581446517,411.04785819455674,242.95214180544323
23,-157.5749819644843,401.95306209939326,251.04693790060674
24,-154.5259956775222,398.8935585539406,259.1064414460594
25,-151.4782163626973,387.86921332302467,267.13078667697533
26,-148.43164342950985,380.87989258634815,275.12010741365185
27,-145.38627628781765,374.9254629377405,283.0745370622595
28,-142.34211434787335,367.00579138440855,290.99420861559145
29,-139.29915702025906,368.1207453461865,298.8792546538135
30,-136.2574037159516,345.27019265478634,306.72980734521366
31,-133.21685384629424,357.45400155304816,314.54599844695184
32,-130.17750682297506,329.6720406941905,322.3279593058095
33,-127.13936205807023,328.92417914106045,330.07582085893955
34,-124.1024189640289,318.21028636538404,337.78971363461596
35,-121.06667695364285,309.5302322470165,345.4697677529835
36,-118.03213544008766,310.88388707319285,353.11611292680715
37,-114.99879383689016,311.27112153777745,360.72887846222255
38,-111.9666515579567,281.6918067405151,368.3081932594849
39,-108.93570801755355,278.1458141862811,375.8541858137189
40,-105.90596263031563,271.6330157843309,383.3669842156691
41,-102.87741481123345,258.15328384755145,390.84671615244855
42,-99.8500639756597,258.70649109171063,398.29350890828937
43,-96.82390953933078,246.29251063470804,405.70748936529196
44,-93.79895091832583,240.91121599582488,413.0887840041751
45,-90.77518752909899,242.56248109497471,420.4375189050253
46,-87.75261878846011,245.24618025195338,427.7538197480466
47,-84.7312441135898,225.9621881856895,435.0378118143105
48,-81.7110629220243,212.7103800134945,442.2896199865055
49,-78.6920746316728,211.4906312503133,449.5093687496867
50,-75.67427866078928,210.30281780797424,456.69718219202576
51,-72.6576744280007,196.14681599443946,463.85318400556054
52,-69.64226135229828,192.02250251305531,470.9774974869447
53,-66.62803885302019,181.92975446180264,478.07024553819736
54,-63.615006349890606,171.8684493325469,485.1315506674531
55,-60.603163262963264,159.83846501028864,492.16153498971136
56,-57.5925090126779,162.8396797724135,499.1603202275865
57,-54.58304301981468,152.87197228794292,506.1280277120571
58,-51.574764705535415,137.93522161678402,513.064778383216
59,-48.567673491335846,141.0293072089804,519.9706927910196
60,-45.561768799089016,127.15410890396163,526.8458910960384
61,-42.55705005102141,125.30950692979445,533.6904930702055
62,-39.553516669717325,120.4953819024322,540.5046180975678
63,-36.55116807812098,117.71161482496609,547.2883851750339
64,-33.550003699534415,119.95808708687434,554.0419129131257
65,-30.550022957619593,124.23468046327343,560.7653195367266
66,-27.551225276385445,109.54127711416777,567.4587228858322
67,-24.55361008020735,102.87775958370048,574.1222404162995
68,-21.55717679382498,80.24401079940333,580.7559892005967
69,-18.561924842311946,66.63991407144704,587.360085928553
70,-15.567853651123498,61.06535309189189,593.9346469081081
71,-12.574962646053153,60.52021193393739,600.4797880660626
72,-9.583251253254387,58.00437505117327,606.9956249488267
73,-6.592718899247132,41.517727276829305,613.4822727231707
74,-3.603365010891764,38.060153823025985,619.939846176974
75,-0.6151890154064421,31.631540280024524,626.3684597199755
76,2.371809659628549,28.231772615476757,632.7682273845232
77,5.357631586290316,20.860737173676284,639.1392628263237
78,8.34227733628734,25.518320674808365,645.4816793251916
79,11.325747480978986,4.204410214200038,651.7955897858
80,14.308042591384181,11.918893261570588,658.0811067384294
81,17.289163238153222,0.0,664.3383423397185
82,20.26910999158296,0.0,670.5674083734121
83,23.247883421629798,0.0,676.768416251113
84,26.225484097888025,0.0,682.9414770130298
85,29.201912589600642,0.0,689.0867013287282
86,32.17716946566371,0.0,695.2041994978794
87,35.151255294622004,0.0,701.2940814510104
88,38.124170644658186,0.0,707.356456750254
89,41.09591608362096,0.0,713.3914345900979
90,44.066492178986095,0.0,719.3991237981348
91,47.03589949790624,0.0,725.3796328358121
92,50.00413860715243,0.0,731.3330697991814
93,52.97121007317041,0.0,737.2595424196484
94,55.937114462059014,0.0,743.1591580647223
95,58.901852339537584,0.0,749.0320237387663
96,61.86542427100888,22.121753916253965,754.878246083746
97,64.82783082150702,86.3020686200191,760.6979313799809
98,67.78907255572787,162.5088144531079,766.4911855468921
99,70.74915003800736,246.74188585624654,772.2581141437535
100,73.70806383234958,351.00117762955904,777.998822370441
101,76.66581450239876,422.2865849318181,783.7134150681819
102,79.62240261146295,491.59800327969435,789.4019967203056
103,82.57782872247728,523.9353285470078,795.0646714529922
104,85.53209339806676,541.2984569639776,800.7015430360224
105,88.48519720047916,572.687285116472,806.312714883528
106,91.43714069163477,570.1017099452594,811.8982900547406
107,94.3879244330939,552.5416287452575,817.4583712547425
108,97.33754898608301,516.0069391647852,822.9930608352148
109,100.28601491147721,547.4975392048112,828.5024607951888
110,103.23332276980686,537.0133272182056,833.9866727817944
111,106.17947312124669,535.5542019089893,839.4457980910107
112,109.12446652565268,554.1200623315848,844.8799376684152
113,112.0683035425122,521.7108078900665,850.2891921099335
114,115.01098473097865,528.3263383374106,855.6736616625894
115,117.95251064985199,534.9665537747454,861.0334462252546
116,120.89288185760913,506.6313546506025,866.3686453493975
117,123.83209891236478,491.3206417601657,871.6793582398343
118,126.77016237188894,475.0343162445224,876.9656837554776
119,129.70707279362418,475.77227958991307,882.2277204100869
120,132.64283073466171,488.5344336269824,887.4655663730176
121,135.5774367517502,481.320680530029,892.679319469971
122,138.51089140128926,481.1309228162554,897.8690771837446
123,141.44319523935744,472.9650633450192,903.0349366549808
124,144.37434882166693,471.8230053170829,908.1769946829171
125,147.30435270360678,444.7046522738641,913.2953477261359
126,150.23320744021913,471.6099080966857,918.3900919033143
127,153.16091358619914,431.53867700602655,923.4613229939735
128,156.08747169591027,444.4908635607716,928.5091364392284
129,159.01288232336677,448.4663726574621,933.5336273425379
130,161.93714602225333,428.465109529546,938.534890470454
131,164.86026334590775,430.4869797466283,943.5130202533717
132,167.782234847336,412.5318892137208,948.4681107862792
133,170.703061079195,433.59974417049295,953.400255829507
134,173.62274259380547,417.69045119052225,958.3095488094777
135,176.54127994315428,437.8039171805442,963.1960828194558
136,179.45867367888565,394.9400493797027,968.0599506202973
137,182.37492435230772,403.09875535879996,972.9012446412
138,185.29003251439033,411.27994301954755,977.7200569804525
139,188.20399871576078,420.48352059381625,982.5164794061837
140,191.11682350671884,395.70939664288596,987.290603357114
141,194.02850743721743,418.9574800566969,992.0425199433031
142,196.93905105687978,402.2276800530991,996.7723199469009
143,199.8484549149888,416.51990617710305,1001.480093822897
144,202.75671956049334,410.83406830012984,1006.1659316998702
145,205.6638455420019,375.17007661926186,1010.8299233807381
146,208.5698334077955,371.52784165649246,1015.4721583435075
147,211.4746837058039,381.9072742579764,1020.0927257420236
148,214.37839698364678,402.30828559328074,1024.6917144067193
149,217.28097378858388,369.7307871546343,1029.2692128453657
150,220.1824146675496,358.1746907561783,1033.8253092438217
151,223.0827201671489,388.63990853321684,1038.3600914667832
152,225.98189083364827,420.12635294146685,1042.8736470585332
153,228.87992721298258,348.6339367563087,1047.3660632436913
154,231.77682985073972,361.16257307203637,1051.8374269279636
155,234.67259929219532,358.71217530110744,1056.2878246988926
156,237.56723608227585,351.282657173394,1060.717342826606
157,240.4607407655826,359.87393273543194,1065.126067264568
158,243.35311388638726,379.4859163496726,1069.5140836503274
159,246.24435598861453,338.11852269373185,1073.8814773062682
160,249.13446761587682,351.771666759641,1078.228333240359
161,252.02344931143102,346.44526385309723,1082.5547361469028
162,254.91130161822824,373.1392295927128,1086.8607704072872
163,257.7980250788683,367.85347990926743,1091.1465200907326
164,260.68362023562787,366.5879310449559,1095.412068955044
165,263.568087630452,367.3424995526402,1099.6575004473598
166,266.45142780495814,338.11710229510027,1103.8828977048997
167,269.3336413004256,350.9116564442818,1108.0883435557182
168,272.2147286578062,352.7260794805493,1112.2739205194507
169,275.0946904177352,378.56028919193477,1116.4397108080652
170,277.97352712049866,367.41420367338833,1120.5857963266117
171,280.85123930606403,340.2877413260285,1124.7122586739715
172,283.7278275140626,359.180820856393,1128.819179143607
173,286.60329228380897,330.0933612756876,1132.9066387243124
174,289.4776341542732,324.0252818990389,1136.9747181009611
175,292.35085366411056,378.9765023447419,1141.023497655258
176,295.2229513516428,361.9469425335119,1145.053057466488
177,298.0939277548705,307.9365226877346,1149.0634773122654
178,300.96378341144725,346.945163330716,1153.054836669284
179,303.83251885871897,357.9727852859328,1157.0272147140672
180,306.70013463369963,321.0193096762832,1160.9806903237168
181,309.5666312730736,330.08465792333595,1164.915342076664
182,312.4320093132022,326.1687517465821,1168.831248253418
183,315.2962692901107,324.27151316268464,1172.7284868373154
184,318.15941173950984,300.39286448472876,1176.6071355152712
185,321.021437196783,291.53272832147127,1180.4672716785287
186,323.8823461969905,315.6910275765931,1184.3089724234069
187,326.7421392748435,314.8676854479477,1188.1323145520523
188,329.60081696476254,329.06262542681156,1191.9373745731884
189,332.4583798008278,290.27577129713563,1195.7242287028644
190,335.3148283167834,260.50704713479377,1199.4929528652062
191,338.17016304607625,267.75637730683525,1203.2436226931648
192,341.02438452180206,258.02368647073286,1206.9763135292671
193,343.8774932767422,242.30889957363456,1210.6911004263654
194,346.7294898433634,221.6119418516139,1214.388058148386
195,349.58037475380087,268.9327388289191,1218.0672611710809
196,352.4301485398687,262.27121631722434,1221.7287836827757
197,355.2788117330559,249.62730041487998,1225.37269958512
198,358.126364864526,289.00091750616275,1228.9990824938372
199,360.9728084651392,250.39199426052505,1232.608005739475
200,363.8181430654043,265.80045763184694,1236.199542368153
201,366.6623691955285,256.22623485768554,1239.7737651423145
202,369.50548738539203,248.6692534585252,1243.3307465414748
203,372.34749816455155,284.1294412370278,1246.8705587629722
204,375.1884020622518,246.60672627728377,1250.3932737227162
205,378.0281996073991,286.1010369440612,1253.8989630559388
206,380.8668913285983,283.6123018820572,1257.3876981179428
207,383.7044777541248,286.1404500151475,1260.8595499848525
208,386.54095941193737,304.68541054563707,1264.314589454363
209,389.37633682966083,251.24711295351017,1267.7528870464898
210,392.2106105346229,289.8254869956811,1271.174513004319
211,395.0437810538196,307.42046270524406,1274.579537294756
212,397.8758489139216,349.03197039072325,1277.9680296092768
213,400.7068146412961,286.65994063532366,1281.3400593646763
214,403.53667876198057,328.3043042961815,1284.6956957038185
215,406.365441801696,327.96499250361353,1288.0350074963865
216,409.19310428584686,322.6419366603682,1291.3580633396318
217,412.01966673952734,293.3350684408763,1294.6649315591237
218,414.8451296874956,331.04431979049946,1297.9556802095005
219,417.66949365420203,312.7696229247829,1301.2303770752171
220,420.4927591637889,302.5109103287032,1304.4890896712968
221,423.3149267400733,285.26811475592103,1307.731885244079
222,426.1359969065493,303.0411692280295,1310.9588307719705
223,428.95597018639864,324.8300070338055,1314.1699929661945
224,431.7748471025038,323.6345617284594,1317.3654382715406
225,434.5926281774048,330.4547671328862,1320.5452328671138
226,437.40931393334,290.29055733291443,1323.7094426670856
227,440.2249048922314,326.1418666785578,1326.8581333214422
228,443.0394015756821,250.00862978326495,1329.991370216735
229,445.8528045049853,284.8907815231694,1333.1092184768306
230,448.6651142011195,310.7882570363404,1336.2117429636596
231,451.47633118473817,260.700991722033,1339.299008277967
232,454.28645597619334,241.6289212399381,1342.371078760062
233,457.09548909551825,245.5719815094335,1345.4280184905665
234,459.90343106243165,210.53010870883327,1348.4698912911667
235,462.71028239634444,228.50323927463796,1351.496760725362
236,465.516043616338,269.49130990078606,1354.508690099214
237,468.32071524120084,256.4942575379032,1357.5057424620968
238,471.1242977893963,209.51201939255293,1360.487980607447
239,473.92679177907974,236.54453292648736,1363.4554670735126
240,476.72819772809436,226.5917358558961,1366.408264144104
241,479.52851615395804,276.653566150658,1369.346433849342
242,482.3277475739067,240.72996203359025,1372.2700379664097
243,485.125892504836,245.8208619797008,1375.1791380202992
244,487.92295146334,267.926204715435,1378.073795284565
245,490.7189249657071,238.04592921792982,1380.9540707820702
246,493.5138135279027,229.17997471426133,1383.8200252857387
247,496.307617665595,227.32828068069648,1386.6717193193035
248,499.1003378941399,254.49078684194274,1389.5092131580573
249,501.89197472856824,262.6674331703982,1392.3325668296018
250,504.68252868361793,290.858159885403,1395.141840114597
251,507.4720002737126,294.0629074524886,1397.9370925475114
252,510.2603900129527,266.2816165826273,1400.7183834173727
253,513.0476984151569,254.51422823148505,1403.485771768515
254,515.8339259938075,311.7606835986694,1406.2393164013306
255,518.6190732620987,304.0209241269806,1408.9790758730194
256,521.403140732895,319.2948915016618,1411.7051084983382
257,524.1861289187791,315.5825276496503,1414.4174723503497
258,526.9680383319974,288.88377473882565,1417.1162252611743
259,529.7488694845165,315.19857517726246,1419.8014248227375
260,532.5286228879652,269.52687161247854,1422.4731283875215
261,535.3072990536964,272.8686069306873,1425.1313930693127
262,538.0848984927293,268.22372425604544,1427.7762757439546
263,540.8614217157948,237.59216694990573,1430.4078330500943
264,543.6368692333026,282.9738786100661,1433.026121389934
265,546.4112415553678,225.3688030700191,1435.631196929981
266,549.1845391917931,249.77688439820486,1438.2231156017951
267,551.9567626520732,230.1980668972585,1440.8019331027415
268,554.7279124454144,288.63229510326187,1443.3677048967381
269,557.4979890806808,262.0795137849932,1445.9204862150068
270,560.2669930664713,195.53966794317853,1448.4603320568215
271,563.0349249110558,170.01270280974086,1450.9872971902591
272,565.8017851224088,218.4985638470505,1453.5014361529495
273,568.5675742081952,192.99719674717653,1456.0028032528235
274,571.332292675778,229.50854743113496,1458.491452568865
275,574.0959410322129,189.03256204814124,1460.9674379518588
276,576.8585197842664,199.56918697485935,1463.4308130251407
277,579.6200294383739,239.11836881465206,1465.881631185348
278,582.3804705006952,199.68005439683202,1468.319945603168
279,585.1398434770626,217.25419077591118,1470.7458092240888
280,587.898148873031,171.84072523085115,1473.1592747691489
281,590.6553871938341,178.43960526431397,1475.560394735686
282,593.4115589444067,130.0507786019125,1477.9492213980875
283,596.1666646293776,116.67419319145984,1480.3258068085402
284,598.9207047530938,166.30979720222103,1482.690202797779
285,601.6736798195618,187.95753902416163,1485.0424609758384
286,604.425590332539,111.61736726719892,1487.382632732801
287,607.1764367954289,150.28923076045248,1489.7107692395475
288,609.926219711373,168.97307855149415,1492.0269214485058
289,612.6749395831853,179.66885990559763,1494.3311400944024
290,615.4225969133932,136.37652430499043,1496.6234756950096
291,618.1691922042213,153.09602144810265,1498.9039785518974
292,620.9147259576029,158.8273012488171,1501.172698751183
293,623.6591986751483,184.57031383572166,1503.4296861642783
294,626.4026108581863,122.3250095513572,1505.6749904486428
295,629.1449630077442,133.09133895146874,1507.9086610485313
296,631.8862556245454,132.8692528042568,1510.1307471957432
297,634.6264892090098,112.65870208962565,1512.3412979103744
298,637.3656642612714,113.45963799843548,1514.5403620015645
299,640.1037812811581,122.2720119317512,1516.7279880682488
300,642.8408407681947,123.09577550009408,1518.904224499906
301,645.5768432216298,83.93088052269059,1521.0691194773094
302,648.3117891403789,82.77727902672427,1523.2227209732757
303,651.0456790230837,107.634923246585,1525.365076753415
304,653.778513368087,125.50376562311908,1527.496234376881
305,656.5102926734257,172.38375880288072,1529.6162411971193
306,659.2410174368463,130.27485563738037,1531.7251443626196
307,661.9706881557958,155.17700918233754,1533.8229908176625
308,664.6993053274265,139.09017269692868,1535.9098273030713
309,667.4268694485913,83.0142996430393,1537.9857003569607
310,670.1533810158484,110.949343684513,1540.050656315487
311,672.8788405254674,107.89525868640249,1542.1047413135975
312,675.6032484734014,94.85199871421946,1544.1480012857805
313,678.3266053553348,111.8195180331852,1546.1804819668148
314,681.0489116666329,93.79777110748046,1548.2022288925195
315,683.7701679023922,92.78671259949647,1550.2132874005035
316,686.49037455738,81.78629736908465,1552.2137026309153
317,689.2095321260985,111.79648047280648,1554.2035195271935
318,691.9276411027466,127.8172171631852,1556.1827828368148
319,694.6447019812174,113.84846288795393,1558.151537112046
320,697.3607152551352,118.89017328930936,1560.1098267106906
321,700.0756814178034,147.9423042031574,1562.0576957968426
322,702.789600962241,97.00481165836823,1563.9951883416318
323,705.5024743811921,89.07765187602286,1565.9223481239771
324,708.2143021670795,176.1607812686657,1567.8392187313343
325,710.9250848120508,109.25415643955353,1569.7458435604465
326,713.6348228079545,90.35773418190706,1571.642265818093
327,716.343516646348,61.471471478159174,1573.5285285218408
328,719.0511668185031,99.59532549920846,1575.4046745007915
329,721.757773815381,105.72925360366617,1577.2707463963338
330,724.4633381276724,89.8732133371077,1579.1267866628923
331,727.1678602457704,89.02716243132477,1580.9728375686752
332,729.8713406597669,83.19105880357165,1582.8089411964283
333,732.5737798594763,69.36486055581963,1584.6351394441804
334,735.275178334405,71.54852597400486,1586.4514740259951
335,737.975536573795,40.74201352727937,1588.2579864727206
336,740.6748550665694,85.9452818672612,1590.0547181327388
337,743.3731343013824,53.15828982728499,1591.841710172715
338,746.070374766589,112.38099642165162,1593.6190035783484
339,748.7665769502494,67.61336084487948,1595.3866391551205
340,751.4617413401418,65.85534247095302,1597.144657529047
341,754.1558684237646,61.10690085257647,1598.8930991474235
342,756.848958688302,4.367995720419685,1600.6320042795803
343,759.541012620667,61.63858698237118,1602.3614130176288
344,762.232030707482,66.91863472278851,1604.0813652772115
345,764.9220134350854,30.208099201747245,1605.7919007982528
346,767.6109612895143,42.506940854292225,1607.4930591457078
347,770.2988747565215,81.81512028968768,1609.1848797103123
348,772.9857543215847,65.13259829066715,1610.8674017093329
349,775.6716004698756,45.45933581268355,1612.5406641873165
350,778.3564136862949,114.7952939831614,1614.2047060168386
351,781.0401944554376,101.14043410074373,1615.8595658992563
352,783.7229432616322,90.49471763454517,1617.5052823654548
353,786.404660588914,106.85810622340205,1619.141893776598
354,789.0853469210194,79.23056167512073,1620.7694383248793
355,791.7650027414137,40.6120459657302,1622.3879540342698
356,794.4436285332672,67.00252123872997,1623.99747876127
357,797.1212247794729,47.40194980434353,1625.5980501956565
358,799.7977919626262,50.81029413876445,1627.1897058612356
359,802.4733305650499,94.22751688341168,1628.7724831165883
360,805.1478410687714,53.65358084417494,1630.346419155825
361,807.8213239555345,54.08844899066867,1631.9115510093313
362,810.493779706805,152.53208445547966,1633.4679155445203
363,813.1652088037583,73.98445053342016,1635.0155494665798
364,815.835611727286,50.44551068077544,1636.5544893192246
365,818.5049889580017,126.91522851455488,1638.0847714854451
366,821.1733409762201,82.39356781174365,1639.6064321882563
367,823.8406682619932,57.880492508551924,1641.119507491448
368,826.5069712950699,0.0,1642.624033300336
369,829.1722505549232,24.879954637490755,1644.1200453625092
370,831.8365065207488,71.39242073141872,1645.6075792685813
371,834.4997396714563,0.0,1647.0866704529392
372,837.1619504856666,42.442645805506345,1648.5573541944937
373,839.8231394417212,55.98033438257107,1650.019665617429
374,842.4833070176815,17.526360308047515,1651.4736396919525
375,845.1424536913315,25.080688764956676,1652.9193112350433
376,847.800579940152,37.64328508879635,1654.3567149112037
377,850.4576862413803,23.214114766792363,1655.7858852332076
378,853.1137730719397,41.79314343714918,1657.2068565628508
379,855.7688409084737,92.38033688829819,1658.6196631117018
380,858.4228902273612,16.975661058152355,1660.0243389418476
381,861.075921504697,80.57908203335069,1661.4209179666493
382,863.7279352162875,71.19056604851357,1662.8094339514864
383,866.3789318376619,83.81007948549018,1664.1899205145098
384,869.0289118440668,58.43758887261015,1665.5624111273899
385,871.6778757104785,80.07306088393307,1666.926939116067
386,874.3258239115801,88.71646233849833,1668.2835376615017
387,876.9727569217794,81.36776019957756,1669.6322398004224
388,879.6186752152197,103.02692157392244,1670.9730784260776
389,882.2635792657408,92.69391371101642,1672.3060862889836
390,884.9074695469199,94.36870400232397,1673.631295997676
391,887.5503465320526,63.051259980542454,1674.9487400194575
392,890.1922106941568,55.74154931885096,1676.258450681149
393,892.8330625059617,82.43953983016104,1677.560460169839
394,895.4729024399284,20.145199466367558,1678.8548005336324
395,898.1117309682461,61.85849631759788,1680.1415036824021
396,900.749548562816,26.579398611463148,1681.4206013885369
397,903.3863556952575,0.0,1682.692125287692
398,906.0221528369252,24.04389312046078,1683.9561068795392
399,908.6569404588943,21.787422471485115,1685.2125775285149
400,911.2907190319511,8.538431535427435,1686.4615684645726
401,913.9234890266222,34.29688921607135,1687.7031107839287
402,916.5552509131456,45.06276455018315,1688.9372354498169
403,919.1860051614904,33.83602670676669,1690.1639732932333
404,921.8157522413394,14.616644986309893,1691.38335501369
405,924.4444926221175,19.404588820037134,1692.5954111799629
406,927.0722267729548,55.19982776915958,1693.8001722308404
407,929.6989551627207,22.002331524124656,1694.9976684758753
408,932.3246782599946,35.81206990386681,1696.1879300961332
409,934.9493965330932,50.62901285505677,1697.3709871449432
410,937.5731104500625,48.453130451353445,1698.5468695486466
411,940.1958204786572,3.2843928926547505,1699.7156071073452
412,942.8175270863684,17.12277050434318,1700.8772294956568
413,945.438230740411,0.0,1702.0317662634566
414,948.0579319077293,15.82075316336568,1703.1792468366343
415,950.6766310549879,31.680299482160535,1704.3197005178395
416,953.2943286485779,62.54684351276774,1705.4531564872323
417,955.9110251546217,22.420356196766534,1706.5796438032335
418,958.5267210389707,38.300808596724664,1707.6991914032753
419,961.1414167671941,0.0,1708.8118281045486
420,963.7551128045948,41.082417395246694,1709.9175826047533
421,966.3678096162001,4.983516517148246,1711.0164834828518
422,968.9795076667727,26.891440800187638,1712.1085591998124
423,971.5902074207959,27.806161900636653,1713.1938380993633
424,974.1999093424683,0.0,1714.272348408741
425,976.8086138957485,0.6558817605589411,1715.344118239441
426,979.4163215442998,0.0,1716.409175587967
427,982.0230327515144,0.0,1717.4675483365788
428,984.6287479805312,35.48073574595537,1718.5192642540446
429,987.2334676941916,0.0,1719.5643509963893
430,989.8371923550923,0.0,1720.6028361076449
431,992.4399224255391,62.36525297940034,1721.6347470205997
432,995.0416583675843,7.339888942450671,1722.6601110575493
433,997.6424006429941,0.0,1723.6789554310433
434,1000.2421497132806,0.0,1724.6913072446378
435,1002.84090603967,0.0,1725.6971934936448
436,1005.4386700831392,26.30335893411916,1726.6966410658808
437,1008.0354423043698,0.0,1727.6896767424173
438,1010.6312231637966,0.0,1728.6763271983298
439,1013.2260131215722,1.3433809965508772,1729.6566190034491
440,1015.8198126375916,0.0,1730.6305786231085
441,1018.4126221714673,0.0,1731.5982324188956
442,1021.0044421825564,0.0,1732.559606649402
443,1023.5952731299427,18.485272529028634,1733.5147274709714
444,1026.1851154724386,0.0,1734.4636209384503
445,1028.773969668597,0.0,1735.4063130059378
446,1031.3618361766923,0.0,1736.3428295275357
447,1033.948715454744,12.726803741902813,1737.2731962580972
448,1036.534607960491,18.80256114602298,1738.197438853977
449,1039.119514151417,4.884417126218068,1739.115582873782
450,1041.7034344847323,0.0,1740.0276537791178
451,1044.2863694173889,0.0,1740.9336769353442
452,1046.8683194060527,0.0,1741.8336776123188
453,1049.4492849071469,15.272319014850154,1742.7276809851498
454,1052.0292663768173,15.384287865053238,1743.6157121349468
455,1054.6082642709443,0.0,1744.4977960495655
456,1057.1862790451405,0.0,1745.373957624366
457,1059.763311154762,0.0,1746.2442216629534
458,1062.339361054892,54.89138712206773,1747.1086128779323
459,1064.9144292003486,5.032844108343397,1747.9671558916566
460,1067.4885160456881,28.180124763021922,1748.819875236978
461,1070.061622045202,28.333204642004603,1749.6667953579954
462,1072.6337476529175,37.49205938919363,1750.5079406108064
463,1075.2048933225924,53.65666473574424,1751.3433352642558
464,1077.7750595077312,42.82699649931624,1752.1730035006838
465,1080.3442466615654,33.00303058332156,1752.9969694166784
466,1082.912455237059,44.184742976175585,1753.8152570238244
467,1085.4796856869277,51.372109750547224,1754.6278902494528
468,1088.0459384636151,44.56510706261088,1755.4348929373891
469,1090.6112140192988,86.76371115129473,1756.2362888487053
470,1093.1755128058958,30.967898337531324,1757.0321016624687
471,1095.7388352750634,36.17764502350883,1757.8223549764912
472,1098.3011818782,31.392927691920022,1758.60707230808
473,1100.8625530664272,74.61372290521422,1759.3862770947858
474,1103.4229492906168,71.84000730484604,1760.159992695154
475,1105.982371001381,30.07175761052622,1760.9282423894738
476,1108.540818649047,52.3089506194724,1761.6910493805276
477,1111.0982926837257,90.5515632056588,1762.4484367943412
478,1113.6547935552142,99.7995723190661,1763.200427680934
479,1116.2103217130848,78.05295498493388,1763.9470450150661
480,1118.76487760664,98.31168830300749,1764.6883116969925
481,1121.318461684913,130.57574944679163,1765.4242505532084
482,1123.8710743966897,159.84511566279798,1766.154884337202
483,1126.422716190474,212.11976426979777,1766.8802357302022
484,1128.9733875145423,200.39967265807059,1767.6003273419294
485,1131.5230888168785,167.6848182886556,1768.3151817113444
486,1134.07182054523,252.9751786925999,1769.0248213074
487,1136.6195831470725,249.270731470212,1769.729268529788
488,1139.1663770696205,233.57145429030925,1770.4285457096908
489,1141.7122027598466,238.87732488946926,1771.1226751105307
490,1144.2570606644383,263.18832107128014,1771.8116789287199
491,1146.8009512298504,218.5044207055928,1772.4955792944072
492,1149.3438749022537,166.8256017277654,1773.1743982722346
493,1151.885832127587,148.15184213792054,1773.8481578620795
494,1154.4268233515052,145.483120000192,1774.516879999808
495,1156.9668490194244,105.81941344197526,1775.1805865580247
496,1159.5059095764966,93.16070065317672,1775.8392993468233
497,1162.0440054676044,99.50695988546681,1776.4930401145332
498,1164.5811371373943,117.85816945152919,1777.1418305484708
499,1167.1173050302464,95.21430772430881,1777.7856922756912
500,1169.6525095902712,141.57535313626568,1778.4246468637343
501,1172.1867512613455,129.94128417862362,1779.0587158213764
502,1174.7200304870644,127.31207940061859,1779.6879205993814
503,1177.252347710797,110.68771740875286,1780.3122825912471
504,1179.7837033756155,101.06817686604131,1780.9318231339587
505,1182.3140979243728,145.45343649126562,1781.5465635087344
506,1184.8435317996452,132.84347505822097,1782.156524941779
507,1187.3720054437629,113.23827139496939,1782.7617286050306
508,1189.899519298801,120.63780438308777,1783.3621956169122
509,1192.426073806567,123.04205295691895,1783.957947043081
510,1194.95166940862,145.45099610282227,1784.5490038971777
511,1197.4763065462803,131.86461285842347,1785.1353871415765
512,1199.9999856605816,134.2828823118657,1785.7171176881343
513,1202.5227071923234,115.70578360105924,1786.2942163989408
514,1205.044471582048,148.13329591293018,1786.8667040870698
515,1207.5652792700514,148.56539848267448,1787.4346015173255
516,1210.0851306963489,156.0020705930051,1787.997929406995
517,1212.6040263007358,144.44329157340349,1788.5567084265965
518,1215.1219665227243,161.88904079937015,1789.1109592006298
519,1217.638951801598,175.33929769167298,1789.660702308327
520,1220.1549825763595,175.79404171560077,1790.2059582843992
521,1222.6700592857871,179.25325238021105,1790.746747619789
522,1225.1841823683844,162.7169092375807,1791.2830907624193
523,1227.6973522624187,189.18499188205737,1791.8150081179426
524,1230.2095694058878,231.65747994950812,1792.3425200504919
525,1232.7208342365493,151.1343531165719,1792.865646883428
526,1235.2311471919004,287.6155910999082,1793.3844089000918
527,1237.7405087091956,266.10117365544625,1793.8988263445538
528,1240.248919225429,248.59108057763888,1794.4089194223611
529,1242.756379177352,351.0852916987096,1794.9147083012904
530,1245.2628890014514,354.5837868879039,1795.416213112096
531,1247.7684491339733,340.08654605073934,1795.9134539492607
532,1250.2730600109035,403.5935491282569,1796.4064508717431
533,1252.776722067996,378.10477609627014,1796.8952239037299
534,1255.279435740731,358.6202069646165,1797.3797930353835
535,1257.7812014643425,360.13982177640537,1797.8601782235946
536,1260.2820196738317,351.6636006072713,1798.3363993927287
537,1262.781890803927,373.191523564622,1798.808476435378
538,1265.2808152891175,372.7235707868915,1799.2764292131085
539,1267.7787935636486,403.25972244278546,1799.7402775572145
540,1270.2758260615044,515.7999587305353,1800.2000412694647
541,1272.7719132164177,596.3442598771512,1800.6557401228488
542,1275.2670554618894,625.8926061376628,1801.1073938623372
543,1277.7612532311541,676.4449777943814,1801.5550222056186
544,1280.2545069572025,799.0013551561401,1801.99864484386
545,1282.746817072779,905.5617185575518,1802.4382814424482
546,1285.2381840103722,935.1260483582523,1802.8739516417477
547,1287.7286082022335,933.6943249421579,1803.305675057842
548,1290.218090080357,1079.26652871671,1803.73347128329
549,1292.7066300765,1082.8426401121278,1804.1573598878722
550,1295.194228622149,1151.4226395806602,1804.5773604193398
551,1297.6808861485692,1185.0065075958319,1804.9934924041681
552,1300.1666030867616,1294.5942246516963,1805.4057753483037
553,1302.6513798674862,1390.1857712620867,1805.8142287379133
554,1305.1352169212512,1554.7811279598657,1806.2188720401343
555,1307.6181146783244,1658.3802752961726,1806.6197247038274
556,1310.1000735687182,1717.983193839678,1807.016806160322
557,1312.58109402221,1750.5898641758336,1807.4101358241664
558,1315.0611764683192,1663.2002669061194,1807.7997330938806
559,1317.5403213363254,1524.8143826472942,1808.1856173527058
560,1320.0185290552624,1405.4321920306525,1808.5678079693475
561,1322.4958000539123,1313.0536757012653,1808.9463242987347
562,1324.9721347608129,1150.6788143172373,1809.3211856827627
563,1327.4475336042694,1070.3075885489536,1809.6924114510464
564,1329.9219970123143,1021.9399790783314,1810.0600209216686
565,1332.3955254127645,886.5759665980704,1810.4240334019296
566,1334.8681192331715,880.2155318109033,1810.7844681890967
567,1337.3397789008557,828.8586554288436,1811.1413445711564
568,1339.8105048428822,803.5053181724381,1811.4946818275619
569,1342.2802974860736,823.1555007700208,1811.8444992299792
570,1344.7491572570132,780.8091839569543,1812.1908160430457
571,1347.217084582033,830.4663484748874,1812.5336515251126
572,1349.6840798872295,845.126975071003,1812.873024928997
573,1352.1501435984528,987.7910444972683,1813.2089555027317
574,1354.615276141296,990.4585375096851,1813.5414624903149
575,1357.0794779411349,1024.1294348675406,1813.8705651324594
576,1359.5427494230762,1035.8037173326568,1814.1962826673432
577,1362.0050910120017,1014.4813656686413,1814.5186343313587
578,1364.4665031325346,974.1623606401388,1814.8376393598612
579,1366.9269862090732,982.8466830120792,1815.1533169879208
580,1369.3865406657594,892.5343135489275,1815.4656864510725
581,1371.845166926492,833.2252330139388,1815.7747669860612
582,1374.3028654149455,738.9194221684029,1816.080577831597
583,1376.759636554526,725.6168617708965,1816.3831382291035
584,1379.2154807684155,732.3175325765369,1816.682467423463
585,1381.6703984795568,726.0214153362265,1816.9785846637735
586,1384.1243901106327,677.7284907959042,1817.2715092040958
587,1386.5774560841066,612.4387396958055,1817.5612603041945
588,1389.0295968221844,601.1521427696939,1817.847857230306
589,1391.4808127468377,528.86868074413,1818.13131925587
590,1393.9311042797972,534.5883343377106,1818.4116656622894
591,1396.3804718425529,511.31108426032233,1818.6889157396777
592,1398.82891585635,471.03691121239103,1818.963088787609
593,1401.2764367422014,422.7657958841362,1819.2342041158638
594,1403.7230349208708,374.49771895481354,1819.5022810451865
595,1406.1687108128901,382.23266109197107,1819.767338908029
596,1408.61346483855,348.9706029507006,1820.0293970492994
597,1411.0572974178945,301.71152517288147,1820.2884748271185
598,1413.5002089707286,334.4554083864366,1820.5445916135634
599,1415.942199916641,314.20223320457967,1820.7977667954203
600,1418.38327067494,332.95198022506884,1821.0480197749312
601,1420.8234216647286,335.7046300294528,1821.2953699705472
602,1423.2626533048622,368.4601631823234,1821.5398368176766
603,1425.7009660139493,355.21856023056694,1821.781439769433
604,1428.13836021037,413.97980170261076,1822.0201982973892
605,1430.5748363122602,410.7438681076794,1822.2561318923206
606,1433.0103947375194,429.51073993503746,1822.4892600649625
607,1435.4450359038142,428.2803976532464,1822.7196023467536
608,1437.878760228563,415.0528217094104,1822.9471782905896
609,1440.3115681289532,384.8279925284303,1823.1720074715697
610,1442.7434600219392,362.6058905122529,1823.394109487747
611,1445.174436324225,277.3864960391161,1823.613503960884
612,1447.604497452292,314.169789462808,1823.830210537192
613,1450.0336438223803,269.95575111191147,1824.0442488880885
614,1452.461875850481,262.7443612890536,1824.2556387109464
615,1454.8891939523642,253.53560027016078,1824.4643997298392
616,1457.3155985435608,174.32944830370434,1824.6705516962957
617,1459.741090039364,217.12588560995437,1824.8741143900456
618,1462.1656688548237,181.92489238022836,1825.0751076197716
619,1464.5893354047596,173.72644877613925,1825.2735512238607
620,1467.0120901037667,200.53053492884965,1825.4694650711504
621,1469.4339333661835,142.3371309383217,1825.6628690616783
622,1471.8548656061253,121.14621687256431,1825.8537831274357
623,1474.2748872374734,104.95777276688523,1826.0422272331148
624,1476.6939986738748,130.77177862314238,1826.2282213768576
625,1479.1122003287248,130.58821440899305,1826.411785591007
626,1481.529492615213,145.4070600571431,1826.592939942857
627,1483.9458759462664,134.22829546460162,1826.7717045353984
628,1486.3613507345974,144.05190049192288,1826.9480995080771
629,1488.7759173926777,123.87785496246647,1827.1221450375335
630,1491.189576332734,76.70613866164058,1827.2938613383594
631,1493.6023279667784,128.5367313361553,1827.4632686638447
632,1496.014172706582,116.36961269327071,1827.6303873067293
633,1498.4251109636734,153.20476240005246,1827.7952375999475
634,1500.8351431493554,117.04216008261369,1827.9578399173863
635,1503.2442696746991,166.88178532537222,1828.1182146746278
636,1505.6524909505413,108.72361767029884,1828.2763823297012
637,1508.0598073874885,71.5676366161681,1828.432363383832
638,1510.466219395905,82.41382161780325,1828.5861783821967
639,1512.8717273859356,106.26215208533608,1828.737847914664
640,1515.2763317674783,77.11260738345072,1828.8873926165493
641,1517.680032950212,90.9651668306335,1829.0348331693665
642,1520.0828313435745,90.8198096984272,1829.1801903015728
643,1522.484727356783,61.676515210678645,1829.3234847893214
644,1524.885721398805,134.53526254279086,1829.4647374572091
645,1527.2858138783934,86.39603082096892,1829.603969179031
646,1529.6850052040645,123.2587991214757,1829.7412008785243
647,1532.0832957840964,112.12354646988047,1829.8764535301195
648,1534.4806860265462,145.99025184030666,1830.0097481596933
649,1536.8771763392408,224.85889415468637,1830.1411058453136
650,1539.272767129762,181.72945228200615,1830.2705477179938
651,1541.667458805477,188.60190503756098,1830.398094962439
652,1544.0612517735128,214.4762311822019,1830.523768817798
653,1546.454146440768,238.35240942158953,1830.6475905784105
654,1548.8461432139225,228.23041840543942,1830.7695815945606
655,1551.237242499409,223.11023672677925,1830.8897632732208
656,1553.6274447034348,156.9918429211898,1831.0081570788102
657,1556.01675023199,200.87521546606513,1831.1247845339349
658,1558.4051594908203,170.76033277985584,1831.2396672201442
659,1560.7926728854518,162.64717322132446,1831.3528267786755
660,1563.1792908211744,154.53571508878917,1831.4642849112108
661,1565.565013703059,213.42593661938122,1831.5740633806188
662,1567.949841935934,199.31781598829025,1831.6821840117098
663,1570.3337759244105,174.21133130801763,1831.7886686919824
664,1572.7168160728672,159.10646062762385,1831.8935393723762
665,1575.0989627854478,235.003181931982,1831.996818068018
666,1577.4802164660907,200.9014731410257,1832.0985268589743
667,1579.8605775184772,212.80131210900004,1832.198687891
668,1582.2400463460824,216.7026766237118,1832.2973233762882
669,1584.6186233521403,230.60554440578198,1832.394455594218
670,1586.9963089396663,244.50989310789055,1832.4901068921095
671,1589.3731035114372,254.41570031403376,1832.5842996859662
672,1591.7490074700236,268.3229435387668,1832.6770564612332
673,1594.1240212177452,240.23160022646312,1832.7683997735369
674,1596.4981451567105,262.1416477505559,1832.8583522494441
675,1598.8713796887987,216.05306341279356,1832.9469365872064
676,1601.2437252156544,240.96582444248952,1833.0341755575105
677,1603.6151821387105,152.87990799576983,1833.1200920042302
678,1605.9857508591604,156.7952911548266,1833.2047088451734
679,1608.3554317779724,173.71195092716675,1833.2880490728332
680,1610.7242252959027,153.62986424486417,1833.3701357551358
681,1613.092131813466,68.54900796380366,1833.4509920361963
682,1615.459151730963,73.46935886294068,1833.5306411370593
683,1617.8252854484533,77.39089364354527,1833.6091063564547
684,1620.190533365795,55.313588928454465,1833.6864110715455
685,1622.5548958825973,21.23742126132015,1833.7625787386798
686,1624.9183733982645,0.0,1833.837632894136
687,1627.280966311959,18.08840284512121,1833.9115971548788
688,1629.6426750226278,14.01550478069953,1833.9844952193005
689,1632.0034999290017,56.94364913202298,1834.056350867977
690,1634.3634414295664,0.0,1834.1271879644203
691,1636.722499922601,25.802969544183497,1834.1970304558165
692,1639.080675806153,36.73409762620986,1834.2659023737901
693,1641.437969478049,34.66617216485929,1834.3338278351407
694,1643.794381335896,71.59916895739775,1834.4008310426022
695,1646.1499117770652,36.53306371441249,1834.4669362855875
696,1648.5045611987107,61.46783205905945,1834.5321679409406
697,1650.8583299977715,24.40344952631699,1834.596550473683
698,1653.2112185709534,18.33989156223356,1834.6601084377664
699,1655.5632273147464,12.27713352317528,1834.7228664768247
700,1657.9143566254074,8.21515067508426,1834.7848493249157
701,1660.2646068989866,53.153918192719175,1834.8460818072808
702,1662.613978531298,11.09341115891516,1834.9065888410848
703,1664.9624719179408,29.033604563824838,1834.9663954361752
704,1667.310087454289,73.97447330417617,1835.0255266958238
705,1669.656825535493,0.0,1835.0840078174815
706,1672.002686556489,4.858135906474217,1835.1418640935258
707,1674.3476709119846,42.80087908798919,1835.1991209120108
708,1676.6917789964712,3.744196242581438,1835.2558037574186
709,1679.0350112042127,25.688061788593586,1835.3119382114064
710,1681.3773679292556,0.0,1835.3675499535573
711,1683.7188495654234,6.577335237871239,1835.4226647621288
712,1686.0594565063316,17.5226914851919,1835.477308514808
713,1688.3991891453566,77.46849281054529,1835.5315071894547
714,1690.7380478756586,9.414713135150123,1835.5852868648499
715,1693.0760330901846,47.361326278543174,1835.6386737214568
716,1695.4131451816568,43.30830595784323,1835.6916940421568
717,1697.7493845425868,0.0,1835.7443742130072
718,1700.0847515652472,58.203259276010385,1835.7967407239896
719,1702.4192466417032,9.1511798302422,1835.8488201697578
720,1704.7528701638073,74.09936074960933,1835.9006392503907
721,1707.0856225231728,36.04777522786321,1835.9522247721368
722,1709.4175041112233,28.996396351829617,1836.0036036481704
723,1711.7485153191276,40.945197100665155,1836.0548028993348
724,1714.0786565378644,55.89415034509989,1836.1058496549
725,1716.4079281581737,49.843228846697,1836.156771153303
726,1718.7363305705937,44.7924052570952,1836.2075947429048
727,1721.0638641654373,25.741652117263357,1836.2583478827366
728,1723.390529332796,105.69094185674999,1836.30905814325
729,1725.7163264625467,76.64024679293289,1836.3597532070671
730,1728.0412559443453,38.58953913026721,1836.4104608697328
731,1730.365318167637,67.53879095954221,1836.4612090404578
732,1732.6885135216376,22.48797425712428,1836.5120257428757
733,1735.0108423953543,0.0,1836.562939115788
734,1737.3323051775778,37.38602258608444,1836.6139774139156
735,1739.6529022568754,66.33483099135083,1836.6651690086492
736,1741.9726340216018,15.283457611204085,1836.716542388796
737,1744.2915008599011,36.23187383866798,1836.768126161332
738,1746.6095031596751,31.180050947847576,1836.8199490521524
739,1748.9266413086452,63.12796009318072,1836.8720399068193
740,1751.2429156942878,38.075572308689516,1836.9244276913105
741,1753.5583267038803,38.02285850722683,1836.9771414927732
742,1755.8728747244716,63.969789479727524,1837.0302105202725
743,1758.1865601429054,32.916335894464055,1837.083664105536
744,1760.499383345797,29.862468296290672,1837.1375317037093
745,1762.8113447195606,52.80815710589377,1837.1918428941062
746,1765.1224446503911,47.753372619049514,1837.2466273809505
747,1767.4326835242496,19.698085005861458,1837.3019149941385
748,1769.7420617269122,71.64226431002385,1837.3577356899762
749,1772.050579643917,53.58588044806288,1837.4141195519371
750,1774.3582376606046,46.528903208593874,1837.4710967914061
751,1776.665036162079,47.47130225156479,1837.5286977484352
752,1778.9709755332435,37.41304710750842,1837.5869528924916
753,1781.276056158792,63.354107176797925,1837.645892823202
754,1783.5802784232,40.29445172889268,1837.7055482711073
755,1785.8836427107178,54.23404990158724,1837.7659500984128
756,1788.186149405389,65.17287070026168,1837.8271292997383
757,1790.4877988910578,25.11088299713856,1837.8891170028614
758,1792.7885915513284,32.04805553052438,1837.9519444694756
759,1795.0885277696134,35.984356904064725,1838.0156430959353
760,1797.387607929094,68.91975558599552,1838.0802444140045
761,1799.6858324127556,8.854219908387222,1838.1457800916128
762,1801.9832016033608,44.787718066402704,1838.2122819335973
763,1804.279715883455,5.7202181175464375,1838.2797818824536
764,1806.5753756353781,38.651687980904626,1838.3483120190954
765,1808.8701812412658,6.582095436411237,1838.4179045635888
766,1811.1641330830212,55.511408124085165,1838.4885918759148
767,1813.4572315423404,45.439593543289675,1838.5604064567103
768,1815.7494770007304,54.366619051975476,1838.6333809480245
769,1818.0408698394504,51.29245186593744,1838.7075481340626
770,1820.3314104395783,20.21705905805652,1838.7829409419435
771,1822.621099181953,75.14040755756241,1838.8595924424376
772,1824.909936447225,0.0,1838.9375358507277
773,1827.1979226158253,1.983195472843363,1839.0168045271566
774,1829.4850580679688,51.902568022030664,1839.0974319779693
775,1831.7713431836576,48.8205481439295,1839.1794518560705
776,1834.0567783426982,0.0,1839.2628979617716
777,1836.3413639246698,5.652195756457559,1839.3478042435424
778,1838.6251003089526,18.565795201243645,1839.4342047987564
779,1840.9079878747066,30.477866125553874,1839.5221338744461
780,1843.1900270008848,27.38837413195415,1839.6116258680458
781,1845.4712180662334,0.0,1839.7027153281483
782,1847.7515614492845,79.20456304474874,1839.7954369552513
783,1850.0310575283595,55.11017439749162,1839.8898256025084
784,1852.309706681578,0.0,1839.9859162764742
785,1854.5875092868393,41.91625586213854,1840.0837441378615
786,1856.8644657218376,0.816655497714919,1840.183344502285
787,1859.1405763640619,58.71524715898454,1840.2847528410155
788,1861.4158415907823,0.0,1840.388004781723
789,1863.6902617790688,44.50686389076395,1840.493136109236
790,1865.9638373057771,30.399817233719432,1840.6001827662806
791,1868.2365685475659,29.290819145760224,1840.7091808542398
792,1870.5084558808546,6.17983336610132,1840.8201666338987
793,1872.779499681894,13.066823473807744,1840.9331765261923
794,1875.0497003267008,87.95175288704468,1841.0482471129553
795,1877.3190581910874,54.83458486232007,1841.16541513768
796,1879.5875736506628,37.7152824937441,1841.284717506256
797,1881.8552470808277,13.593808712275177,1841.4061912877248
798,1884.122078856772,26.470126284973503,1841.5298737150265
799,1886.3880693534827,52.34419781424549,1841.6558021857545
800,1888.653218945725,64.21598573709844,1841.7840142629016
801,1890.9175280080797,0.0,1841.914547675609
802,1893.1809969149047,66.95255968008269,1842.0474403199173
803,1895.4436260403495,71.81726974048229,1842.1827302595177
804,1897.7054157583705,84.6795442735006,1842.3204557264994
805,1899.9663664427028,71.53934487789911,1842.460655122101
806,1902.2264784668828,81.39663298254163,1842.6033670174584
807,1904.4857522042334,84.25136984564551,1842.7486301543545
808,1906.744188027883,61.10351655402633,1842.8964834459737
809,1909.0017863107405,16.95303402235527,1843.0469659776447
810,1911.2585474255159,108.79988299240722,1843.2001170075928
811,1913.514471744719,88.64402403230679,1843.3559759676932
812,1915.7695596406393,49.485417535785245,1843.5145824642148
813,1918.0238114853723,30.3240237214261,1843.675976278574
814,1920.2772276508042,67.15980263191523,1843.8401973680848
815,1922.5298085086122,34.99271413329666,1844.0072858667033
816,1924.7815544302787,86.8227179142159,1844.177282085784
817,1927.0324657870647,68.64977348517709,1844.350226514823
818,1929.2825429500474,73.47384017778131,1844.5261598222187
819,1931.5317862900802,82.29487714399488,1844.7051228560051
820,1933.7801961778257,53.11284335538585,1844.8871566446142
821,1936.0277729837255,53.927697602374565,1845.0723023976254
822,1938.2745170780327,0.0,1845.2606015065057
823,1940.5204288307893,53.547904454630725,1845.4520955453693
824,1942.7655086118452,75.35317372827694,1845.646826271723
825,1945.009756790818,55.155164372783474,1845.8448356272165
826,1947.2531737371496,75.95383426161015,1846.0461657383898
827,1949.495759820067,72.74914108257167,1846.2508589174283
828,1951.7375154085958,60.541042337091085,1846.458957662909
829,1953.9784408715514,31.32949533945498,1846.670504660545
830,1956.2185365775601,76.11445721604923,1846.8855427839508
831,1958.4578028950255,52.895884904626655,1847.1041150953733
832,1960.6962401921726,100.6737351535462,1847.3262648464538
833,1962.9338488369972,85.44796452102332,1847.5520354789767
834,1965.1706291973148,34.21852937439121,1847.7814706256088
835,1967.4065816407265,60.98538588933593,1848.014614110664
836,1969.6417065346336,6.748490049154498,1848.2515099508455
837,1971.876004246238,55.507797644010225,1848.4922023559898
838,1974.1094751425312,53.26326427017034,1848.7367357298297
839,1976.342119590312,80.01484532926884,1848.9851546707312
840,1978.5739379561749,100.76249602754592,1849.237503972454
841,1980.8049306065134,86.5061713751088,1849.4938286248912
842,1983.0350979075122,48.24582618517297,1849.754173814827
843,1985.264440225159,110.98141507332048,1850.0185849266795
844,1987.4929579252525,48.71289245673938,1850.2871075432606
845,1989.720651373371,89.44021255348548,1850.5597874465145
846,1991.9475209349011,80.16332938173014,1850.8366706182699
847,1994.173566975024,83.882196759002,1851.117803240998
848,1996.3987898587275,86.59676830144713,1851.4032316985529
849,1998.623189950798,72.30699742307456,1851.6930025769254
850,2000.8467676158134,78.012837335011,1851.987162664989
851,2003.0695232181615,102.71424104474272,1852.2857589552573
852,2005.2914571220215,35.411161355375725,1852.5888386446243
853,2007.5125696913726,22.10355086487425,1852.8964491351257
854,2009.7328612900083,69.79136196532613,1853.2086380346739
855,2011.9523322815005,105.47454684218292,1853.525453157817
856,2014.170983029239,81.15305747350953,1853.8469425264905
857,2016.388813896406,99.82684562923691,1854.173154370763
858,2018.6058252459832,96.49586287041598,1854.504137129584
859,2020.8220174407643,52.16006054846616,1854.8399394515338
860,2023.0373908433282,89.81938980441805,1855.180610195582
861,2025.2519458160675,83.47380156817349,1855.5261984318265
862,2027.4656827211682,13.123246557752054,1855.876753442248
863,2029.678601920622,30.767675278538718,1856.2323247214613
864,2031.890703776218,60.40703802254416,1856.5929619774558
865,2034.1019886495553,100.0412848676408,1856.9587151323592
866,2036.312456902018,56.67036567681998,1857.32963432318
867,2038.522108894817,90.2942300974471,1857.705769902553
868,2040.730944988952,103.91282756050282,1858.0871724394972
869,2042.9389655452087,94.52610727984256,1858.4738927201574
870,2045.1461709241996,133.13401825143387,1858.8659817485661
871,2047.3525614863372,72.73650925262359,1859.2634907473764
872,2049.5581375918237,69.33352884137435,1859.6664711586257
873,2051.762899600669,49.925025355520575,1860.0749746444794
874,2053.9668478726967,127.51094691201911,1860.489053087981
875,2056.16998276751,93.09124140619474,1860.9087585938053
876,2058.3723046445452,53.66585651099945,1861.3341434890006
877,2060.5738138630118,128.23473967625523,1861.7652603237448
878,2062.774510781947,53.79783812790515,1862.2021618720948
879,2064.9743957601786,62.35509886726618,1862.6449011327338
880,2067.173469156346,98.90646867027704,1863.093531329723
881,2069.3717313288817,50.4518940867556,1863.5481059132444
882,2071.56918263603,99.99132143963425,1864.0086785603658
883,2073.7658234358328,75.52469682422634,1864.4753031757737
884,2075.961654086156,95.05196610746293,1864.948033892537
885,2078.1566749446365,105.57307492715677,1865.4269250728432
886,2080.3508863687416,105.08796869124421,1865.9120313087558
887,2082.5442887157405,127.59659257703083,1866.4034074229692
888,2084.736882342695,68.09889153045265,1866.9011084695474
889,2086.928667606486,52.59481026531921,1867.4051897346808
890,2089.1196448637857,69.08429326256987,1867.9157067374301
891,2091.309814471081,78.5672847695148,1868.4327152304852
892,2093.4991767846595,119.0437287990917,1868.9562712009083
893,2095.687732160626,80.51356912912047,1869.4864308708795
894,2097.8754809548664,73.97674930153926,1870.0232506984607
895,2100.0624235230966,92.4332126216716,1870.5667873783284
896,2102.248560220828,66.88290215746565,1871.1170978425343
897,2104.433891403376,99.32576073874407,1871.674239261256
898,2106.6184174258665,117.76173095646436,1872.2382690435356
899,2108.8021386432306,69.19075516195767,1872.8092448380423
900,2110.9850554102036,48.61277546618658,1873.3872245338134
901,2113.1671680813306,120.02773373899163,1873.9722662610084
902,2115.3484770109594,117.43557160834166,1874.5644283916583
903,2117.5289825532445,75.83623045958711,1875.1637695404129
904,2119.708685062161,78.22965143470833,1875.7703485652917
905,2121.887584891468,64.61577543156409,1876.384224568436
906,2124.065682394746,17.99454310314468,1877.0054568968553
907,2126.242977925389,96.36589485682202,1877.634105143178
908,2128.4194718365775,22.72977085359912,1878.2702291464009
909,2130.595164481319,91.08611100736039,1878.9138889926396
910,2132.7700562124173,77.43485498411974,1879.5651450158803
911,2134.94414738249,72.77594220127321,1880.2240577987268
912,2137.117438343963,72.10931182685545,1880.8906881731446
913,2139.2899294490635,64.4349027787755,1881.5650972212245
914,2141.4616210498384,121.75265372408103,1882.247346275919
915,2143.6325134981334,78.06250307819892,1882.937496921801
916,2145.802607145602,74.36438900418807,1883.635610995812
917,2147.9719023437174,62.65824941199844,1884.3417505880016
918,2150.1403994437433,77.94402195770954,1885.0559780422905
919,2152.308098796775,30.221644042783964,1885.778355957216
920,2154.475000753697,61.491052813318674,1886.5089471866813
921,2156.6411056652073,121.75218515930078,1887.2478148406992
922,2158.8064138818268,75.00497771384403,1887.995022286156
923,2160.970925753872,66.24936685245825,1888.7506331475417
924,2163.134641631468,60.48528869227721,1889.5147113077228
925,2165.2975618645614,66.71267909133121,1890.2873209086688
926,2167.4596868028957,51.93147364778224,1891.0685263522178
927,2169.621016796031,45.141607699173846,1891.8583923008262
928,2171.781552193336,67.34301632169854,1892.6569836783015
929,2173.941293343996,66.53563432942406,1893.464365670576
930,2176.100240596991,73.71939627356278,1894.2806037264372
931,2178.258394301129,67.89423644171256,1895.1057635582874
932,2180.415754805018,64.06008885711049,1895.9399111428895
933,2182.57232245708,80.21688727787705,1896.783112722123
934,2184.7280976055476,89.36456519628132,1897.6354348037187
935,2186.8830805984617,28.50305583797217,1898.4969441620278
936,2189.037271783682,79.63229216124,1899.36770783876
937,2191.1906715088667,80.75220685626596,1900.247793143734
938,2193.3432801214963,74.8627323443693,1901.1372676556307
939,2195.49509796886,35.96380077726417,1902.0361992227358
940,2197.6461253980565,82.05534403630008,1902.9446559637
941,2199.7963627560007,74.13729373171668,1903.8627062682833
942,2201.945810389413,62.20958120189698,1904.790418798103
943,2204.0944686448333,51.27213751261684,1905.7278624873832
944,2206.2423378686008,46.32489345629165,1906.6751065437084
945,2208.389418406882,61.36777955122443,1907.6322204487756
946,2210.5357106056485,105.40072604086731,1908.5992739591327
947,2212.681214810684,68.4236628930621,1909.576337106938
948,2214.8259313675894,65.43651979929109,1910.563480200709
949,2216.9698606217676,60.439226173934,1911.560773826066
950,2219.1130029184474,75.43171115350765,1912.5682888464924
951,2221.2553586026706,59.41390359592742,1913.5860964040726
952,2223.396928019278,75.38573207975514,1914.6142679202449
953,2225.537711512933,89.34712490343713,1915.6528750965629
954,2227.6777094281133,65.2980100845732,1916.7019899154268
955,2229.816922109109,67.23831535914996,1917.76168464085
956,2231.955349900024,41.16796818080866,1918.8320318191913
957,2234.0929931447763,40.08689572007847,1919.9131042799215
958,2236.2298521870925,50.99502486363622,1921.0049751363638
959,2238.365927370522,37.89228221355188,1922.1077177864481
960,2240.5012190384177,111.77859408654649,1923.2214059134535
961,2242.635727533961,57.65388651323633,1924.3461134867637
962,2244.7694532001406,57.51808523738123,1925.4819147626188
963,2246.9023963797486,61.371115715138785,1926.6288842848612
964,2249.034557415409,50.212903114320625,1927.7870968856794
965,2251.165936649551,109.04337231362683,1928.9566276863732
966,2253.2965344244276,112.86244790190835,1930.1375520980916
967,2255.4263510820974,92.67005417741348,1931.3299458225865
968,2257.5553869644336,34.46611514704432,1932.5338848529557
969,2259.683642413131,53.25055452559627,1933.7494454744037
970,2261.8111177697006,86.02329573501493,1934.976704264985
971,2263.9378133754594,76.78426190364394,1936.215738096356
972,2266.063729571557,20.533375865480366,1937.4666241345196
973,2268.1888666989325,62.2705601594198,1938.7294398405802
974,2270.313225098376,97.9957370285058,1940.0042629714942
975,2272.4368051104575,55.70882841918228,1941.2911715808177
976,2274.5596070755832,101.40975598054797,1942.590244019452
977,2276.6816313339773,72.09844106359697,1943.901558936403
978,2278.802878225674,49.77480472048137,1945.2251952795186
979,2280.9233480905273,119.43876770374777,1946.5612322962522
980,2283.043041268202,56.09025046559941,1947.9097495344006
981,2285.1619580981887,65.72917315714062,1949.2708268428594
982,2287.280098919784,84.35545562762877,1950.6445443723712
983,2289.3974640721103,18.96901742372188,1952.0309825762781
984,2291.5140538941055,26.569777788733518,1953.4302222112665
985,2293.6298687245235,100.15765566187861,1954.8423443381214
986,2295.7449089019347,98.73256967752809,1956.267430322472
987,2297.8591747647274,65.2944381644536,1957.7055618355464
988,2299.9726666511147,57.84317914508438,1959.1568208549156
989,2302.085384899113,97.3787103347488,1960.6212896652512
990,2304.1973298465705,23.90094914093652,1962.0990508590635
991,2306.308501831146,18.409812662542436,1963.5901873374576
992,2308.418901190315,37.905217689107985,1965.094782310892
993,2310.5285282613763,62.38708070008988,1966.6129192999101
994,2312.6373833814473,58.85531786409638,1968.1446821359036
995,2314.7454668874675,29.309845038141475,1969.6901549618585
996,2316.8527791161723,63.750577766898914,1971.249422233101
997,2318.9593204041444,70.17743128194547,1972.8225687180545
998,2321.0650910877807,118.59032050101587,1974.4096794989841
999,2323.170091503275,57.989160027256275,1976.0108399727437
1000,2325.2743219866657,51.373864148461735,1977.6261358515383
1001,2327.377782873803,25.744346836348996,1979.255653163651
1002,2329.4804745003453,64.10052174577822,1980.8994782542218
1003,2331.5823972017843,41.44230221402563,1982.5576977859744
1004,2333.6835513134215,91.76960126002609,1984.230398739974
1005,2335.783937170385,26.082331583628275,1985.9176684163717
1006,2337.8835551076295,98.38040556482338,1987.6195944351766
1007,2339.982405459909,48.66373526303414,1989.3362647369659
1008,2342.080488561813,120.9322324163295,1991.0677675836705
1009,2344.1778047477487,46.185808440692654,1992.8141915593073
1010,2346.2743543519423,4.424374429265981,1994.575625570734
1011,2348.3701377084417,66.64784115160137,1996.3521588483986
1012,2350.465155151111,56.85611905291603,1998.143880947084
1013,2352.55940701364,94.04911825333966,1999.9508817466603
1014,2354.6528936295417,33.22674854715774,2001.7732514528423
1015,2356.745615332142,15.38891940206895,2003.611080597931
1016,2358.8375724545936,68.53553995843595,2005.464460041564
1017,2360.928765329873,54.666519028540506,2007.3334809714595
1018,2363.0191942907645,65.78176509581317,2009.2182349041868
1019,2365.108859669891,70.88118631410794,2011.118813685892
1020,2367.1977617996863,62.96469050694009,2013.03530949306
1021,2369.285901012406,53.032185166736326,2014.9678148332637
1022,2371.3732776401416,45.083577454091255,2016.9164225459087
1023,2373.4598920147823,26.11877419701068,2018.8812258029893
