pixel_index,raman_shift_cm-1,corrected_intensity,background_intensity
0,-227.0845872155876,11.435344390249384,645.5646556097506
1,-224.00993473358594,3.448993253306867,645.5510067466931
2,-220.93650114177493,11.46238633090195,645.537613669098
3,-217.8642858423948,5.475525403580036,645.52447459642
4,-214.79328823808706,1.4884122452515385,645.5115877547485
5,-211.72350773185312,0.0,645.4989513767964
6,-208.65494372707388,0.5134362981109462,645.486563701889
7,-205.5875956275032,1.5255770240476068,645.4744229759524
8,-202.52146283725918,0.0,645.462527451502
9,-199.45654476084817,2.5491246123688143,645.4508753876312
10,-196.39284080313206,11.560534949999578,645.4394650500004
11,-193.33035036936093,8.571705289174702,645.4282947108253
12,-190.2690728651426,3.5826373511347356,645.4173626488653
13,-187.20900769647088,0.0,645.4066671494124
14,-184.1501542696974,6.603793495719742,645.3962065042803
15,-181.09251199155537,0.0,645.3859790117921
16,-178.03608026913585,1.6240170232305218,645.3759829767695
17,-174.98085850991586,1.6337832894786288,645.3662167105214
18,-171.9268461217345,0.0,645.3566785308323
19,-168.8740425128017,4.6526332380485655,645.3473667619514
20,-165.82244709169606,2.661720265419376,645.3382797345806
21,-162.77205926737338,0.6705842141363973,645.3294157858636
22,-159.72287844913652,0.0,645.3207732593743
23,-156.67490404667853,1.6876494948943446,645.3123505051057
24,-153.6281354700612,2.6958541205420943,645.3041458794579
25,-150.58257212969974,0.0,645.2961577452278
26,-147.53821343638447,0.0,645.2883844715965
27,-144.49505880127649,3.7191755658810735,645.2808244341189
28,-141.45310763590555,1.7265239852879404,645.2734760147121
29,-138.41235935215923,0.0,645.2663376016432
30,-135.37281336230234,0.0,645.2594075895195
31,-132.33446907894452,2.7473156207244074,645.2526843792756
32,-129.29732591509656,0.753833621836975,645.246166378163
33,-126.26138328410532,0.0,645.2398519997384
34,-123.22664059969497,0.7662603361476386,645.2337396638524
35,-120.19309727595616,4.772172203362288,645.2278277966377
36,-117.16075272734166,4.77788516950136,645.2221148304986
37,-114.12960636866852,3.7834007959008886,645.2165992040991
38,-111.09965761512026,4.788720637648794,645.2112793623512
39,-108.07090588224253,2.793846243595908,645.2061537564041
40,-105.04335058594523,1.7987791563672317,645.2012208436328
41,-102.01699114249395,8.803520912373642,645.1964790876264
42,-98.99182696853585,5.808073041823036,645.191926958177
43,-95.96785748107375,4.812437068732038,645.187562931268
44,-92.94508209745307,4.816614510936802,645.1833854890632
45,-89.92350023541603,15.820606880104833,645.1793931198952
46,-86.9031113130388,8.824415681746245,645.1755843182538
47,-83.88391474877703,8.8280424152249,645.1719575847751
48,-80.8659099614333,3.831488573770116,645.1685114262299
49,-77.84909637018099,3.8347556444881548,645.1652443555118
50,-74.83347339455777,0.0,645.1621548916272
51,-71.81904045444392,0.0,645.1592415596824
52,-68.80579697010353,14.843497109126815,645.1565028908732
53,-65.79374236215197,1.8460625775268227,645.1539374224732
54,-62.78287605154939,3.8484563021777376,645.1515436978223
55,-59.7731974596419,1.8506797336842737,645.1493202663157
56,-56.76470600810739,1.8527343166075525,645.1472656833924
57,-53.75740111900756,0.0,645.1453785105235
58,-50.75128221474238,1.8563426847985056,645.1436573152015
59,-47.746348718091284,2.8578993290719836,645.142100670928
60,-44.74260005216764,1.8592928427967763,645.1407071572032
61,-41.74003564046645,1.860524640485778,645.1394753595142
62,-38.73865490681451,0.861596130676503,645.1384038693235
63,-35.738457275426725,9.862508715942226,645.1374912840578
64,-32.73944217084546,4.863263792903581,645.1367362070964
65,-29.74160901798601,0.0,645.1361372477605
66,-26.744957242117156,11.864306978699119,645.1356930213009
67,-23.74948626886978,6.86459785111299,645.135402148887
68,-20.755195524213047,10.86473674240392,645.1352632575961
69,-17.762084434491243,0.0,645.1352749804007
70,-14.770152426389107,3.8645640438415967,645.1354359561584
71,-11.779398926953492,7.86425517040027,645.1357448295997
72,-8.789823363586878,11.863799748682823,645.1362002513172
73,-5.801425164051691,0.8631991222463284,645.1368008777537
74,-2.8142037564508025,0.0,645.1375453711912
75,0.17184143075946873,0.8615676002605142,645.1384323997395
76,3.1567109687520056,0.8605393626753539,645.1394606373246
77,6.140405428357084,0.0,645.1406287636777
78,9.122925380062371,10.858064535676817,645.1419354643232
79,12.104271393973894,3.8566205694316977,645.1433794305683
80,15.084444039878928,17.855040640509287,645.1449593594907
81,18.063443887189614,4.853326046072198,645.1466739539278
82,21.04127150497114,6.851478077535148,645.1485219224649
83,24.01792746193959,0.0,645.1505019794243
84,26.993412326461932,0.8473871551462935,645.1526128448537
85,29.967726666551684,6.8451467554853025,645.1548532445147
86,32.940871049871085,6.842778090128377,645.1572219098716
87,35.91284604373326,4.840282421919824,645.1597175780802
88,38.8836522150892,0.0,645.1623389919758
89,41.85329013055381,2.834915099937348,645.1650849000627
90,44.821760356403715,1.8320459434978602,645.1679540565021
91,47.78906345852957,3.829054778898808,645.1709452211012
92,50.755200002505426,1.8259428406985307,645.1740571593015
93,53.720170553543234,5.822711357832418,645.1772886421676
94,56.683975676507984,0.0,645.1806384463761
95,59.646615935915555,2.8158946457965612,645.1841053542034
96,62.608091895937065,0.8123118464845902,645.1876881535154
97,65.56840412039449,2.8086143622446116,645.1913856377554
98,68.52755317275638,1.8048033940672212,645.1951966059328
99,71.48553961614651,3.800880137387935,645.1991198626121
100,74.4423640133547,5.796845782098899,645.2031542179011
101,77.39802692680216,0.7927015125601429,645.2072984874399
102,80.35252891857832,1.788448507610724,645.2115514923893
103,83.30587055042568,13.784087940580548,645.2159120594195
104,86.25805238373762,0.0,645.2203790206985
105,89.20907497955406,0.0,645.2249512138814
106,92.15893889858319,4.770372517901706,645.2296274820983
107,95.10764470118185,0.0,645.2344066739431
108,98.05519294736435,3.7607123565373968,645.2392876434626
109,101.00158419679585,0.0,645.2442692501445
110,103.94681900879887,0.7506496410935597,645.2493503589064
111,106.89089794235773,8.745470159915612,645.2545298400844
112,109.83382155609458,7.740193430578415,645.2598065694216
113,112.77559040832581,7.734820571943374,645.2651794280566
114,115.71620505697756,13.729352697487116,645.2706473025129
115,118.65566605966582,0.0,645.2762090846862
116,121.5939739736575,0.7181363281654285,645.2818636718346
117,124.5311293558574,4.71239003343419,645.2876099665658
118,127.46713276286454,1.7065531231734212,645.2934468768266
119,130.4019847508985,1.70062668410867,645.2993733158913
120,133.33568587586007,6.694611797649486,645.3053882023505
121,136.2682366933118,3.6885095399010197,645.311490460099
122,139.1996377584498,5.682320981674366,645.3176790183256
123,142.12988962616,3.6760471884992967,645.3239528115007
124,145.05899285095987,0.0,645.3303107793655
125,147.98694798705444,5.663248133079378,645.3367518669206
126,150.91375558828457,3.656724975585803,645.3432750244142
127,153.83941620816364,11.650120792668645,645.3498792073314
128,156.76393039985814,0.6434366236180722,645.3565633763819
129,159.6872987162136,3.6366735025098933,645.3633264974901
130,162.60952170970688,7.629832458218175,645.3701675417818
131,165.53059993250048,0.0,645.3770854855748
132,168.4505339364078,5.615920689634095,645.3840793103659
133,171.36932427291256,0.6088519971794994,645.3911480028205
134,174.28697149314726,3.6017094452390666,645.3982905547609
135,177.2034761479105,8.594494036844708,645.4055059631553
136,180.11883878767338,5.587206769894465,645.4127932301055
137,183.0330599625644,6.579848637163309,645.4201513628367
138,185.94614022237167,4.572420626314852,645.4275793736851
139,188.85808011654498,3.564923719912372,645.4350762800876
140,191.76888019420457,2.5573588954306388,645.4426411045694
141,194.6785410041345,12.549727125266827,645.4502728747332
142,197.58706309477412,4.542029376752453,645.4579706232475
143,200.49444701424622,4.534266612164174,645.4657333878358
144,203.4006933103005,2.5264397887352743,645.4735602112647
145,206.3058025304006,2.5185498586673702,645.4814501413326
146,209.20977522163918,1.510597769141441,645.4894022308586
147,212.1126119307903,7.502584462329196,645.4974155376708
148,215.01431320428534,0.4945108754048988,645.5054891245951
149,217.9148795882304,0.48637794055593986,645.5136220594441
150,220.81431162839556,0.0,645.5218134150049
151,223.71260987020386,0.0,645.5300622690289
152,226.60977485876396,5.461632295780646,645.5383677042194
153,229.50580713884412,8.453271191779322,645.5467288082207
154,232.40070725488076,0.0,645.5551446736067
155,235.29447575098075,0.43638560213014443,645.5636143978699
156,238.18711317089534,4.4278629165911525,645.5721370834088
157,241.07862005808303,5.419288162481735,645.5807118375183
158,243.96899695564673,3.4106622276234475,645.5893377723766
159,246.85824440635537,1.401985994964889,645.5980140050351
160,249.74636295265915,0.0,645.6067396574066
161,252.63335313666352,7.3844861437464715,645.6155138562535
162,255.5192155001573,0.0,645.6243357331772
163,258.4039505845975,0.0,645.6332044246061
164,261.2875589310987,3.357880928215309,645.6421190717847
165,264.17004108045,2.3489211792381184,645.6510788207619
166,267.0513975731154,0.33991717762023654,645.6600828223798
167,269.9316289492336,0.33086976773790866,645.6691302322621
168,272.81073574860704,0.0,645.6782202108031
169,275.6887185107089,5.312648076843857,645.6873519231561
170,278.5655777746824,0.0,645.6965245392222
171,281.4413140793458,3.2942627663614985,645.7057372336385
172,284.31592796319615,5.285010814232805,645.7149891857672
173,287.18941996438593,3.2757204203159063,645.7242795796841
174,290.0617906207532,0.0,645.7336076041672
175,292.9330404697977,5.257027547314692,645.7429724526853
176,295.8031700487154,0.0,645.7523733233865
177,298.6721798943427,2.2381905809127147,645.7618094190873
178,301.54007054321437,3.2287200527395044,645.7712799472605
179,304.4068425315312,24.219215879975195,645.7807841200248
180,307.27249639516015,7.209678845867529,645.7903211541325
181,310.13703266964285,12.200109729041515,645.7998902709585
182,313.00045189022177,2.1905093035109076,645.8094906964891
183,315.862754591775,0.0,645.8191216613103
184,318.72394130888364,2.1712175994030076,645.828782400597
185,321.58401257579044,4.161527845899286,645.8384721541007
186,324.44296892641944,5.151809833860966,645.848190166139
187,327.30081089436294,2.1420643144161886,645.8579356855838
188,330.15753901290526,17.132292034149827,645.8677079658502
189,333.01315381498165,6.122493735115313,645.8775062648847
190,335.8676558332303,3.112670154845887,645.8873298451541
191,338.7210455999511,1.1028220263655157,645.8971779736345
192,341.57332364711647,0.0929500782009427,645.9070499217991
193,344.4244905063867,4.083055034392601,645.9169449656074
194,347.27454670910316,5.073137614505981,645.926862385494
195,350.1234927862692,0.06319853364334449,645.9368014663567
196,352.9713292685778,4.05323850245486,645.9467614975451
197,355.81805668638816,2.043258227149636,645.9567417728504
198,358.6636755697624,0.0,645.966741590492
199,361.50818644841354,1.023239746891818,645.9767602531082
200,364.35158985174013,0.013202932256717759,645.9867970677433
201,367.1938863088393,0.0,645.9968513458372
202,370.03507634846346,0.0,646.0069224032136
203,372.8751604990528,4.982990439931541,646.0170095600685
204,375.7141392887395,0.0,646.0271121409592
205,378.5520132453088,2.962770525207361,646.0372294747926
206,381.38878289625336,0.9526391051856535,646.0473608948143
207,384.22444876873163,6.942494261403226,646.0575057385968
208,387.05901138958797,7.93233665197215,646.0676633480278
209,389.89247128534555,7.922166930699859,646.0778330693001
210,392.72482898221114,5.911985747101312,646.0880142528987
211,395.55608500607036,5.90179374640968,646.0982062535903
212,398.38623988249464,6.891591569587831,646.1084084304122
213,401.2152941367322,6.881379853340036,646.11862014666
214,404.0432482937148,1.8711592301229985,646.128840769877
215,406.8701028780617,7.860930328157565,646.1390696718424
216,409.69585841407144,0.0,646.1493062285604
217,412.5205154257173,1.8404501797518833,646.1595498202481
218,415.34407443666885,11.830200168674992,646.169799831325
219,418.1665359702879,5.819944349599268,646.1800556504007
220,420.987900549587,4.809683329735321,646.1903166702647
221,423.8081686972839,3.799417712126342,646.2005822878737
222,426.6273409357928,0.0,646.210851904341
223,429.44541778718514,0.7788750750745521,646.2211249249254
224,432.2623997732398,1.768599240980734,646.2314007590193
225,435.0782874154016,0.0,646.2416788201372
226,437.89308123481396,5.7480414740953165,646.2519585259047
227,440.70678175231035,0.0,646.2622392980473
228,443.5193894883837,0.0,646.2725205623788
229,446.3309049632471,2.717198251210789,646.2828017487892
230,449.1413286967735,6.7069177087649905,646.293082291235
231,451.9506612085363,0.6966383722738101,646.3033616277262
232,454.75890301778816,5.6863607996841665,646.3136392003158
233,457.56605464347376,5.676085544911643,646.3239144550884
234,460.37211660422554,1.6658131578518578,646.3341868421481
235,463.17708941835286,0.0,646.3444558156086
236,465.98097360386805,5.645279166419982,646.35472083358
237,468.7837696784581,1.635018641841043,646.364981358159
238,471.58547815950425,6.624763144583653,646.3752368554163
239,474.3860995640864,0.0,646.3854867953864
240,477.18563440894616,7.604269347944523,646.3957306520555
241,479.98408321053455,0.0,646.4059679033498
242,482.7814464849903,1.5838019688746954,646.4161980311253
243,485.5777247481379,4.573579478844749,646.4264205211553
244,488.37291851548713,4.563365136880634,646.4366348631194
245,491.16702830224233,0.0,646.4468405505925
246,493.96005462330186,6.542962918966964,646.457037081033
247,496.7519979932498,5.532776044228399,646.4672239557716
248,499.54285892634925,4.522599320000154,646.4774006799998
249,502.3326379365771,1.5124332372412255,646.4875667627588
250,505.1213355375915,3.502278283072428,646.4977217169276
251,507.9089522427296,7.4921349407876505,646.5078650592123
252,510.69548856503155,3.4820036898654507,646.5179963101345
253,513.4809450172253,0.47188500598053906,646.5281149940195
254,516.265322111748,9.461779361014578,646.5382206389854
255,519.0486203606945,0.0,646.5483127769319
256,521.8308402758819,6.441609056471748,646.5583909435283
257,524.6119823688065,6.431545321797671,646.5684546782023
258,527.3920471506586,5.421496475870413,646.5785035241296
259,530.1710351323275,1.4114629717792013,646.5885370282208
260,532.9489468243812,0.0,646.5985547411116
261,535.725782737106,2.3914437828494783,646.6085562171505
262,538.5015433804585,9.381458985612198,646.6185410143878
263,541.2762292640963,8.371491305435939,646.6285086945641
264,544.0498408973751,2.3615411769009143,646.6384588230991
265,546.8223787893369,2.351609030919917,646.6483909690801
266,549.5938434487346,0.0,646.6583047052505
267,552.3642353840049,1.3318003920010142,646.668199607999
268,555.1335551032699,0.0,646.6780752573471
269,557.9018031143614,23.312068763060893,646.6879312369391
270,560.6689799248118,0.0,646.6977671340298
271,563.4350860418278,0.0,646.7075825394734
272,566.2001219723309,7.282622952287852,646.7173770477121
273,568.9640882229337,3.2728497432349286,646.7271502567651
274,571.7269852999391,7.2630982317836015,646.7369017682164
275,574.4888137093575,0.25336881279588397,646.7466311872041
276,577.2495739568865,2.243661877590739,646.7563381224093
277,580.009266547925,1.2339778139564714,646.7660221860435
278,582.7678919875724,3.2243170061613,646.7756829938387
279,585.5254507806224,3.2146798349649544,646.785320165035
280,588.2819434315629,0.0,646.7949333223697
281,591.0373704445891,6.195477907934105,646.8045220920659
282,593.7917323235818,6.185913896179159,646.8140861038208
283,596.5450295721377,4.1763750092052305,646.8236249907948
284,599.2972626935326,11.166861610400133,646.8331383895999
285,602.0484321907671,3.1573740597119695,646.842625940288
286,604.798538566501,0.0,646.8520872863405
287,607.5475823231384,4.138477925344205,646.8615220746558
288,610.2955639627518,3.129070044461514,646.8709299555385
289,613.0424839871315,0.0,646.8803105826881
290,615.7883428977578,8.110336386812492,646.8896636131875
291,618.5331411958056,0.0,646.8989887074916
292,621.2768793821739,7.091714470584179,646.9082855294158
293,624.0195579574411,5.082446253874991,646.917553746125
294,626.7611774218884,0.0,646.9267930281219
295,629.5017382755108,4.063996950764249,646.9360030492358
296,632.2412410179911,5.054816513388914,646.9451834866111
297,634.9796861487303,0.04566597930374883,646.9543340206963
298,637.7170741668058,0.03654566476825494,646.9634543352317
299,640.4534055710312,0.0,646.9725441172395
300,643.18868085989,6.018396942988829,646.9816030570112
301,645.9229005315862,0.0,646.9906308480963
302,648.6560650840198,0.0,646.9996271872919
303,651.3881750147988,0.0,647.0085917746303
304,654.1192308212401,0.0,647.0175243133681
305,656.8492330003418,6.973575490025041,647.026424509975
306,659.5781820488422,3.964707925878315,647.0352920741217
307,662.3060784631346,9.955873281330582,647.0441267186694
308,665.0329227393627,2.9470718403417777,647.0529281596582
309,667.7587153733496,1.9383038837049753,647.061696116295
310,670.4834568606321,2.9295696890566205,647.0704303109434
311,673.2071476964456,0.0,647.0791304691111
312,675.9297883757371,0.0,647.0877963194392
313,678.6513793931564,5.903572406308854,647.0964275936911
314,681.3719212430541,0.0,647.1050240267404
315,684.0914144194904,0.0,647.1135853565596
316,686.8098594162392,4.877888675790473,647.1221113242095
317,689.5272567267727,4.8693983261727,647.1306016738273
318,692.2436068442601,0.0,647.139056152615
319,694.958910261599,3.8525254891717395,647.1474745108283
320,697.673167471373,9.84414349823453,647.1558565017655
321,700.3863789658855,6.835798118244497,647.1642018817555
322,703.0985452371476,0.827489589852803,647.1725104101472
323,705.809666776871,6.819218150702568,647.1807818492974
324,708.519744076477,5.8109840354401285,647.1890159645599
325,711.228777627096,0.0,647.1972125242737
326,713.93676791957,0.7946287002474719,647.2053712997525
327,716.6437154444488,3.786507934727865,647.2134920652721
328,719.3496206919781,0.0,647.2215745980602
329,722.0544841521305,1.7703813217158313,647.2296186782842
330,724.7583063145794,8.762375910960031,647.23762408904
331,727.4610876687035,0.7544093836587535,647.2455906163412
332,730.1628287036013,2.746481950892985,647.253518049107
333,732.8635299080747,7.738593820848791,647.2614061791512
334,735.5631917706239,2.7307451988291405,647.2692548011709
335,738.2618147794869,1.7229362872654974,647.2770637127345
336,740.9593994225916,0.0,647.2848327142716
337,743.6559461875837,0.7074383909398421,647.2925616090602
338,746.3514555618037,13.699749796783863,647.3002502032161
339,749.0459280323379,19.692101694318126,647.3078983056819
340,751.7393640859519,1.6844942717855247,647.3155057282145
341,754.4317642091294,0.6769277146253216,647.3230722853747
342,757.1231288880788,4.669402205484516,647.3305977945155
343,759.8134586087068,1.6619179242293285,647.3380820757707
344,762.5027538566385,3.6544750479564527,647.3455249520435
345,765.1910151172127,1.647073751004541,647.3529262489955
346,767.8782428754776,0.0,647.3602857950347
347,770.5644376161907,0.0,647.3676034213044
348,773.2495998238257,7.625121038327734,647.3748789616723
349,775.9337299825808,4.617887747281543,647.3821122527185
350,778.6168285763483,3.6106968662758163,647.3893031337242
351,781.2988960887454,2.6035485533392375,647.3964514466608
352,783.9799330030964,3.596442963822142,647.4035570361779
353,786.659939802448,10.58938025040743,647.4106197495926
354,789.3389169695586,2.5823605631225064,647.4176394368775
355,792.0168649869003,6.575384049350305,647.4246159506497
356,794.6937843366503,6.568450853840659,647.4315491461593
357,797.3696755007213,2.56156111872167,647.4384388812783
358,800.0445389607225,3.5547149835111895,647.4452850164888
359,802.7183751979877,0.0,647.4520874148717
360,805.3911846935664,3.5411540579042367,647.4588459420958
361,808.0629679282155,0.5344395335940817,647.4655604664059
362,810.7337253824231,4.527769141388376,647.4722308586116
363,813.4034575363737,2.5211430079239108,647.4788569920761
364,816.0721648699829,4.514561257295327,647.4854387427047
365,818.7398478628843,0.0,647.4919759889331
366,821.4065069944124,8.501531388283297,647.4984686117167
367,824.0721427436349,0.0,647.504916494519
368,826.73675558934,12.488680476700438,647.5113195232996
369,829.400346010012,10.482322413496263,647.5176775865037
370,832.0629144838664,6.476009424949552,647.5239905750504
371,834.7244614888413,2.4697416176786646,647.5302583823213
372,837.3849875025819,1.4635190958509838,647.536480904149
373,840.0444930024516,0.0,647.5426580388059
374,842.7029784655515,1.4512103130072092,647.5487896869928
375,845.3604443686854,1.4451242481723057,647.5548757518277
376,848.0168911883688,6.439083861165841,647.5609161388342
377,850.6723194008484,6.433089244070175,647.5669107559298
378,853.3267294821,7.427140486584335,647.5728595134157
379,855.9801219077865,0.0,647.5787623239639
380,858.6324971533244,0.0,647.584619102607
381,861.2838556938304,2.409570233273598,647.5904297667264
382,863.9341980041528,0.0,647.5961942360408
383,866.583524558851,3.3980875674049003,647.6019124325951
384,869.2318358322136,0.392415719251062,647.6075842807489
385,871.8791322982387,0.3867902928349167,647.6132097071651
386,874.5254144306552,3.3812113592015294,647.6187886407985
387,877.1706827029108,4.375678987115293,647.6243210128847
388,879.8149375881725,0.3701932430716397,647.6298067569284
389,882.4581795593327,0.3647541913078385,647.6352458086922
390,885.1004090890059,2.359361893814821,647.6406381061852
391,887.7416266495184,0.0,647.6459835896516
392,890.3818327129316,4.348717798440589,647.6512822015594
393,893.0210277510254,4.343466113410955,647.656533886589
394,895.6592122352954,0.0,647.661738591622
395,898.296386636977,6.333103734270935,647.6668962657291
396,900.9325514270045,3.3279931398402596,647.6720068601597
397,903.5677070760579,0.0,647.6770703283304
398,906.2018540545251,8.317913374187356,647.6820866258126
399,908.8349928325313,6.312944289677375,647.6870557103226
400,911.4671238799176,14.30802245829102,647.691977541709
401,914.0982476662455,6.303147918058016,647.696852081942
402,916.7283646608075,8.298320704897947,647.701679295102
403,919.3574753326187,7.29354085263185,647.7064591473682
404,921.9855801504231,0.0,647.7111916070065
405,924.6126795826783,5.284123355640531,647.7158766443595
406,927.2387740975734,4.279485768165955,647.720514231834
407,929.8638641630345,0.2748956561097202,647.7251043438903
408,932.4879502466891,0.0,647.7296469570301
409,935.1110328159151,4.265857950213899,647.7341420497861
410,937.7331123377976,7.261410397290206,647.7385896027098
411,940.3541892791592,2.2570104016394907,647.7429895983605
412,942.974264106541,0.25265797870599727,647.747342021294
413,945.5933372862191,5.248353141948996,647.751646858051
414,948.211409284186,5.244095902854042,647.755904097146
415,950.8284805661757,7.23988627094468,647.7601137290553
416,953.4445515976342,1.2357242537932507,647.7642757462067
417,956.0596228437383,0.23160985703248116,647.7683901429675
418,958.6736947694071,0.0,647.7724569156326
419,961.2867678392709,4.22352393758581,647.7764760624142
420,963.8988425176914,7.219552416570195,647.7804475834298
421,966.509919268757,3.215628519309007,647.784371480691
422,969.1199985562915,2.211752241908016,647.788247758092
423,971.7290808438435,3.207923578601708,647.7920764213983
424,974.3371665946881,6.204142521764538,647.7958574782355
425,976.9442562718341,4.200409061922414,647.7995909380776
426,979.5503503380207,0.0,647.803276812236
427,982.155449255704,8.19308488615195,647.806915113848
428,984.7595534870812,2.189494142135004,647.810505857865
429,987.3626634940812,0.0,647.8140490610419
430,989.9647797383614,1.1824552580748104,647.8175447419252
431,992.5659026812912,0.17900707915839575,647.8209929208416
432,995.1660327839991,0.0,647.8243936198871
433,997.7651705073251,1.172253137084681,647.8277468629153
434,1000.3633163118493,0.0,647.8310526755257
435,1002.960470657874,4.165688914946713,647.8343110850533
436,1005.5566340054413,6.1624778794440545,647.837522120556
437,1008.1518068143247,3.1593141871958323,647.8406858128042
438,1010.7459895440131,2.15619780573104,647.843802194269
439,1013.3391826537509,6.153128700888942,647.8468712991111
440,1015.9313866025046,5.150106836831014,647.849893163169
441,1018.5226018489657,2.1471321760520823,647.8528678239479
442,1021.1128288515627,3.1442046793913505,647.8557953206086
443,1023.7020680684667,3.141324306044453,647.8586756939555
444,1026.2903199575644,0.0,647.8615089864257
445,1028.8775849764845,4.135704757922326,647.8642952420777
446,1031.4638635825954,6.13296549342067,647.8670345065793
447,1034.0491562329862,3.1302731728025037,647.8697268271975
448,1036.6334633844874,0.0,647.8723722527858
449,1039.2167854936608,0.12502916622634075,647.8749708337737
450,1041.799123016804,0.0,647.877522622155
451,1044.3804764099411,1.119972328523545,647.8800276714765
452,1046.96084612884,0.11751396317345097,647.8824860368265
453,1049.5402326290027,0.0,647.884897774824
454,1052.1186363656614,6.112737056393712,647.8872629436063
455,1054.696057793791,6.110418397181434,647.8895816028186
456,1057.2724973680818,13.108146186398017,647.891853813602
457,1059.8479555429794,0.0,647.8940796385825
458,1062.4224327726606,7.103740858140213,647.8962591418598
459,1064.9959295110416,8.101607611004965,647.898392388995
460,1067.5684462117524,8.099520552999593,647.9004794470004
461,1070.1399833281962,2.097479615672569,647.9025203843274
462,1072.710541313469,5.095484729144687,647.9045152708553
463,1075.2801206204447,13.093535822119861,647.9064641778801
464,1077.8487217017082,0.0,647.9083671781029
465,1080.4163450095884,1.0897756543813557,647.9102243456186
466,1082.9829909961502,5.087964244095247,647.9120357559048
467,1085.5486601132068,0.08619851419041424,647.9138014858096
468,1088.1133528122866,8.0844783864585,647.9155216135415
469,1090.6770695446635,14.082803781343046,647.917196218657
470,1093.2398107613735,0.08117461795040981,647.9188253820496
471,1095.8015769131548,3.0795908140614756,647.9204091859385
472,1098.362368450506,6.07805228614302,647.921947713857
473,1100.922185823662,0.0,647.9234410506415
474,1103.481029482579,8.075110717580287,647.9248892824197
475,1106.0388998769804,1.073707503400442,647.9262924965996
476,1108.5957974563066,6.072349218142335,647.9276507818577
477,1111.1517226697472,0.07103577187183419,647.9289642281282
478,1113.7066759662139,0.0,647.9302329265911
479,1116.260657794397,7.068543030338674,647.9314569696613
480,1118.8136686026817,9.06736354902307,647.9326364509769
481,1121.365708839227,11.066228534612264,647.9337714653877
482,1123.916778951908,3.0651378910555422,647.9348621089445
483,1126.4668793883534,0.0640915211133688,647.9359084788866
484,1129.0160105959349,0.0,647.9369106736319
485,1131.5641730217535,1.0621312072357796,647.9378687927642
486,1134.1113671126568,1.0612170629772208,647.9387829370228
487,1136.657593315243,2.0603467917098897,647.9396532082901
488,1139.202852075828,11.059520290418504,647.9404797095815
489,1141.7471438404918,0.0,647.9412625450329
490,1144.2904690550497,6.057998180109848,647.9420018198902
491,1146.8328281650565,4.057302359502955,647.942697640497
492,1149.3742216158093,6.056649885715615,647.9433501142844
493,1151.9146498523385,6.0560406502415844,647.9439593497584
494,1154.4541133194446,1.0554745435103996,647.9445254564896
495,1156.9926124616352,0.0,647.945048545101
496,1159.530147723188,6.054471272742603,647.9455287272574
497,1162.0667195481037,8.05403388434695,647.945966115653
498,1164.6023283801458,5.053639175998683,647.9463608240013
499,1167.136974662814,2.0532870329772095,647.9467129670228
500,1169.6706588393367,4.052977339566382,647.9470226604336
501,1172.2033813527034,1.0527099790649572,647.947290020935
502,1174.7351426456485,1.0524848337989852,647.947515166201
503,1177.2659431606367,5.052301785132613,647.9476982148674
504,1179.7957833398902,10.052160713479225,647.9478392865208
505,1182.324663625365,0.052061498313605625,647.9479385016864
506,1184.852584458769,6.052004018182515,647.9479959818175
507,1187.3795462815544,12.051988150716511,647.9480118492835
508,1189.9055495349182,6.052013772641203,647.9479862273588
509,1192.4305946597945,8.05208075978851,647.9479192402115
510,1194.9546820968787,19.052188987108252,647.9478110128917
511,1197.4778122866,7.052338328679298,647.9476616713207
512,1199.9999856691338,10.05252865772104,647.947471342279
513,1202.5212026844033,7.052759846604999,647.947240153395
514,1205.0414637720853,0.053031766865501595,647.9469682331345
515,1207.5607693715854,2.0533442892117364,647.9466557107883
516,1210.0791199220769,2.0536972835391225,647.9463027164609
517,1212.5965158624663,0.0,647.9459093810601
518,1215.112957631409,6.054524163715541,647.9454758362845
519,1217.6284456673109,7.054997785387286,647.9450022146127
520,1220.1429804083152,6.055511350708002,647.944488649292
521,1222.6565622923295,0.0,647.9439352743266
522,1225.1691917569979,0.0,647.9433422244666
523,1227.6808692397115,0.0,647.9427096351968
524,1230.1915951776123,0.0,647.9420376427245
525,1232.7013700075925,4.058673616030774,647.9413263839692
526,1235.2101941662881,5.0594240034495215,647.9405759965505
527,1237.7180680900908,6.060213381223093,647.9397866187769
528,1240.224992215132,0.061041610365464294,647.9389583896345
529,1242.7309669772994,6.061908551224178,647.9380914487758
530,1245.235992812224,8.062814063492056,647.937185936508
531,1247.7400701552858,0.0,647.9362419937817
532,1250.2431994416302,1.0647402378203878,647.9352597621796
533,1252.745381106128,3.065760616094508,647.9342393839055
534,1255.2466155834165,3.0668189982280865,647.9331810017719
535,1257.7469033078726,5.067915240809953,647.93208475919
536,1260.2462447136304,6.069049199842652,647.9309508001573
537,1262.7446402345747,3.0702207307534763,647.9297792692465
538,1265.2420903043385,2.0714296884058285,647.9285703115942
539,1267.7385953563078,4.072675927110367,647.9273240728896
540,1270.2341558236103,0.0,647.9260406993632
541,1272.728772139138,5.075279662225057,647.9247203377749
542,1275.222444735533,0.0,647.9233631354035
543,1277.7151740451707,0.0,647.9219692400344
544,1280.2069605002075,3.079461200051014,647.920538799949
545,1282.6978045325202,0.0,647.9190719639128
546,1285.1877065737624,5.082431118835757,647.9175688811642
547,1287.676667055327,0.0,647.9160297014035
548,1290.1646864083666,3.085545425219152,647.9144545747808
549,1292.6517650637845,0.0,647.9128436518855
550,1295.1379034522279,7.088802916266104,647.9111970837339
551,1297.6231020041057,9.090484978241193,647.9095150217588
552,1300.107361149579,3.092202382202345,647.9077976177977
553,1302.5906813185625,3.093954975918905,647.9060450240811
554,1305.0730629407276,2.0957426067780034,647.904257393222
555,1307.5545064454834,7.097565121796379,647.9024348782036
556,1310.0350122620114,2.0994223676312913,647.9005776323687
557,1312.5145808192394,3.1013141905923476,647.8986858094077
558,1314.99321254585,6.103240436652527,647.8967595633475
559,1317.4709078702806,0.0,647.8947990485404
560,1319.9476672207197,3.107195580347593,647.8928044196524
561,1322.4234910251173,7.109224168348192,647.8907758316518
562,1324.8983797111714,12.111286560202188,647.8887134397978
563,1327.3723337063398,8.113382600370414,647.8866173996296
564,1329.8453534378325,9.115512133045513,647.8844878669545
565,1332.3174393326149,3.117675002163196,647.8823249978368
566,1334.788591817416,4.119871051413838,647.8801289485862
567,1337.2588113187028,2.1221001242531656,647.8778998757468
568,1339.72809826272,0.0,647.8756379360856
569,1342.196453075449,5.1266567134192655,647.8733432865807
570,1344.663876182645,7.128983915589515,647.8710160844105
571,1347.1303680098008,0.0,647.8686564869421
572,1349.595928982182,1.13373534827997,647.86626465172
573,1352.0605595248019,13.136159263545323,647.8638407364547
574,1354.5242600624383,0.0,647.861384899011
575,1356.987031019617,0.0,647.8588972973972
576,1359.4488728206297,1.1436219102463383,647.8563780897537
577,1361.9097858895186,5.1461725656590716,647.8538274343409
578,1364.3697706500918,5.148754510471349,647.8512454895287
579,1366.8288275259015,0.0,647.8486324137845
580,1369.2869569402683,0.0,647.8459883656624
581,1371.7441593162778,4.156686496208863,647.8433135037911
582,1374.2004350767584,0.0,647.8406079868636
583,1376.655784644308,0.0,647.8378719736244
584,1379.1102084412753,7.164894377140399,647.8351056228596
585,1381.563706889773,7.167690906615576,647.8323090933844
586,1384.0162804116726,5.170517455967456,647.8294825440325
587,1386.4679294286077,0.17337386635574603,647.8266261336443
588,1388.918654361968,0.0,647.8237400210554
589,1391.3684556328951,0.0,647.8208243650857
590,1393.8173336623022,4.182120675471992,647.817879324528
591,1396.2652888708571,2.1850949418638947,647.8149050581361
592,1398.71232167899,3.1880982753860962,647.8119017246139
593,1401.1584325068966,8.191130517396118,647.8088694826039
594,1403.6036217745184,0.0,647.8058084906756
595,1406.0478899015652,2.197281092684989,647.802718907315
596,1408.4912373075151,2.2003991090881527,647.7996008909118
597,1410.9336644115945,4.203545400250505,647.7964545997495
598,1413.375171632797,2.206719808007165,647.7932801919928
599,1415.8157593898834,12.209922174322855,647.7900778256771
600,1418.2554281013663,0.0,647.7868476586968
601,1420.694178185522,0.0,647.7835898487939
602,1423.1320100603932,6.219695446453443,647.7803045535466
603,1425.5689241437792,4.223008069641992,647.776991930358
604,1428.0049208532453,0.0,647.773652136445
605,1430.4400006061205,8.22971467117361,647.7702853288264
606,1432.8741638194886,10.233108335688144,647.7668916643119
607,1435.3074109102058,3.2365287005094387,647.7634712994906
608,1437.7397422948877,4.239975609280236,647.7600243907198
609,1440.171158389907,7.243448905886794,647.7565510941132
610,1442.6016596114066,2.246948434469914,647.7530515655301
611,1445.0312463752907,3.2504740394363125,647.7495259605637
612,1447.4599190972315,7.254025565470215,647.7459744345298
613,1449.887678192654,6.257602857544839,647.7423971424552
614,1452.3145240767512,11.261205760933194,647.7387942390668
615,1454.7404571644934,2.264834121220133,647.7351658787799
616,1457.165477870598,3.268487784313038,647.731512215687
617,1459.589586609556,3.2721665964538715,647.7278334035461
618,1462.0127837956147,3.2758704042302043,647.7241295957698
619,1464.4350698427986,5.279599054586242,647.7204009454138
620,1466.8564451648826,6.283352394834992,647.716647605165
621,1469.2769101754204,4.28713027266906,647.7128697273309
622,1471.696465287723,0.2909325361719084,647.7090674638281
623,1474.115110914867,0.2947590338299051,647.7052409661701
624,1476.532847469699,1.2986096145427837,647.7013903854572
625,1478.9496753648277,1.3024841276359211,647.6975158723641
626,1481.3655950126247,0.3063824228710246,647.693617577129
627,1483.7806068252346,0.0,647.6896956495423
628,1486.1947112145654,6.314249761065071,647.6857502389349
629,1488.6079085922925,2.318218505832874,647.6817814941671
630,1491.0201993698556,2.322210436382761,647.6777895636172
631,1493.431583958465,0.32622540482998375,647.67377459517
632,1495.8420627690866,7.33026326379445,647.6697367362056
633,1498.2516362124668,6.334323866412433,647.6656761335876
634,1500.660304699121,7.338407066347372,647.6615929336526
635,1503.0680686393157,0.0,647.657487282198
636,1505.474928443105,2.3466406755292155,647.6533593244708
637,1507.880884520287,3.3507907948433058,647.6492092051567
638,1510.2859372804555,4.354962931631803,647.6450370683682
639,1512.6900871329472,4.359156942366553,647.6408430576334
640,1515.0933344868877,3.36337268411512,647.6366273158849
641,1517.4956797511556,0.0,647.6323899854476
642,1519.8971233344023,0.3718687919712238,647.6281312080288
643,1522.2976656450505,0.0,647.6238511247052
644,1524.697307091294,7.380450124087474,647.6195498759125
645,1527.096048081094,0.0,647.6152276014341
646,1529.4938890221717,2.3891155596111275,647.6108844403889
647,1531.8908303220283,7.393479468778992,647.606520531221
648,1534.2868723879403,13.397863988312452,647.6021360116875
649,1536.6820156269323,4.402268981152474,647.5977310188475
650,1539.076260445825,20.406694310949206,647.5933056890508
651,1541.4696072511879,0.41113984207379417,647.5888601579262
652,1543.862056449367,0.41560543962953034,647.5843945603705
653,1546.253608446489,0.0,647.5799090305367
654,1548.644263648434,5.42459629817688,647.5754037018231
655,1551.0340224608688,0.0,647.5708787068619
656,1553.4228852892227,3.4336658224927987,647.5663341775072
657,1555.810852538692,0.0,647.5617702448244
658,1558.1979246142587,4.442812960921401,647.5571870390786
659,1560.5841019206537,1.4474153102772789,647.5525846897227
660,1562.9693848624097,3.452036674613055,647.547963325387
661,1565.3537738438001,15.456676926133127,647.5433230738669
662,1567.7372692688937,4.461335937887725,647.5386640621123
663,1570.1198715415169,0.46601358378450186,647.5339864162155
664,1572.5015810652685,0.0,647.5292902614005
665,1574.8823982435342,3.47542427798885,647.5245757220111
666,1577.2623234794619,2.4801570784999285,647.5198429215001
667,1579.641357175967,0.0,647.5150919824172
668,1582.019499735746,0.0,647.5103230263982
669,1584.3967515612699,0.0,647.5055361741536
670,1586.7731130547693,0.49926845454331215,647.5007315454567
671,1589.1485846182638,3.5040907408669,647.4959092591331
672,1591.523166653544,4.5089305669515625,647.4910694330484
673,1593.8968595621632,3.5137878159022193,647.4862121840978
674,1596.269663745461,0.0,647.4813376281936
675,1598.641579604542,7.523554119744972,647.476445880255
676,1601.0126075402943,5.5284629458043355,647.4715370541957
677,1603.382747953372,4.533388737086625,647.4666112629134
678,1605.7520012442076,13.538331381722287,647.4616686182777
679,1608.1203678130064,6.543290768880638,647.4567092311194
680,1610.4878480597413,8.548266788781461,647.4517332112185
681,1612.8544423841813,10.553259332706602,647.4467406672934
682,1615.2201511858466,1.5582682930109968,647.441731706989
683,1617.5849748640528,3.563293563134266,647.4367064368657
684,1619.9489138178733,5.568335037611973,647.431664962388
685,1622.3119684461708,0.0,647.426607387913
686,1624.6741391475719,2.578466183320984,647.421533816679
687,1627.0354263204947,9.583555649205664,647.4164443507943
688,1629.3958303631105,13.588660908774159,647.4113390912258
689,1631.7553516733947,8.593781862212495,647.4062181377875
690,1634.1139906490787,5.598918410870851,647.4010815891291
691,1636.4717476876722,5.604070457274929,647.3959295427251
692,1638.828623186468,5.609237905137547,647.3907620948625
693,1641.184617542542,0.0,647.3855793406306
694,1643.5397311527272,0.0,647.3803813739086
695,1645.893964413647,3.6248317126451184,647.3751682873549
696,1648.2473177217068,3.6300598276046685,647.3699401723953
697,1650.5997914730747,0.0,647.3646971192121
698,1652.9513860637094,4.640560783267688,647.3594392167323
699,1655.302101889347,5.645833447383666,647.3541665526163
700,1657.6519393454898,0.0,647.3488792132468
701,1660.0008988274265,7.656422716282805,647.3435772837172
702,1662.3489807302255,5.661739152179962,647.33826084782
703,1664.6961854487333,4.667070011963915,647.3329299880361
704,1667.0425133775698,3.6724152144770414,647.327584785523
705,1669.3879649111411,0.0,647.3222253201031
706,1671.7325404436199,0.6831483297467003,647.3168516702533
707,1674.076240368971,2.688536086907561,647.3114639130924
708,1676.4190650809392,1.6939378756291035,647.3060621243709
709,1678.7610149730315,0.0,647.3006463784589
710,1681.102090438551,4.70478325166539,647.2952167483346
711,1683.4422918705839,1.7102266944261828,647.2897733055738
712,1685.7816196619715,7.715683879662265,647.2843161203377
713,1688.1200742053616,2.721154738638006,647.278845261362
714,1690.4576558931703,2.726639204054891,647.2733607959451
715,1692.7943651175908,5.732137210062888,647.2678627899371
716,1695.1302022706118,2.737648692271705,647.2623513077283
717,1697.4651677439815,7.743173587762044,647.256826412238
718,1699.7992619292422,1.7487118350971969,647.2512881649028
719,1702.1324852177174,4.754263374334641,647.2457366256654
720,1704.4648380005046,4.759828147036615,647.2401718529634
721,1706.7963206685022,0.0,647.2345939037175
722,1709.1269336123503,1.7709971666791944,647.2290028333208
723,1711.4566772225069,2.7766013043733437,647.2233986956267
724,1713.7855518892004,7.782218457062072,647.2177815429379
725,1716.1135580024377,1.7878485740047836,647.2121514259952
726,1718.4406959520156,0.0,647.2065083939657
727,1720.7669661274986,0.0,647.2008524944317
728,1723.09236891825,1.80481622662046,647.1951837733795
729,1725.4169047133985,2.810497724812535,647.1895022751875
730,1727.7405739018755,4.816191957384717,647.1838080426153
731,1730.0633768723849,4.821898883207723,647.1781011167923
732,1732.3853140134072,0.0,647.172381537206
733,1734.7063857132105,8.833350658309087,647.1666493416909
734,1737.0265923598565,0.0,647.1609045664172
735,1739.345934341171,4.844852754120893,647.1551472458791
736,1741.6644120447781,1.8506225871160495,647.149377412884
737,1743.982025858089,0.0,647.1435950985402
738,1746.2987761682766,0.0,647.1378003322467
739,1748.6146633623232,7.868006858319291,647.1319931416807
740,1750.929687826981,0.8738264472128776,647.1261735527871
741,1753.24384994879,0.879658410233219,647.1203415897668
742,1755.5571501140662,0.0,647.1144972750651
743,1757.8695887089355,2.891359370639293,647.1086406293607
744,1760.181166119276,4.897228328445863,647.1027716715541
745,1762.491882730771,2.903109581243484,647.0968904187565
746,1764.8017389288914,3.909003113721951,647.090996886278
747,1767.110735098876,0.0,647.0850910876167
748,1769.4188716257595,4.920826965553147,647.0791730344469
749,1771.7261488943686,2.9267572633918917,647.0732427366081
750,1774.0325672893002,1.9326997979067073,647.0673002020933
751,1776.3381271949452,0.0,647.0613454370381
752,1778.6428289954906,0.0,647.0553784457087
753,1780.9466730748873,0.0,647.0493992304911
754,1783.2496598168948,1.9565922081206963,647.0434077918793
755,1785.5517896050435,0.0,647.0374041284643
756,1787.853062822655,8.968611763077547,647.0313882369225
757,1790.1534798528407,12.974639887995636,647.0253601120044
758,1792.453041078489,8.980680253476976,647.019319746523
759,1794.751746882297,7.986732868656873,647.0132671313431
760,1797.0495976467218,2.992797744630934,647.0072022553691
761,1799.3465937540268,0.998874894465871,647.0011251055341
762,1801.6427355862543,0.0,646.9950356667886
763,1803.9380235252365,2.011066077911323,646.9889339220887
764,1806.2324579525957,12.017180147614795,646.9828198523852
765,1808.5260392497385,11.023306563388019,646.976693436612
766,1810.8187677978574,0.0,646.9705546516749
767,1813.110643977948,1.0355965275603012,646.9644034724397
768,1815.4016681707665,0.0,646.9582398717216
769,1817.6918407568896,3.0479361797265483,646.9520638202735
770,1819.9811621166557,0.0,646.9458752867741
771,1822.2696326302053,7.060325762182288,646.9396742378177
772,1824.5572526774688,1.0665393620984105,646.9334606379016
773,1826.8440226381624,6.07276555058445,646.9272344494156
774,1829.1299428917912,0.07900436736997563,646.92099563263
775,1831.4150138176483,4.085255854314937,646.9147441456851
776,1833.6992357948184,3.0915200554213698,646.9084799445786
777,1835.9826092021824,12.097797016844424,646.9022029831556
778,1838.265134418394,3.1040867869041904,646.8959132130958
779,1840.546811821915,4.1103894160964956,646.8896105839035
780,1842.8276417909915,2.1167049571046164,646.8832950428954
781,1845.1076247036476,18.123033464810874,646.8769665351891
782,1847.3867609377173,6.129374996307433,646.8706250036926
783,1849.6650508708105,0.13572961090801527,646.864270389092
784,1851.9424948803382,7.142097370159263,646.8579026298407
785,1854.219093343492,4.1484783378521115,646.8515216621479
786,1856.49484663726,3.1548725800329294,646.8451274199671
787,1858.7697551384329,6.161280165015228,646.8387198349848
788,1861.0438192235645,3.167701163390916,646.8322988366091
789,1863.3170392690297,0.0,646.8258643519584
790,1865.5894156509703,2.1805836941495045,646.8194163058505
791,1867.86094874534,11.18704537921019,646.8129546207898
792,1870.1316389278734,6.193520783042231,646.8064792169578
793,1872.4014865740992,10.200009987799945,646.7999900122
794,1874.6704920593356,2.2065130779839137,646.7934869220161
795,1876.9386557587015,2.2130301404527017,646.7869698595473
796,1879.2059780471009,0.0,646.7804387355657
797,1881.472459299234,0.0,646.7738934584627
798,1883.7380998895885,4.23266606576226,646.7673339342377
799,1886.0029001924509,0.0,646.7607600664869
800,1888.2668605818922,4.245828243608798,646.7541717563912
801,1890.5299814317932,1.252431097294334,646.7475689027057
802,1892.7922631158112,0.25904859825197946,646.740951401748
803,1895.0537060073996,1.2656808526132863,646.7343191473867
804,1897.3143104798144,4.272327968969648,646.7276720310304
805,1899.574076906108,4.2789900583844656,646.7210099416155
806,1901.8330056591008,2.2856672344039453,646.714332765596
807,1904.091097111437,0.0,646.7076403869314
808,1906.3483516355427,0.0,646.7009326870752
809,1908.6047696036374,2.30579045503589,646.6942095449641
810,1910.8603513877322,0.0,646.6874708370062
811,1913.1150973596393,7.319283562930195,646.6807164370698
812,1915.3690078909715,5.326053783528096,646.6739462164719
813,1917.6220833531152,0.33283995603289895,646.6671600439671
814,1919.874324117273,5.339642214264018,646.660357785736
815,1922.1257305544357,4.34646069462633,646.6535393053737
816,1924.3763030353782,0.0,646.6467044638789
817,1926.6260419306961,1.360146880358002,646.639853119642
818,1928.8749476107553,0.367014871565857,646.6329851284341
819,1931.12302044573,0.0,646.6261003433957
820,1933.3702608055873,4.380801384975143,646.6191986150249
821,1935.6166690600987,0.0,646.6122797911661
822,1937.8622455788122,3.3946562830008133,646.6053437169992
823,1940.1069907310919,0.0,646.5983902350276
824,1942.3509048860865,0.0,646.5914191850674
825,1944.5939884127524,7.415569595764964,646.584430404235
826,1946.8362416798202,5.422576273062873,646.5774237269371
827,1949.0776650558537,0.0,646.5703989848585
828,1951.318258909178,0.43664399304941526,646.5633560069506
829,1953.5580236079384,4.443705380579331,646.5562946194207
830,1955.7969595200586,2.450785354280015,646.54921464572
831,1958.035067013285,4.457884093467442,646.5421159065326
832,1960.2723464551405,6.4650017802360935,646.5349982197639
833,1962.5087982129462,0.0,646.5278614005296
834,1964.7444226538348,0.4792947388563107,646.5207052611437
835,1966.9792201447326,4.486470388892144,646.5135296111079
836,1969.2131910523515,12.493665742900475,646.5063342570995
837,1971.446335743217,5.500880997039303,646.4991190029607
838,1973.6786545836421,1.508116350313344,646.4918836496867
839,1975.910147939753,0.0,646.4846279954144
840,1978.1408161774527,0.0,646.4773518354114
841,1980.3706596624643,0.529945037935704,646.4700549620643
842,1982.5996787602987,0.0,646.4627371648675
843,1984.8278738362644,2.5446017695883256,646.4553982304117
844,1987.0552452554775,0.5519620576275202,646.4480379423725
845,1989.281793382848,0.5593439185006446,646.4406560814994
846,1991.5075185830863,4.566747574396459,646.4332524256035
847,1993.7324212207009,0.5741732504521906,646.4258267495478
848,1995.9565016599993,0.0,646.418378825234
849,1998.1797602650975,3.5890915784078743,646.4109084215921
850,2000.4021973998972,2.5965846954310337,646.403415304569
851,2002.6238134281202,5.604100762882922,646.3958992371171
852,2004.844608713271,7.611640020817504,646.3883599791825
853,2007.0645836186575,6.619202712305764,646.3807972876942
854,2009.2837385073938,3.6267890834473064,646.3732109165527
855,2011.5020737423972,0.0,646.3656006166179
856,2013.7195896863702,10.642033864301084,646.3579661356989
857,2015.9362867018353,8.649692781458725,646.3503072185413
858,2018.1521651511111,9.657376393182972,646.342623606817
859,2020.3672253963039,0.6650849608878389,646.3349150391122
860,2022.5814677993465,1.6728187490837172,646.3271812509163
861,2024.7948927219502,0.0,646.3194219746101
862,2027.0075005256292,4.688363060544816,646.3116369394552
863,2029.2192915717178,0.0,646.3038258715818
864,2031.4302662213422,1.7040115060220842,646.2959884939779
865,2033.6404248354265,0.0,646.2881245264778
866,2035.8497677747068,0.0,646.2802336857503
867,2038.0582953997039,2.727684314711837,646.2723156852882
868,2040.2660080707656,3.735629764603914,646.2643702353961
869,2042.4729061480205,2.7436029568206095,646.2563970431794
870,2044.6789899914147,1.7516041874670236,646.248395812533
871,2046.8842599606867,0.0,646.2403662441297
872,2049.0887164153905,3.7676919645906537,646.2323080354093
873,2051.29235971487,8.77577911943365,646.2242208805663
874,2053.495190218286,6.783895529460324,646.2161044705397
875,2055.697208284582,7.792041506999453,646.2079584930005
876,2057.8984142725344,16.800217367658547,646.1997826323415
877,2060.0988085406943,7.808423430335324,646.1915765696647
878,2062.2983914474353,4.8166600172291965,646.1833399827708
879,2064.497163350937,2.824927453852183,646.1750725461478
880,2066.695124609166,8.833226069040848,646.1667739309592
881,2068.892275579901,0.8415561949673247,646.1584438050327
882,2071.0886166207383,4.849918167150918,646.1500818328491
883,2073.284148089061,2.858312324469125,646.1416876755309
884,2075.478870342069,0.0,646.1332609908306
885,2077.67278373675,6.875198566880044,646.12480143312
886,2079.8658886299186,0.8836913466224132,646.1163086533776
887,2082.058185378184,1.8922177008212202,646.1077822991788
888,2084.2496743379584,0.0,646.0992220146834
889,2086.440355865463,0.9093725593753561,646.0906274406246
890,2088.6302303167217,3.918001785702245,646.0819982142978
891,2090.819298047569,3.9266660304513152,646.0733339695487
892,2093.0075594136392,3.9353656632374623,646.0646343367625
893,2095.195014770383,4.9441010571474635,646.0558989428525
894,2097.3816644730396,0.0,646.0471274112481
895,2099.567508876668,0.0,646.0383193618841
896,2101.752548336138,8.970525588810801,646.0294744111892
897,2103.9367832061052,3.9794078279256837,646.0205921720743
898,2106.12021384105,2.9883277460784257,646.0116722539216
899,2108.30284059525,8.997285737427205,646.0027142625728
900,2110.48466382281,0.0,645.9937178003181
901,2112.6656838776034,0.015317534115411036,645.9846824658846
902,2114.8459011133486,5.024392145575234,645.9756078544248
903,2117.0253158835494,1.033506442494513,645.9664935575055
904,2119.203928541522,6.042660836903337,645.9573391630967
905,2121.3817394403923,8.051855744440672,645.9481442555593
906,2123.558748933095,4.061091584365045,645.938908415635
907,2125.734957372368,3.070368779566593,645.9296312204334
908,2127.910365110762,2.079687756577755,645.9203122434222
909,2130.0849725006296,0.0,645.9109510544148
910,2132.2587798941363,5.098452780440766,645.9015472195592
911,2134.4317876432583,1.1078996986732363,645.8921003013268
912,2136.603996099773,1.117390141499186,645.8826098585008
913,2138.7754056152753,3.1269245538351242,645.8730754461649
914,2140.946016541156,7.136503384307844,645.8634966156922
915,2143.1158292286277,7.146127085266812,645.8538729147332
916,2145.2848440287053,6.15579611279486,645.8442038872051
917,2147.453061292215,2.165510926719776,645.8344890732802
918,2149.6204813697873,0.0,645.8247280093742
919,2151.787104611876,2.1850797718647073,645.8149202281353
920,2153.9529313687235,11.194934741567181,645.8050652584328
921,2156.117961990402,10.204837374654744,645.7951626253453
922,2158.282196826778,4.214788149850506,645.7852118501495
923,2160.445636227536,6.224787549690404,645.7752124503096
924,2162.608280542168,4.234836060535599,645.7651639394644
925,2164.7701301199822,2.244934172582475,645.7550658274175
926,2166.931185310088,2.255082379875148,645.7449176201249
927,2169.091446461407,0.2652811803161512,645.7347188196838
928,2171.2509139226754,1.2755310756780318,645.724468924322
929,2173.409588042438,1.2858325716148329,645.7141674283852
930,2175.567469169051,6.296186177673235,645.7038138223268
931,2177.7245576506825,3.306592407303924,645.6934075926961
932,2179.8808538353087,6.3170517778734165,645.6829482221266
933,2182.036358070714,7.327564810674744,645.6724351893253
934,2184.1910707045067,2.3381320309392777,645.6618679690607
935,2186.344992084093,5.348753967847983,645.651246032152
936,2188.4981225566953,0.0,645.6405688454572
937,2190.6504624693493,1.370164128137958,645.629835871862
938,2192.8020121689024,0.0,645.6190465702687
939,2194.952772002019,0.0,645.6082003955839
940,2197.102742315161,0.0,645.5972967987085
941,2199.2519234546153,5.41366477347492,645.5863352265251
942,2201.400315766475,1.4246848781126573,645.5753151218873
943,2203.5479195966523,1.4357640763918198,645.5642359236082
944,2205.6947352908605,4.446902933550973,645.553097066449
945,2207.840763194639,0.0,645.5418979811074
946,2209.9860036533278,1.4693619057933347,645.5306380942067
947,2212.130457012089,7.480683171716009,645.519316828284
948,2214.274123615899,4.492066398220686,645.5079336017793
949,2216.4170038095363,0.503512170976478,645.4964878290235
950,2218.5590979376007,0.0,645.4849789202277
951,2220.7004063445042,4.526593718528829,645.4734062814712
952,2222.8409293744758,2.538230685309486,645.4617693146905
953,2224.9806673715575,2.5499325823318486,645.4500674176682
954,2227.1196206795917,1.5617000159791132,645.4382999840209
955,2229.257789642255,9.573533596811671,645.4264664031883
956,2231.3951746030207,0.0,645.4145660604221
957,2233.531775905188,3.5974016632262646,645.4025983367737
958,2235.667593891873,7.609437390915787,645.3905626090842
959,2237.802628905995,5.621541750028541,645.3784582499715
960,2239.9368812902926,9.633715372180063,645.3662846278199
961,2242.070351387319,0.0,645.3540411067692
962,2244.2030395394463,0.0,645.3417270467014
963,2246.3349460888544,1.670658196768386,645.3293418032316
964,2248.4660713775447,1.6831152723046898,645.3168847276953
965,2250.596415747329,8.69564483286274,645.3043551671373
966,2252.725979539842,0.0,645.2917524643002
967,2254.8547630965195,0.0,645.2790759576135
968,2256.9827667586374,1.7336750188180758,645.2663249811819
969,2259.109990867254,2.7465011352262536,645.2534988647737
970,2261.2364357632737,0.0,645.2405969338103
971,2263.3621017874,13.772381490646694,645.2276185093533
972,2265.4869892801576,8.785437091905123,645.2145629080949
973,2267.6110985818877,2.7985705576547844,645.2014294423452
974,2269.7344300327522,9.811782579978399,645.1882174200216
975,2271.856983972716,9.825073855362916,645.1749261446371
976,2273.978760741575,3.8384450847113385,645.1615549152887
977,2276.099760678931,7.851896973353291,645.1481030266467
978,2278.2199841242177,5.865430231057189,645.1345697689428
979,2280.339431416662,12.879045572041264,645.1209544279587
980,2282.458102895338,6.892743714984704,645.1072562850153
981,2284.575998899108,0.0,645.0934746169606
982,2286.693119766671,0.0,645.0796086961587
983,2288.809465836531,4.934342209521333,645.0656577904787
984,2290.925037447024,0.0,645.0516211632827
985,2293.039834936289,8.962501926585333,645.0374980734147
986,2295.1538586422926,2.9767122248103988,645.0232877751896
987,2297.267108902815,4.991010481618559,645.0089895183814
988,2299.3795860554515,1.0053974517879851,644.994602548212
989,2301.491290437631,4.019873894660236,644.9801261053398
990,2303.6022223865803,0.0,644.9655594258479
991,2305.712382239351,0.0,644.950901741234
992,2307.821770332827,2.063847721602656,644.9361522783973
993,2309.930387003694,3.0786897403714875,644.9213102596285
994,2312.038232588458,0.0,644.906374902598
995,2314.14530742346,4.108654579655877,644.8913454203441
996,2316.2516118448357,11.123778978737619,644.8762210212624
997,2318.357146188568,8.138999090906395,644.8610009090936
998,2320.4619107904286,5.154315717087002,644.845684282913
999,2322.5659059860377,2.169729662881423,644.8302703371186
1000,2324.669132110816,10.185241738580544,644.8147582614195
1001,2326.771589500004,0.0,644.7991472408253
1002,2328.873278488676,4.216563544366068,644.7834364556339
1003,2330.974199411715,6.232374918579012,644.767625081421
1004,2333.0743526038273,0.0,644.7517122890276
1005,2335.173738399539,3.2643027554499895,644.73569724455
1006,2337.272357133195,2.280420890672758,644.7195791093272
1007,2339.370209138965,4.296642960069789,644.7033570399302
1008,2341.4672947508316,2.3129698118494844,644.6870301881505
1009,2343.5636143026095,4.329402299011235,644.6705977009888
1010,2345.659168127923,10.34594127935668,644.6540587206433
1011,2347.753956560223,0.0,644.6374123844987
1012,2349.8479799327815,10.379342174885096,644.6206578251149
1013,2351.941238578688,0.0,644.603794170215
1014,2354.0337328308556,0.0,644.5868205426747
1015,2356.1254630220255,1.4302639394895778,644.5697360605104
1016,2358.216429484746,6.447460163131609,644.5525398368684
1017,2360.306632551404,5.464769019987443,644.5352309800126
1018,2362.3960725541874,5.48219140668607,644.5178085933139
1019,2364.4847498251297,3.499728224761043,644.500271775239
1020,2366.572664696065,3.517380380661848,644.4826196193382
1021,2368.6598174986625,0.0,644.4648512142344
1022,2370.7462085644124,0.0,644.4469656436123
1023,2372.8318382246225,0.0,644.4289619862061
