pixel_index,raman_shift_cm-1,corrected_intensity,background_intensity
0,-224.94214488331033,10.620064906015159,657.3799350939848
1,-221.87434455198064,0.0,657.5287940966917
2,-218.80775082154221,21.32348944142916,657.6765105585708
3,-215.7423631064261,16.17690857554794,657.8230914244521
4,-212.67818082143205,13.031456389357572,657.9685436106424
5,-209.6152033817262,9.887125995018437,658.1128740049816
6,-206.5534302028195,10.74391053310319,658.2560894668968
7,-203.4928607006002,8.60180317254094,658.3981968274591
8,-200.43349429131217,7.460797110562339,658.5392028894377
9,-197.3753303915679,8.32088557264342,658.6791144273566
10,-194.31836841832467,22.182061812450797,658.8179381875492
11,-191.26260778892572,13.044319111785853,658.9556808882141
12,-188.20804792105474,10.907650780529593,659.0923492194704
13,-185.15468823276188,8.772050156586829,659.2279498434132
14,-182.1025281424529,8.637510605831153,659.3624893941688
15,-179.05156706890654,5.504025522048892,659.4959744779511
16,-176.00180443125063,5.371588326884535,659.6284116731155
17,-172.95323964897298,13.240192469784574,659.7598075302154
18,-169.90587214192348,5.10983142794214,659.8901685720579
19,-166.85970133030992,10.980498706242088,660.0195012937579
20,-163.81472663469336,3.8521878372049514,660.147812162795
21,-160.77094747600148,1.7248923809318057,660.2751076190682
22,-157.72836327551752,2.5986059250486733,660.4013940749513
23,-154.6869734548738,3.473322084651386,660.5266779153486
24,-151.646777436067,0.0,660.6509654977503
25,-148.60777464146668,0.22573684771202807,660.774263152288
26,-145.56996449376123,7.103422818210447,660.8965771817896
27,-142.53334641603152,0.0,661.0179138618356
28,-139.49791983169447,5.861720559186097,661.1382794408139
29,-136.46368416452697,6.742319860024509,661.2576801399755
30,-133.43063883866807,10.623877846510027,661.37612215349
31,-130.39878327861243,2.5063883514991403,661.4936116485009
32,-127.36811690919076,1.3898452348192905,661.6101547651807
33,-124.33863915561763,1.274242383212595,661.7257576167874
34,-121.3103494434372,2.159573710281279,661.8404262897187
35,-118.2832471985579,0.045833156431626776,661.9541668435684
36,-115.25733184725031,7.933014688818957,662.066985311181
37,-112.23260281612328,12.821112301291919,662.1788876987081
38,-109.20905953214775,0.0,662.2898799856629
39,-106.18670142265246,5.600031875023774,662.3999681249762
40,-103.16552791529796,7.490841956948202,662.5091580430518
41,-100.14553843812855,3.3825443601781444,662.6174556398219
42,-97.12673241951816,0.27513321119795364,662.724866788802
43,-94.10910928820283,4.168602662852209,662.8313973371478
44,-91.0926684732547,20.062946894291372,662.9370531057086
45,-88.07740940412106,2.9581601109155145,663.0418398890845
46,-85.06333151058529,8.854236544319065,663.1457634556809
47,-82.05043422279071,11.75117045223567,663.2488295477643
48,-79.03871697121463,2.6489561184823742,663.3510438815176
49,-76.02817918670075,9.547587852904485,663.4524121470955
50,-73.01882030044628,0.0,663.5529400086803
51,-70.01063974397363,3.3473668954634377,663.6526331045366
52,-67.00363694918909,6.2485029529324265,663.7514970470676
53,-63.99781134831979,4.1504625771300425,663.84953742287
54,-60.99316237395073,6.053240207210365,663.9467597927896
55,-57.98968945902247,0.0,664.0431696919768
56,-54.98739203681603,2.8612273700581454,664.1387726299419
57,-51.986269540970234,0.0,664.2335740906104
58,-48.9863214054578,0.0,664.3275795323791
59,-45.98754706460926,0.0,664.4207943881707
60,-42.98994595309559,0.0,664.5132240654899
61,-39.99351750594553,0.0,664.6048739464785
62,-36.99826115851962,6.30425061202925,664.6957493879707
63,-34.00417634654264,0.21414427845081718,664.7858557215492
64,-31.0112625060777,21.124801746400294,664.8751982535997
65,-28.019519073526137,7.036217734632714,664.9637822653673
66,-25.028945485638424,22.948386986988794,665.0516130130112
67,-22.03954117952281,26.861304272339567,665.1386957276604
68,-19.051305592619315,14.774964384530563,665.2250356154694
69,-16.064238162717075,4.689362142326786,665.3106378576732
70,-13.078338327954329,0.6044923893568921,665.3955076106431
71,-10.093605526803259,0.0,665.4796500059417
72,-7.1100391980916635,15.43692984962081,665.5630701503792
73,-4.127638780985609,0.35422687393247543,665.6457731260675
74,-1.1464037149916049,0.27223600952288507,665.7277639904771
75,1.8336665600368964,0.0,665.8090477764916
76,4.812572603895161,0.0,665.8896294924632
77,7.790314976051024,0.0,665.9695141222686
78,10.76689423562321,15.951293374635839,666.0487066253642
79,13.742310941374827,2.872788063158737,666.1272119368413
80,16.716565651754557,14.794965032518121,666.2050349674819
81,19.68965892485113,3.717819396186087,666.2821806038139
82,22.661591318415017,0.0,666.3586537081669
83,25.63236338985189,0.0,666.4344591187271
84,28.601975696226997,0.0,666.5096016495932
85,31.570428794269485,3.4159139091684665,666.5840860908315
86,34.537723240374554,0.0,666.6579172085318
87,37.50385959057746,0.0,666.7310997448621
88,40.46883840059905,0.0,666.8036384181252
89,43.432660225793676,0.0,666.8755379228124
90,46.395325621192626,0.0,666.9468029296611
91,49.35683514149108,0.0,667.0174380857084
92,52.317189341030776,2.912551985652726,667.0874480143473
93,55.276388773826,0.0,667.1568373153824
94,58.234433993557126,0.0,667.2256105650848
95,61.19132555354239,9.70622768375199,667.293772316248
96,64.14706400680298,4.638672901757104,667.3613270982429
97,67.10164990597188,9.571720582926446,667.4282794170736
98,70.0550838033916,5.505366244567426,667.4946337554326
99,73.00736625103595,15.439605427243578,667.5603945727564
100,75.95849780056433,13.374433694719073,667.6255663052809
101,78.90847900327404,26.309846633903135,667.6901533660969
102,81.8573104101523,20.245839854794667,667.7541601452053
103,84.80499257183935,32.18240899042712,667.8175910095729
104,87.75152603862851,32.11954969681244,667.8804503031876
105,90.69691136050739,16.057257652886392,667.9427423471136
106,93.64114908709271,18.995528560452385,668.0044714395476
107,96.5842397676912,20.934358144126463,668.0656418558735
108,99.52618395126044,15.87374215128159,668.1262578487184
109,102.46698218643706,20.81367635199274,668.1863236480073
110,105.4066350215108,22.754156538980737,668.2458434610193
111,108.34514300444393,26.695178527557346,668.3048214724427
112,111.28250668287565,22.63673815556956,668.3632618444304
113,114.21872660408086,0.5788312833441296,668.4211687166559
114,117.15380331503736,14.521453793632645,668.4785462063674
115,120.0877373623674,10.464601591555265,668.5353984084447
116,123.02052929236358,9.408270604545919,668.5917293954541
117,125.95217965098888,14.3524567822966,668.6475432177034
118,128.88268898388327,8.297156096701883,668.7028439032981
119,131.8120578363397,3.2423645418036813,668.7576354581963
120,134.74028675332372,9.18807813373553,668.8119218662645
121,137.66737627948214,22.134292910667682,668.8657070893323
122,140.59332695911044,9.081004932750943,668.918995067249
123,143.51813933619192,1.0282102820615364,668.9717897179385
124,146.44181395436505,2.975905062546076,669.0240949374539
125,149.36435135694086,20.924085399965293,669.0759146000347
126,152.2857520869095,6.872747441839465,669.1272525581605
127,155.20601668691853,8.82188735739237,669.1781126426076
128,158.125145699301,26.77150133749592,669.2284986625041
129,161.04313966604525,8.721585594615135,669.2784144053849
130,163.95999912882522,9.672136362752212,669.3278636372478
131,166.87572462896568,4.623149897391272,669.3768501026087
132,169.79031670748137,13.574622475442993,669.425377524557
133,172.7037759050574,0.0,669.473449604811
134,175.61610276204058,7.478929976226823,669.5210700237732
135,178.52729781846125,9.431757559413768,669.5682424405862
136,181.43736161401566,7.385029506812089,669.6149704931879
137,184.34629468806622,13.338742201633295,669.6612577983667
138,187.25409757965875,8.29289204818258,669.7071079518174
139,190.16077082751596,12.247475471803796,669.7525245281962
140,193.0663149700201,8.20248891882352,669.7975110811765
141,195.97073054524122,10.157928856496028,669.842071143504
142,198.87401809090892,10.113791772947593,669.8862082270524
143,201.77617814444048,9.070074177121114,669.9299258228789
144,204.67721124292584,2.026772598720754,669.9732274012792
145,207.57711792311878,7.983883588156232,670.0161164118438
146,210.47589872145002,4.941403716487798,670.0585962835122
147,213.37355417404453,7.89932957537053,670.1006704246295
148,216.2700848166825,17.857657776998735,670.1423422230013
149,219.16549118481885,5.8163849540510455,670.183615045949
150,222.05977381360057,4.775507759634365,670.2244922403656
151,224.9529332378473,16.735022867228736,670.2649771327713
152,227.84496999203378,0.0,670.3050730293679
153,230.73588461034433,17.65521678390428,670.3447832160957
154,233.625677626614,11.615889041312016,670.384110958688
155,236.51434957436354,6.57694049727354,670.4230595027265
156,239.40190098679707,8.53836792630284,670.4616320736972
157,242.2883323967978,5.500168122954165,670.4998318770458
158,245.1736443369063,2.4623379017673415,670.5376620982327
159,248.0578373393683,7.424874097211045,670.575125902789
160,250.94091193608898,9.387773563628684,670.6122264363713
161,253.82286865865706,16.35103317518201,670.648966824818
162,256.7037080383446,6.314649825796209,670.6853501742038
163,259.5834306061071,9.278620429104194,670.7213795708958
164,262.462036892566,5.242941918391239,670.7570580816088
165,265.33952742802865,12.207611246539614,670.7923887534604
166,268.21590274248325,7.172625385972879,670.8273746140271
167,271.09116336559947,6.137981328600858,670.8620186713991
168,273.96530982672607,8.103676085763936,670.8963239142361
169,276.83834265489077,4.069706688177575,670.9302933118224
170,279.71026237879823,3.0360701858770653,670.9639298141229
171,282.58106952685176,10.002763648161704,670.9972363518383
172,285.4507646271186,3.969784163540112,671.0302158364599
173,288.3193482073449,4.937128839673733,671.0628711603263
174,291.1868207949777,1.9047948033224884,671.0952051966775
175,294.05318291712575,15.872779200288392,671.1272207997116
176,296.91843510060505,15.841079195360862,671.1589208046391
177,299.78257787188244,6.809691972260794,671.1903080277392
178,302.64561175713004,4.7786147335851865,671.2213852664148
179,305.50753728220093,8.747844700751784,671.2521552992482
180,308.3683549726188,0.7173791139439345,671.2826208860561
181,311.2280653536103,14.687215232054541,671.3127847679455
182,314.08666895007013,8.657350332630926,671.3426496673691
183,316.9441662865787,7.6277817118196936,671.3722182881803
184,319.80055788741277,5.598506684310678,671.4014933156893
185,322.65584427651527,8.569522583281923,671.4304774167181
186,325.51002597753194,10.540826760344203,671.4591732396558
187,328.3631035137899,14.512416585485312,671.4875834145147
188,331.2150774082822,25.484289447015044,671.515710552985
189,334.0659481837157,0.0,671.5435572484905
190,336.9157163624634,10.428873923755305,671.5711260762447
191,339.76438246658813,0.0,671.5984195933048
192,342.611947017847,0.3745596613712223,671.6254403386288
193,345.4584105376827,17.34780916687066,671.6521908331293
194,348.3037735472127,4.321326420269315,671.6786735797307
195,351.14803656724655,12.295108936577094,671.7048910634229
196,353.99120011828796,12.269154248681843,671.7308457513182
197,356.8332647205176,11.243459907294664,671.7565400927053
198,359.6742308938192,10.218023480893407,671.7819765191066
199,362.51409915774883,8.192842555668335,671.8071574443317
200,365.35287003155264,8.16791473546607,671.8320852645339
201,368.1905440341797,2.1432376417340038,671.856762358266
202,371.0271216842494,2.118808913465614,671.8811910865344
203,373.8626035000841,12.09462620714396,671.905373792856
204,376.6969899996809,5.070687196687459,671.9293128033125
205,379.53028170073554,12.046989573393148,671.9530104266069
206,382.3624791206358,0.0,671.9764689541176
207,385.1935827764571,8.000309340044623,671.9996906599554
208,388.0235931849564,10.977322198982392,672.0226778010176
209,390.8525108625911,14.954567382955815,672.0454326170442
210,393.68033632551084,0.932042669326961,672.067957330673
211,396.50707008954436,4.909745852504443,672.0902541474956
212,399.33271267022326,4.887674743888169,672.1123252561118
213,402.1572645827539,15.865827171813862,672.1341728281861
214,404.9807263420608,9.844200981497352,672.1557990185026
215,407.8030984627323,0.8227940349795517,672.1772059650204
216,410.62438145907055,8.80160421107064,672.1983957889294
217,413.44457584505244,0.0,672.2193705947053
218,416.26368213436206,11.75986752983465,672.2401324701653
219,419.08170084036055,4.739316513476069,672.2606834865239
220,421.8986324761248,9.718974301552635,672.2810256984474
221,424.714477554398,4.698838855890017,672.30116114411
222,427.5292365876304,10.678908154750502,672.3210918452495
223,430.3429100879666,0.0,672.340819807222
224,433.1554985672454,14.639652980942174,672.3603470190578
225,435.96700253699555,8.620324546483062,672.3796754535169
226,438.7774225084445,11.601192932855838,672.3988070671442
227,441.5867589925072,9.582256199675271,672.4177438003247
228,444.3950124997996,5.563512422659983,672.43648757734
229,447.20218354062956,1.5449596935776526,672.4550403064223
230,450.00827262500155,8.526596120188742,672.4734038798113
231,452.813280262612,10.50841982619204,672.491580173808
232,455.6172069628602,13.490428951168383,672.5095710488316
233,458.4200532348377,0.0,672.5273783494746
234,461.2218195873324,4.454996095442539,672.5450039045575
235,464.0225065288264,0.43755047281490533,672.5624495271851
236,466.8221145674918,6.4202829851985825,672.5797170148014
237,469.62064421121437,4.403191850754524,672.5968081492455
238,472.4180959675677,5.386275303193543,672.6137246968065
239,475.21447034381754,13.369531591720488,672.6304684082795
240,478.009767846939,2.352958980979338,672.6470410190207
241,480.80398898359266,13.336555750997377,672.6634442490026
242,483.59713426014434,5.320320197129604,672.6796798028704
243,486.38920418266065,0.30425063000382124,672.6957493699962
244,489.1801992568936,5.288345375464814,672.7116546245352
245,491.9701199883092,11.27260277451876,672.7273972254812
246,494.7589668820654,9.257021183278312,672.7429788167217
247,497.54674044301436,0.0,672.7584010270933
248,500.33344117572005,6.22633452956245,672.7736654704375
249,503.1190695844361,1.2112262543439556,672.788773745656
250,505.90362617311274,5.196272563234288,672.8037274367657
251,508.6871114454096,10.18147188704495,672.818528112955
252,511.46952590468925,8.166822671361388,672.8331773286386
253,514.2508700539954,11.152323376487061,672.8476766235129
254,517.03114439609,13.137972477388075,672.8620275226119
255,519.8103494334378,2.123768463637589,672.8762315363624
256,522.5884856681914,7.109709839360562,672.8902901606394
257,525.3655536022195,0.0,672.9042048768214
258,528.1415537370738,0.0,672.9179771518461
259,530.91648657402,6.068391561733961,672.931608438266
260,533.6903526140246,13.054899825696566,672.9451001743034
261,536.463152357757,12.041546216093934,672.9584537839061
262,539.234886305594,9.028329323197568,672.9716706768024
263,542.0055549575955,8.015247751442303,672.9847522485577
264,544.7751588135525,9.002300119371512,672.9976998806285
265,547.5436983729313,6.989485059581284,673.0105149404187
266,550.3111741349221,0.0,673.0231987813349
267,553.0775865984078,4.964247257157922,673.0357527428421
268,555.8429362619825,0.0,673.0481781505181
269,558.6072236239345,26.939523683889774,673.0604763161102
270,561.3704491822684,5.927351462410002,673.07264853759
271,564.132613434683,0.0,673.084696099209
272,566.893716878584,3.903379728445998,673.096620271554
273,569.653760011089,8.89157768839766,673.1084223116023
274,572.4127433290121,6.87989653722218,673.1201034627778
275,575.1706673288808,4.86833504499441,673.1316649550056
276,577.9275325069194,3.8568919952319902,673.143108004768
277,580.6833393590637,0.0,673.1544338151601
278,583.4380883809479,0.0,673.1656435759444
279,586.1917800679311,15.823261536392693,673.1767384636073
280,588.9444149150598,0.0,673.1877196414137
281,591.6959934170904,7.801411740537105,673.1985882594629
282,594.4465160684929,6.790654545256189,673.2093454547438
283,597.1959833634419,0.0,673.2199923511907
284,599.94439579582,10.769469940261843,673.2305300597382
285,602.6917538592145,4.759040321622933,673.2409596783771
286,605.43805804692,9.74871770779032,673.2512822922097
287,608.1833088519405,0.738501026494987,673.261498973505
288,610.9275067669897,6.728389218245411,673.2716107817546
289,613.6706522845013,2.7183812362721937,673.2816187637278
290,616.4127458965817,5.708476046472811,673.2915239535272
291,619.1537880950877,20.698672627356018,673.301327372644
292,621.8937793715644,4.688969969986601,673.3110300300134
293,624.632720217259,3.6793670779294416,673.3206329220706
294,627.3706111231508,0.0,673.3301370328053
295,630.1074525799102,8.660456666182085,673.3395433338179
296,632.843245077922,0.0,673.3488527843748
297,635.5779891072891,0.0,673.3580663314635
298,638.3116851578193,8.632815090151666,673.3671849098483
299,641.0443337190189,0.0,673.3762094421259
300,643.7759352801255,6.614859161219556,673.3851408387804
301,646.5064903300819,0.6060200017608395,673.3939799982392
302,649.2359993575335,7.5972721930719445,673.402727806928
303,651.964462850842,0.0,673.411385139327
304,654.6918812980803,2.580047141975001,673.419952858025
305,657.418255187042,7.571568186223658,673.4284318137763
306,660.1435850052211,10.563177154444475,673.4368228455555
307,662.8678712398279,8.554873219387446,673.4451267806126
308,665.591114377786,3.5466555654711556,673.4533444345288
309,668.3133149057311,7.538523388727754,673.4614766112722
310,671.0344733100102,5.530475896747021,673.469524103253
311,673.7545900766884,3.522512308621458,673.4774876913785
312,676.4736656915469,0.0,673.4853681451093
313,679.1917006400569,9.506833777485781,673.4931662225142
314,681.9086954074419,4.49911732967405,673.500882670326
315,684.6246504786071,0.0,673.5085182239966
316,687.3395663381889,15.483926392247213,673.5160736077528
317,690.053443470535,7.476450465348535,673.5235495346515
318,692.7662823596982,7.46905329336505,673.530946706635
319,695.4780834894625,5.461734185413206,673.5382658145868
320,698.1888473433086,8.454492461613086,673.5455075383869
321,700.8985744044608,7.447327453032585,673.5526725469674
322,703.6072651558228,6.440238501632621,673.5597614983674
323,706.3149200800382,0.0,673.5667750397888
324,709.0215396594575,9.426286192347789,673.5737138076522
325,711.7271243761627,0.0,673.5805784276515
326,714.4316747119233,3.412630485190334,673.5873695148097
327,717.1351911482507,0.0,673.5940876735347
328,719.837674166366,1.3992665023260997,673.6007334976739
329,722.5391242472018,12.39269242942919,673.6073075705708
330,725.2395418714153,14.386189534880828,673.6138104651192
331,727.9389275193752,0.37975725618036904,673.6202427438196
332,730.6372816711727,0.0,673.6266049588342
333,733.3346048066128,0.0,673.6328976520422
334,736.0308974052208,2.3608786449042327,673.6391213550958
335,738.7261599462402,0.0,673.6452765894751
336,741.4203929086323,5.348636133456239,673.6513638665438
337,744.1135967710768,1.3426163123956485,673.6573836876044
338,746.80577201198,6.336663456045812,673.6633365439542
339,749.4969191094514,17.330777083059957,673.66922291694
340,752.1870385413356,0.0,673.6750432780141
341,754.8761307851868,0.0,673.6807980887895
342,757.5641963182837,0.0,673.6864878010955
343,760.25123561763,4.3078871429672745,673.6921128570327
344,762.9372491599297,7.302326310970784,673.6976736890292
345,765.6222374216267,0.0,673.7031707198954
346,768.3062008788789,2.2913956371205586,673.7086043628794
347,770.9891400075751,16.2860249782766,673.7139750217234
348,773.671055283307,13.280716909282432,673.7192830907176
349,776.3519471813912,14.275471045242966,673.724528954757
350,779.0318161768795,0.0,673.7297129893963
351,781.7106627445352,8.26516443909486,673.7348355609051
352,784.3884873588443,9.260102973676112,673.7398970263239
353,787.065290494013,7.255102266481003,673.744897733519
354,789.7410726239742,6.250161978761753,673.7498380212382
355,792.4158342223855,7.245281780833352,673.7547182191666
356,795.089575762616,0.2404613520187695,673.7595386479812
357,797.7622977177684,0.23570038059301623,673.764299619407
358,800.4340005606609,0.0,673.7690014362722
359,803.104684763841,3.226355607436176,673.7736443925638
360,805.7743507995847,6.221771226517035,673.778228773483
361,808.4429991398715,3.217245144499884,673.7827548555001
362,811.1106302564311,2.212777093589011,673.787222906411
363,813.777244620692,14.208366814608212,673.7916331853918
364,816.4428427038313,9.204014056945653,673.7959859430543
365,819.1074249767221,1.1997185784977091,673.8002814215023
366,821.770991909995,5.1954801456145105,673.8045198543855
367,824.4335439739812,3.1912985330435504,673.8087014669564
368,827.0950816387408,3.1871735238748897,673.8128264761251
369,829.7556053740783,13.18310490948545,673.8168950905145
370,832.4151156494878,0.0,673.8209075105167
371,835.0736129342293,0.17513607165312806,673.8248639283469
372,837.7310976972617,0.0,673.8287645281004
373,840.3875704072746,4.167390514192903,673.8326094858071
374,843.043031532693,3.163601030512609,673.8363989694874
375,845.6974815416627,1.1598668607928175,673.8401331392072
376,848.3509209020516,2.15618785286631,673.8438121471337
377,851.0033500814628,5.152563862409238,673.8474361375908
378,853.6547695472225,4.148994752885642,673.8510052471144
379,856.3051797663853,13.145480395492086,673.8545196045079
380,858.9545812057283,0.0,673.8579793308979
381,861.6029743317689,0.0,673.8613845397891
382,864.2503596107397,1.1352646628799903,673.86473533712
383,866.8967375086005,9.131968178681177,673.8680318213188
384,869.5421084910595,5.128725916641997,673.871274083358
385,872.1864730235301,8.125537793189551,673.8744622068104
386,874.829831571161,8.12240373209545,673.8775962679046
387,877.472184598843,9.119323664420108,673.8806763355799
388,880.1135325711782,1.1162975284576078,673.8837024715424
389,882.7538759525003,7.113325269680104,673.8866747303199
390,885.3932152068909,5.110406840682344,673.8895931593177
391,888.0315507981416,0.10754220112607982,673.8924577988739
392,890.6688831897768,6.104731317685037,673.895268682315
393,893.3052128450589,4.101974163989212,673.8980258360108
394,895.9405402269747,0.0,673.9007292794306
395,898.5748657982465,0.0,673.9033790251981
396,901.2081900213235,16.094024920852803,673.9059750791472
397,903.8405133583879,0.0,673.9085174403771
398,906.4718362713467,0.08899389869213792,673.9110061013079
399,909.102159221849,9.086558952263886,673.9134410477361
400,911.7314826712638,11.084177741110011,673.91582225889
401,914.3598070807026,0.0818502925149005,673.9181497074851
402,916.9871329110075,4.079576640220353,673.9204233597796
403,919.6134606227454,10.077356824370213,673.9226431756298
404,922.2387906762143,2.07519089145444,673.9248091085456
405,924.8631235314608,5.073078894254536,673.9269211057455
406,927.4864596482495,0.0710208917869295,673.9289791082131
407,930.1087994860783,0.0,673.9309830507515
408,932.7301435041869,8.067067137960976,673.932932862039
409,935.3504921615378,4.06517153531513,673.9348284646849
410,937.9698459168395,5.063330224715287,673.9366697752847
411,940.5882052285186,1.0615432955246433,673.9384567044754
412,943.2055705547505,0.0,673.940189156991
413,945.8219423534456,0.0,673.9418670317183
414,948.4373210822241,9.056509778248028,673.943490221752
415,951.051707198476,9.054941385550137,673.9450586144499
416,953.6651011592991,8.053427908510912,673.9465720914891
417,956.2775034215282,7.051969471079474,673.9480305289205
418,958.8889144417556,3.0505662027745757,673.9494337972254
419,961.4993346762808,5.049218238630488,673.9507817613695
420,964.1087645811605,3.0479257191402667,673.9520742808597
421,966.7172046121716,1.046688790201415,673.9533112097986
422,969.3246552248394,0.0,673.9544923969405
423,971.9311168744139,13.044382314253426,673.9556176857466
424,974.5365900158914,5.043313085559589,673.9566869144404
425,977.1410751039994,5.042300083936766,673.9576999160632
426,979.7445725931984,0.041343481470335064,673.9586565185297
427,982.347082937689,2.0404434553167903,673.9595565446832
428,984.9486065914136,0.0396001876487162,673.9603998123513
429,987.549144008048,0.0,673.9611861344008
430,990.1486956410076,6.038084681205987,673.961915318794
431,992.7472619434457,6.037412831356619,673.9625871686434
432,995.3448433682355,0.0,673.9632014822673
433,997.9414403680186,2.0362419467543305,673.9637580532457
434,1000.5370533951522,8.035743329524848,673.9642566704752
435,1003.1316829017464,6.0353028817755785,673.9646971182244
436,1005.7253293396383,12.034920823809898,673.9650791761901
437,1008.3179931604067,0.0,673.9654026195518
438,1010.9096748153788,0.0,673.9656672190276
439,1013.5003747556046,0.0,673.9658727409299
440,1016.0900934318845,5.033981052780064,673.9660189472199
441,1018.678831294763,7.0338944044355,673.9661055955645
442,1021.2665887945069,4.0338675606096785,673.9661324393903
443,1023.8533663811363,1.0339007720600648,673.9660992279399
444,1026.439164504417,5.033994293672777,673.9660057063272
445,1029.023983613838,6.034148384407445,673.9658516155926
446,1031.6078241586379,6.034363307241506,673.9656366927585
447,1034.1906865877984,1.0346393291149525,673.965360670885
448,1036.7725713500397,0.0,673.9650232791251
449,1039.3534788938146,1.03537575721964,673.9646242427804
450,1041.9334096673363,2.0358367166440985,673.9641632833559
451,1044.5123641185382,4.036359881383646,673.9636401186164
452,1047.090342695114,12.036945537358974,673.963054462641
453,1049.6673458444857,1.0375939741205684,673.9624060258794
454,1052.243374013819,0.0,673.9616945152067
455,1054.8184276500313,6.039080366021267,673.9609196339787
456,1057.3925071997699,7.03991891791145,673.9600810820885
457,1059.965613109436,0.040821443979552896,673.9591785560204
458,1062.5377458251655,14.041788251093294,673.9582117489067
459,1065.1089057928457,6.042819649418107,673.9571803505819
460,1067.6790934580895,17.04391595236075,673.9560840476393
461,1070.2483092662703,5.045077476514621,673.9549225234854
462,1072.816553662505,8.046304541603604,673.9536954583964
463,1075.383827091646,12.047597470427263,673.9524025295727
464,1077.95012999829,3.0489565888050265,673.951043411195
465,1080.51546282678,8.050382225520934,673.9496177744791
466,1083.079826021203,10.051874712267931,673.9481252877321
467,1085.6432200253967,0.0,673.9465656164073
468,1088.2056452829297,9.05506157684033,673.9449384231597
469,1090.7671022371258,17.056756632098427,673.9432433679016
470,1093.3275913310529,5.0585198921419305,673.9414801078581
471,1095.8871130075254,5.060351702377716,673.9396482976223
472,1098.445667709095,5.062252410789142,673.9377475892109
473,1101.0032558780597,4.064222367880575,673.9357776321194
474,1103.559877956477,6.066261926621678,673.9337380733783
475,1106.1155343861378,17.068371442392618,673.9316285576074
476,1108.6702256085807,3.0705512729279008,673.9294487270721
477,1111.223952065094,7.072801778261578,673.9271982217384
478,1113.776714196709,3.075123320671082,673.9248766793289
479,1116.328512444204,8.077516264622773,673.9224837353772
480,1118.8793472481098,1.0799809767153192,673.9200190232847
481,1121.429219048697,7.082517825625132,673.9174821743749
482,1123.9781282859824,0.0,673.9148728179492
483,1126.5260753997404,0.08780941865711611,673.9121905813429
484,1129.0730608294825,9.090564910020362,673.9094350899796
485,1131.6190850144776,8.093394032572405,673.9066059674276
486,1134.1641483937278,1.0962971645453763,673.9037028354546
487,1136.7082514060012,3.0992746859160434,673.900725314084
488,1139.251394489801,17.10232697835079,673.8976730216492
489,1141.7935780833857,11.105454425149901,673.8945455748501
490,1144.3348026247556,7.108657411192098,673.8913425888079
491,1146.8750685516702,3.11193632287916,673.8880636771208
492,1149.4143763016293,13.11529154808045,673.8847084519196
493,1151.9527263118869,6.118723476077548,673.8812765239225
494,1154.4901190194416,2.1222324975088895,673.8777675024911
495,1157.026554861047,15.125819004313826,673.8741809956862
496,1159.5620342732009,3.1294833896780574,673.8705166103219
497,1162.0965576921599,1.1332260479771321,673.8667739520229
498,1164.6301255539142,11.137047374722101,673.8629526252779
499,1167.162738294229,6.140947766503132,673.8590522334969
500,1169.6943963485953,15.144927620934709,673.8550723790653
501,1172.2251001522682,0.0,673.8510126634001
502,1174.7548501402516,6.153127312994911,673.8468726870051
503,1177.2836467473041,10.15734795047365,673.8426520495264
504,1179.8114904079193,0.0,673.8383503498075
505,1182.3383815563661,8.166032814054915,673.8339671859451
506,1184.8643206266506,2.1704978446551877,673.8295021553448
507,1187.3893080525315,8.175045145223976,673.824954854776
508,1189.9133442675206,7.179675119572494,673.8203248804275
509,1192.4364297048805,5.184388172037188,673.8156118279628
510,1194.9585647976326,15.189184707423806,673.8108152925762
511,1197.4797499785384,2.194065130952481,673.8059348690475
512,1199.9999856801232,8.199029848202372,673.8009701517976
513,1202.519272334667,0.20407926505561136,673.7959207349444
514,1205.0376103741874,6.209213787642511,673.7907862123575
515,1207.5550002304788,10.214433822285628,673.7855661777144
516,1210.0714423350623,3.2197397754447366,673.7802602245553
517,1212.5869371192293,14.225132053661127,673.7748679463389
518,1215.101485014026,1.2306110635021241,673.7693889364979
519,1217.6150864502406,4.236177211505833,673.7638227884942
520,1220.1277418584336,7.241830904125663,673.7581690958743
521,1222.6394516688904,14.247572547674736,673.7524274523253
522,1225.1502163116897,8.253402548270515,673.7465974517295
523,1227.6600362166294,0.0,673.7406786882203
524,1230.168911813285,5.265329243762039,673.734670756238
525,1232.6768435309746,2.271426749415582,673.7285732505844
526,1235.1838317987756,8.277614233521035,673.722385766479
527,1237.689877045525,9.283892100386083,673.7161078996139
528,1240.1949796998097,7.290260753790221,673.7097392462098
529,1242.699140189972,7.296720596929276,673.7032794030707
530,1245.2023589441178,14.303272032359928,673.6967279676401
531,1247.7046363900952,10.309915461944115,673.6900845380559
532,1250.2059729555242,2.3166512867937854,673.6833487132062
533,1252.7063690677649,6.323479907215642,673.6765200927844
534,1255.205825153947,7.330401722654983,673.669598277345
535,1257.704341640956,7.3374171316413594,673.6625828683586
536,1260.2019189554212,15.344526531731844,673.6554734682682
537,1262.6985575237481,16.351730319456806,673.6482696805432
538,1265.194257772089,8.35902889026363,673.6409711097364
539,1267.6890201263514,7.3664226384616995,673.6335773615383
540,1270.182845012199,15.373911957166797,673.6260880428332
541,1272.6757328550666,1.381497238245629,673.6185027617544
542,1275.1676840801347,4.389178872260459,673.6108211277395
543,1277.6586991123415,8.396957248413855,673.6030427515861
544,1280.1487783763969,26.40483275449276,673.5951672455072
545,1282.637922296755,14.412805776813457,673.5871942231865
546,1285.1261312976321,16.420876700166104,673.5791232998339
547,1287.6134058030032,10.429045907758905,673.5709540922411
548,1290.0997462366045,30.43731378116354,673.5626862188365
549,1292.5851530219343,19.445680700258322,673.5543192997417
550,1295.0696265822455,21.454147043174316,673.5458529568257
551,1297.5531673405462,14.462713186238943,673.537286813761
552,1300.0357757196145,11.471379503920502,673.5286204960795
553,1302.5174521419901,24.48014636877315,673.5198536312269
554,1304.9981970299477,17.48901415138141,673.5109858486186
555,1307.478010805559,39.49798322030438,673.5020167796956
556,1309.9568938906261,21.50705394202089,673.4929460579791
557,1312.434846706728,32.51622668087339,673.4837733191266
558,1314.9118696752053,30.525501799012773,673.4744982009872
559,1317.3879632171404,28.53487965634315,673.4651203436568
560,1319.8631277533987,18.544360610466242,673.4556393895338
561,1322.3373637046009,27.55394501662579,673.4460549833742
562,1324.8106714911205,37.5636332276523,673.4363667723477
563,1327.2830515331032,34.57342559390759,673.4265744060924
564,1329.7545042504473,18.58332246322948,673.4166775367705
565,1332.2250300628236,21.59332418087581,673.4066758191242
566,1334.6946293896515,12.603431089469609,673.3965689105304
567,1337.1633026501313,13.613643528943498,673.3863564710565
568,1339.631050263205,1.6239618364838861,673.3760381635161
569,1342.0978726475896,6.6343863464761625,673.3656136535238
570,1344.5637702217675,10.644917390448654,673.3550826095513
571,1347.0287434039697,17.655555297017372,673.3444447029826
572,1349.4927926122036,4.666300391830987,673.333699608169
573,1351.9559182642388,24.67715299751478,673.3228470024852
574,1354.4181207776032,19.688113433615285,673.3118865663847
575,1356.8794005695893,14.699182016545478,673.3008179834545
576,1359.3397580572548,22.7103590595284,673.2896409404716
577,1361.7991936574213,21.721644872542583,673.2783551274574
578,1364.2577077866715,11.733039762266003,673.266960237734
579,1366.7153008613632,13.744544032020826,673.2554559679792
580,1369.1719732976046,16.756157981718047,673.243842018282
581,1371.627725511278,10.76788190780212,673.2321180921979
582,1374.0825579180212,11.779716103195256,673.2202838968047
583,1376.5364709332441,6.791660857242164,673.2083391427578
584,1378.989464972131,11.803716455654353,673.1962835443456
585,1381.441540449608,13.81588318045533,673.1841168195447
586,1383.8926977803892,12.828161309924326,673.1718386900757
587,1386.3429373789393,10.840551118541498,673.1594488814585
588,1388.7922596594967,15.853052876932225,673.1469471230678
589,1391.2406650360624,8.865666851811397,673.1343331481886
590,1393.6881539224066,5.878393305928739,673.1216066940713
591,1396.1347267320637,8.891232498012641,673.1087675019874
592,1398.5803838783336,8.9041846827148,673.0958153172852
593,1401.0251257742866,11.917250110555415,673.0827498894446
594,1403.4689528327542,13.930429027866808,673.0695709721332
595,1405.9118654663384,3.943721676738619,673.0562783232614
596,1408.353864087409,3.9571282949624447,673.0428717050376
597,1410.7949491081101,4.970649115975789,673.0293508840242
598,1413.2351209403282,0.0,673.0157156311927
599,1415.6743799957496,21.99803427802067,673.0019657219793
600,1418.112726685808,4.0118990636598255,672.9881009363402
601,1420.550161421708,12.025878941193128,672.9741210588069
602,1422.9866846144278,7.039974121457931,672.9600258785421
603,1425.4222966747109,7.054184810605307,672.9458151893947
604,1427.8569980130683,12.068511210044448,672.9314887899556
605,1430.2907890397864,10.082953516387306,672.9170464836127
606,1432.723670164904,9.09751192139322,672.9024880786068
607,1435.155641798249,3.1121866119132164,672.8878133880868
608,1437.5867043494034,11.126977769834866,672.8730222301651
609,1440.0168582277286,8.141885572026695,672.8581144279733
610,1442.446103842351,0.0,672.8430898097173
611,1444.8744416021598,0.0,672.827948208733
612,1447.3018719158301,0.1873105364585399,672.8126894635415
613,1449.7283951917873,6.202686582095112,672.7973134179049
614,1452.1540118382507,13.218180079118724,672.7818199208813
615,1454.5787222631882,10.233791173119357,672.7662088268806
616,1457.002526874349,13.24952000427993,672.7504799957201
617,1459.425426079241,1.26536670732105,672.734633292679
618,1461.847420285167,0.0,672.718668588555
619,1464.2685098991835,2.2974142402808866,672.7025857597191
620,1466.688695328114,5.313615311828812,672.6863846881712
621,1469.10797697856,7.329934738404518,672.6700652615955
622,1471.5263552569002,0.0,672.6536273734158
623,1473.9438305692745,7.362929077148465,672.6370709228515
624,1476.3604033216038,3.3796041850279153,672.6203958149721
625,1478.776073919573,0.3963980392462645,672.6036019607537
626,1481.1908427686471,1.4133107228662993,672.5866892771337
627,1483.6047102740495,4.43034231293359,672.5696576870664
628,1486.0176768407944,0.0,672.5525071195786
629,1488.4297428736536,10.464762490175076,672.5352375098249
630,1490.8409087771795,6.482151200856606,672.5178487991434
631,1493.2511749556934,0.49965906488955625,672.5003409351104
632,1495.660541813294,5.5172861284029295,672.4827138715971
633,1498.0690097538518,1.5350324311762051,672.4649675688238
634,1500.476579181008,9.552898006584087,672.4471019934159
635,1502.8832504981774,5.570882881540456,672.4291171184595
636,1505.2890241085527,10.588987076443345,672.4110129235567
637,1507.6939004150975,0.0,672.3927893948804
638,1510.0978798205451,0.6255534747689353,672.3744465252311
639,1512.5009627274121,2.6440156859089257,672.3559843140911
640,1514.903149537983,1.6625972323195128,672.3374027676805
641,1517.3044406543274,4.681298100987533,672.3187018990125
642,1519.704836478266,0.700118272050986,672.299881727949
643,1522.104337411418,0.0,672.280942281256
644,1524.5029438551699,1.7381164073414084,672.2618835926586
645,1526.9006562106806,1.7572942971029306,672.2427057028971
646,1529.297474878882,0.0,672.2234086597823
647,1531.693400260493,4.796007481749712,672.2039925182503
648,1534.0884327559916,0.0,672.1844573404189
649,1536.48257276565,6.835196804357565,672.1648031956424
650,1538.8758206895002,23.85496983943267,672.1450301605673
651,1541.2681769273609,5.874861680812501,672.1251383191875
652,1543.6596418788172,2.8948722371001168,672.1051277628999
653,1546.0502159432392,9.915001409439924,672.0849985905601
654,1548.439899519778,10.935249091462765,672.0647509085372
655,1550.8286930073486,2.9556151692299863,672.04438483077
656,1553.2165968046404,10.976099521178071,672.0239004788219
657,1555.6036113101409,12.996702018063615,672.0032979819364
658,1557.9897369220994,8.017422522907168,671.9825774770928
659,1560.3749740385392,2.0382608909385453,671.9617391090615
660,1562.759323057276,1.059216969540671,671.9407830304593
661,1565.1427843758827,8.080290598194892,671.9197094018051
662,1567.5253583917297,7.101481608424933,671.8985183915751
663,1569.9070455019605,0.12278982374152747,671.8772101762585
664,1572.2878461034818,1.1442150595873954,671.8557849404126
665,1574.6677605930015,0.0,671.8342428767186
666,1577.0467893669856,2.1874158139631845,671.8125841860368
667,1579.4249328216933,2.2091909225376867,671.7908090774623
668,1581.8021913531554,8.231082231620007,671.76891776838
669,1584.1785653571853,0.2530895154797008,671.7469104845203
670,1586.5540552293724,4.275212539985205,671.7247874600148
671,1588.9286613650831,2.297451062548703,671.7025489374513
672,1591.3023841594731,4.319804832070417,671.6801951679296
673,1593.6752240074668,2.342273588883586,671.6577264111164
674,1596.0471813037705,0.3648570646985263,671.6351429353015
675,1598.4182564428795,14.387554982547385,671.6124450174526
676,1600.7884498190554,6.410367056728887,671.5896329432711
677,1603.1577618263473,4.433292992752399,671.5667070072476
678,1605.5261928585915,18.456332487283134,671.5436675127169
679,1607.893743309388,10.479485228086332,671.5205147719137
680,1610.260413572131,2.502750893971779,671.4972491060282
681,1612.626204039987,10.526129154738555,671.4738708452614
682,1614.991115105914,1.5496196711193306,671.4503803288807
683,1617.3551471626406,0.0,671.4267779052747
684,1619.7183006026803,2.596936067990441,671.4030639320096
685,1622.0805758183324,13.620761224116109,671.3792387758839
686,1624.4419732016725,6.644697187015822,671.3553028129842
687,1626.802493144557,0.6687435712594834,671.3312564287405
688,1629.1621360386239,0.6928999820181616,671.3071000179818
689,1631.520902275305,0.0,671.2828339849913
690,1633.8787922457993,5.74154125643804,671.258458743562
691,1636.2358063410948,0.0,671.2339747170521
692,1638.591944951957,2.790617661559395,671.2093823384406
693,1640.9472084689437,0.815317949617679,671.1846820503823
694,1643.3015972823873,0.0,671.159874305264
695,1645.6551117824056,0.865040434741104,671.1349595652589
696,1648.007752358899,9.890061697616943,671.1099383023831
697,1650.359519401554,0.0,671.0848109985503
698,1652.7104132998352,4.9404218543725165,671.0595781456275
699,1655.0604344429933,2.9657597545093495,671.0342402454907
700,1657.4095832200699,0.0,671.0087978100796
701,1659.7578600198751,2.016748638545778,670.9832513614542
702,1662.10526523102,0.0,670.9576014318488
703,1664.4517992418848,2.068151436271023,670.931848563729
704,1666.7974624406424,0.0,670.9059933098457
705,1669.1422552152505,0.0,670.8800362332914
706,1671.4861779534504,2.1460220924443547,670.8539779075556
707,1673.829231042764,0.0,670.82781891658
708,1676.1714148704984,9.198440145186282,670.8015598548137
709,1678.5127298237553,0.0,670.7752013272694
710,1680.8531762894083,0.0,670.7487439495783
711,1683.1927546541317,9.277811651954607,670.7221883480454
712,1685.5314653043697,0.0,670.6955351597053
713,1687.8693086263609,1.3312149676223726,670.6687850323776
714,1690.2062850061286,5.358061375277657,670.6419386247223
715,1692.5423948294756,2.3850033937050057,670.614996606295
716,1694.877638482009,0.0,670.5879596576027
717,1697.2120163491022,0.0,670.5608284701591
718,1699.5455288159158,6.466396253460061,670.5336037465399
719,1701.8781762674196,9.493713799561533,670.5062862004385
720,1704.209959088336,0.0,670.4788765567212
721,1706.540877663208,8.548624448517103,670.4513755514829
722,1708.870932376344,5.576216067897803,670.4237839321022
723,1711.2001236118508,8.603897542702839,670.3961024572972
724,1713.5284517536031,2.63166810281939,670.3683318971806
725,1715.855917185287,10.659526966684439,670.3404730333156
726,1718.182520290372,2.687473341229179,670.3125266587708
727,1720.5082614521039,3.7155064218239886,670.284493578176
728,1722.8331410535181,5.743625392222498,670.2563746077775
729,1725.1571594774514,1.7718294245063362,670.2281705754937
730,1727.4803171065137,10.800117679029768,670.1998823209702
731,1729.80261432311,16.828489304364325,670.1715106956357
732,1732.124051509439,7.856943437242876,670.1430565627571
733,1734.4446290474712,3.885479202505053,670.114520797495
734,1736.7643473189892,0.0,670.0859042869591
735,1739.083206705543,10.942792069735788,670.0572079302642
736,1741.4012075884839,0.0,670.0284326385847
737,1743.718350348954,4.000420664789317,669.9995793352107
738,1746.0346353678724,0.0,669.970648955603
739,1748.3500630259596,5.058357552550774,669.9416424474492
740,1750.66463370372,3.087439229281472,669.9125607707185
741,1752.9783477814574,4.116595102282417,669.8834048977176
742,1755.2912056392474,0.0,669.8541758131454
743,1757.6032076569707,8.175125485850572,669.8248745141494
744,1759.9143542142929,3.204497989619199,669.7955020103808
745,1762.224645690672,0.23394067595040724,669.7660593240496
746,1764.534082465349,6.263452510019874,669.7365474899801
747,1766.8426649173718,10.293032444332994,669.706967555667
748,1769.1503934255647,1.3226794186698498,669.6773205813302
749,1771.457268368549,5.352392360029967,669.64760763997
750,1773.7632901247323,3.3821701825766013,669.6178298174234
751,1776.0684590723235,3.4120117875806955,669.5879882124193
752,1778.3727755893083,3.441916063366989,669.558083936633
753,1780.6762400534747,0.0,669.528118114743
754,1782.9788528424,0.5019081155144249,669.4980918844856
755,1785.2806143334567,8.531993603289493,669.4680063967105
756,1787.5815249037992,5.562137184563767,669.4378628154362
757,1789.8815849303828,4.592337682093898,669.4076623179061
758,1792.1807947899617,5.622593905357348,669.3774060946427
759,1794.4791548590638,16.65290465049611,669.3470953495039
760,1796.7766655140201,2.683268700261351,669.3167312997386
761,1799.0733271309555,5.713684823958488,669.2863151760415
762,1801.3691400857847,7.744151777391153,669.2558482226088
763,1803.6641047542182,8.774668302805935,669.2253316971941
764,1805.9582215117612,7.805233128837244,669.1947668711628
765,1808.2514907337074,0.0,669.1641550295485
766,1810.5439127951392,0.0,669.1334974711083
767,1812.83548807095,2.8972044916221193,669.1027955083779
768,1815.1262169358095,5.927949532273146,669.0720504677269
769,1817.416099764188,0.0,669.041263689415
770,1819.7051369303542,0.0,669.0104365276468
771,1821.9933288083582,9.020429649372772,668.9795703506272
772,1824.280675772061,0.0,668.9486665406174
773,1826.567178195111,0.08227350601009675,668.9177264939899
774,1828.8528364509377,0.0,668.8867516212838
775,1831.137650912791,2.144256652739273,668.8557433472607
776,1833.421621953693,3.1752968890399416,668.8247031109601
777,1835.7047499464766,0.0,668.7936323657544
778,1837.9870352637668,3.2374674205955216,668.7625325794045
779,1840.2684782779636,0.2685947658843588,668.7314052341156
780,1842.549079361295,0.2997481734075791,668.7002518265924
781,1844.8288388857704,8.330926131905585,668.6690738680944
782,1847.1077572231802,4.362127115508542,668.6378728844915
783,1849.3858347451367,9.39334958368056,668.6066504163194
784,1851.6630718230267,0.0,668.5754080188352
785,1853.9394688280443,1.4558527379275574,668.5441472620724
786,1856.2150261311797,3.4871302691030905,668.5128697308969
787,1858.4897441032215,0.0,668.4815770250623
788,1860.763623114743,0.0,668.4502707592648
789,1863.0366635361233,7.581047436800873,668.4189525631991
790,1865.3088657375415,3.6123759183856237,668.3876240816144
791,1867.5802300889663,7.643713025631428,668.3562869743686
792,1869.850756960167,1.6750570835154122,668.3249429164846
793,1872.1204467207092,3.7064064017944247,668.2935935982056
794,1874.3892997399566,9.737759274949553,668.2622407250504
795,1876.6573163870758,5.769113982130989,668.230886017869
796,1878.9244970310142,13.800468787102204,668.1995312128978
797,1881.1908420405393,7.831821938184703,668.1681780618153
798,1883.4563517841998,0.0,668.1368283317972
799,1885.7210266303532,10.89451619442741,668.1054838055726
800,1887.9848669471448,1.9258537185216937,668.0741462814783
801,1890.247873102531,0.0,668.0428175735153
802,1892.5100454642538,0.0,668.0114995114036
803,1894.7713843998622,5.01980605936194,667.9801939406381
804,1897.031890276703,3.0510972774568472,667.9489027225432
805,1899.2915634619198,6.082372265670529,667.9176277343295
806,1901.5504043224503,0.0,667.8863708691481
807,1903.8084132250535,1.1448659638533627,667.8551340361466
808,1906.0655905362573,7.176080839475276,667.8239191605247
809,1908.3219366224025,6.2072718164108664,667.7927281835891
810,1910.577451849642,2.238436937190613,667.7615630628094
811,1912.8321365839088,6.269574228126771,667.7304257718732
812,1915.0859911909479,7.300681699258234,667.6993183007418
813,1917.3390160363,0.0,667.6682426557056
814,1919.5912114853024,5.362799140560355,667.6372008594396
815,1921.8425779031013,5.3938050489415446,667.6061949510585
816,1924.0931156546346,6.424773013827689,667.5752269861723
817,1926.3428251046523,0.0,667.5442990369422
818,1928.5917066176974,6.486586807864569,667.5134131921354
819,1930.8397605581097,2.517428442819096,667.4825715571809
820,1933.0869872900294,4.5482237457752035,667.4517762542248
821,1935.3333871774187,0.0,667.4210294221858
822,1937.5789605840143,6.609666783189482,667.3903332168105
823,1939.8237078733712,10.64031018927085,667.3596898107292
824,1942.067629408838,7.6708986064892315,667.3291013935108
825,1944.3107255535658,1.7014298282812206,667.2985701717188
826,1946.5529966705155,9.731901631033452,667.2680983689665
827,1948.7944431224391,3.7623117740274665,667.2376882259725
828,1951.0350652718962,12.792657999384232,667.2073420006158
829,1953.2748634812444,0.0,667.1770619679916
830,1955.5138381126574,3.8531495795333512,667.1468504204666
831,1957.751989528089,7.883290332265119,667.1167096677349
832,1959.9893180893184,4.91335796312751,667.0866420368725
833,1962.2258241579118,13.94335012760655,667.0566498723935
834,1964.4615080952424,7.973264463694363,667.0267355363056
835,1966.6963702624946,8.003098591835283,666.9969014081647
836,1968.930411020643,12.032850114868552,666.9671498851314
837,1971.1636307304711,3.062516617974211,666.9374833820258
838,1973.3960297525712,19.09209566861705,666.907904331383
839,1975.6276084473322,8.121584816491577,666.8784151835084
840,1977.85836717495,11.150981593465985,666.849018406534
841,1980.088306295423,7.180283513527456,666.8197164864725
842,1982.3174261685526,0.0,666.7905119272743
843,1984.545727153951,8.238592749118652,666.7614072508813
844,1986.7732096110228,2.267595002716689,666.7324049972833
845,1988.999873898988,2.296492275426317,666.7035077245737
846,1991.2257203768668,9.325281990996018,666.674718009004
847,1993.450749403485,7.3539615549599375,666.6460384450401
848,1995.6749613374682,0.38252835458274603,666.6174716454173
849,1997.8983565372582,6.4109797588043875,666.5890202411956
850,2000.1209353610905,14.439313118184145,666.5606868818159
851,2002.3426981670098,1.4675257648455045,666.5324742351545
852,2004.563645312872,7.495615012420899,666.5043849875791
853,2006.7837771563256,18.52357815599578,666.4764218440042
854,2009.0030940548338,0.5514124720536984,666.4485875279463
855,2011.2215963656697,3.5791152184204975,666.4208847815795
856,2013.4392844459062,16.606683634209162,666.3933163657908
857,2015.6561586524174,4.634114939763776,666.3658850602362
858,2017.8722193418928,7.661406336604841,666.3385936633952
859,2020.0874668708223,11.688555007373566,666.3114449926264
860,2022.3019015955072,7.715558115776048,666.284441884224
861,2024.5155238720517,1.7424128065284776,666.2575871934715
862,2026.7283340563647,11.769116205301202,666.2308837946988
863,2028.9403325041687,0.0,666.2043345813364
864,2031.151519570982,7.82205753402809,666.1779424659719
865,2033.3618956121431,0.0,666.1517103804044
866,2035.5714609827935,14.874358724299213,666.1256412757008
867,2037.7802160378772,4.900261877749358,666.0997381222506
868,2039.9881611321514,2.9259960901781596,666.0740039098218
869,2042.195296620172,0.0,666.0484416476163
870,2044.401622856315,1.976945635675179,666.0230543643248
871,2046.6071401947545,0.0,665.9978451081831
872,2048.8118489894846,12.027183052973328,665.9728169470267
873,2051.015749594289,9.052027031653097,665.9479729683469
874,2053.2188423627736,18.076683720654046,665.923316279346
875,2055.4211276483475,4.101149993007539,665.8988500069925
876,2057.6226058042353,31.12542270192307,665.8745772980769
877,2059.8232771834632,10.149498680733018,665.850501319267
878,2062.023142138864,0.0,665.8266252571633
879,2064.222201023087,3.1970476816455857,665.8029523183544
880,2066.420454188587,11.22051427052736,665.7794857294726
881,2068.6179019876276,1.2437712627506698,665.7562287372493
882,2070.8145447722823,4.266815391429304,665.7331846085707
883,2073.0103828944325,9.289643369467854,665.7103566305321
884,2075.2054167057718,11.312251889504978,665.687748110495
885,2077.3996465577993,5.334637623858384,665.6653623761416
886,2079.5930728018325,5.356797224470142,665.6432027755299
887,2081.7856957889862,12.378727322849954,665.62127267715
888,2083.9775158701977,13.400424530020814,665.5995754699792
889,2086.16853339621,4.4218854364627305,665.5781145635373
890,2088.3587487175737,11.443106612058159,665.5568933879418
891,2090.5481621846475,0.0,665.5359153939644
892,2092.736774147613,3.4848159469149778,665.515184053085
893,2094.9245849564504,0.0,665.4947028575483
894,2097.1115949609516,0.5255246795811672,665.4744753204188
895,2099.297804510731,6.545495024364186,665.4545049756358
896,2101.4832139551986,9.565204621930206,665.4347953780698
897,2103.6678236435932,4.584649896422775,665.4153501035772
898,2105.8516339249454,2.6038272509440503,665.396172749056
899,2108.034645148106,11.622733067499098,665.3772669325009
900,2110.2168576617437,8.64136370694007,665.3586362930599
901,2112.398271814334,0.6597155089121998,665.3402844910878
902,2114.578887954157,10.677784791796284,665.3222152082037
903,2116.7587064293202,3.6955678526552447,665.3044321473448
904,2118.9377275877287,8.713060967177285,665.2869390328227
905,2121.1159517771102,12.730260389621208,665.2697396103788
906,2123.2933793450006,6.747162352760483,665.2528376472395
907,2125.4700106387468,9.763763067828222,665.2362369321718
908,2127.645846005505,2.7800587244615826,665.2199412755384
909,2129.8208857922623,10.796045490646065,665.2039545093539
910,2131.995130345791,7.811719512660488,665.1882804873395
911,2134.1685800126934,0.0,665.1729230849786
912,2136.341235139394,14.842113800427569,665.1578861995724
913,2138.5130960721067,0.0,665.1431737502955
914,2140.6841631568786,1.8712103217491176,665.1287896782509
915,2142.854436739561,1.885262053474321,665.1147379465257
916,2145.0239171658222,4.898977459753382,665.1010225402466
917,2147.1926047811407,11.91235253336481,665.0876474666352
918,2149.3604999308063,6.925383244936597,665.0746167550634
919,2151.5276029599404,7.93806554289074,665.0619344571093
920,2153.6939142134606,13.950395353388444,665.0496046466116
921,2155.8594340361033,2.962368580273619,665.0376314197264
922,2158.024162772416,1.9739811050184244,665.0260188949816
923,2160.1881007667753,5.985228786667108,665.0147712133329
924,2162.3512483633544,13.996107461781321,665.0038925382187
925,2164.5136059061474,13.006612944383846,664.9933870556162
926,2166.6751737389745,0.0,664.9832589740963
927,2168.835952205458,8.026487475120234,664.9735125248798
928,2170.995941649038,0.0,664.9641519618915
929,2173.1551424129693,2.044818438182915,664.9551815618171
930,2175.313554840326,5.053394375842572,664.9466056241574
931,2177.4711792739995,2.061571528715035,664.938428471285
932,2179.6280160566826,0.0,664.9306544484986
933,2181.7840655309055,11.076712075921023,664.923287924079
934,2183.939328039,3.083666710655507,664.9163332893445
935,2186.0938039231123,0.09020504129364326,664.9097949587064
936,2188.247493525213,8.096322630275608,664.9036773697244
937,2190.4003971870857,4.1020150168386635,664.8979849831613
938,2192.5525152503346,9.107277716959857,664.8927222830401
939,2194.7038480563724,8.112106223302135,664.8878937766979
940,2196.854395946433,1.1164960051582966,664.8835039948417
941,2199.0041592615644,6.120442508395286,664.8795574916047
942,2201.1531383426404,0.0,664.8760588446005
943,2203.3013335303294,4.126987345020439,664.8730126549796
944,2205.4487451651567,3.1295764525161758,664.8704235474838
945,2207.595373587424,1.131703829497269,664.8682961705027
946,2209.7412191372746,6.133364803871359,664.8666351961286
947,2211.886282154653,1.1345546797882662,664.8654453202117
948,2214.030562979342,11.135268737584056,664.864731262416
949,2216.174061950931,1.1355022337254468,664.8644977662746
950,2218.316779408814,10.135250400755012,664.864749599245
951,2220.4587156922253,1.1345084472351346,664.8654915527649
952,2222.5998711402144,14.133271557692865,664.8667284423071
953,2224.740246091635,0.13153489256433204,664.8684651074357
954,2226.8798408851626,9.129293588139603,664.8707064118604
955,2229.0186558593123,4.126542756506751,664.8734572434932
956,2231.1566913523816,4.123277485497056,664.876722514503
957,2233.2939477025207,5.119492838628844,664.8805071613712
958,2235.430425247681,4.115183855052464,664.8848161449475
959,2237.566124325635,7.110345549494809,664.8896544505052
960,2239.7010452739755,14.104972912203948,664.895027087796
961,2241.8351884301173,7.099060908893307,664.9009390911067
962,2243.9685541312874,4.092604480686987,664.907395519313
963,2246.1011427145436,7.085598544063373,664.9144014559366
964,2248.232954516762,5.078037990800453,664.9219620091995
965,2250.3639898746205,10.069917687919656,664.9300823120803
966,2252.4942491246316,7.061232477631279,664.9387675223687
967,2254.6237326031355,4.051977177278445,664.9480228227216
968,2256.752440646277,5.042146579281848,664.9578534207182
969,2258.8803735900287,12.031735451084273,664.9682645489157
970,2261.0075317701785,2.02073853509512,664.9792614649049
971,2263.1339155223454,7.009150548634921,664.9908494513651
972,2265.259525181958,5.996966183880318,665.0030338161197
973,2267.384361084269,10.984180107807788,665.0158198921922
974,2269.5084235643553,1.9707869621391865,665.0292130378608
975,2271.6317129571075,5.956781363285472,665.0432186367145
976,2273.7542295972466,2.9421579022917967,665.0578420977082
977,2275.8759738193103,1.9269111447817977,665.0730888552182
978,2277.9969459576514,7.911035630902347,665.0889643690977
979,2280.1171463464593,5.894525875267732,665.1054741247323
980,2282.236575319725,2.8773763669049686,665.122623633095
981,2284.3552332112813,8.85958156919753,665.1404184308025
982,2286.473120354773,13.841135919830322,665.1588640801697
983,2288.590237083665,9.822033830733858,665.1779661692661
984,2290.7065837312452,9.802269688029696,665.1977303119703
985,2292.8221606306274,0.0,665.2181621480258
986,2294.9369681147473,4.760732656903201,665.2392673430968
987,2297.0510065163585,3.7389484111766933,665.2610515888233
988,2299.1642761680387,0.0,665.2835206028763
989,2301.276777402193,2.6933198709862154,665.3066801290138
990,2303.388510551041,0.0,665.3305359371359
991,2305.4994759466335,5.644906176659674,665.3550938233403
992,2307.609673920846,14.619640390022141,665.3803596099779
993,2309.719104805362,3.5936608542922386,665.4063391457078
994,2311.827768931706,2.5669616944468316,665.4330383055532
995,2313.9356666312083,0.0,665.4604629909567
996,2316.0427982350384,2.5113808701644302,665.4886191298356
997,2318.149164074188,11.482487323362648,665.5175126766374
998,2320.2547644794627,8.452850387604258,665.5471496123957
999,2322.359599781496,14.42246405521496,665.577535944785
1000,2324.4636703107444,12.391322291823712,665.6086777081763
1001,2326.566976397497,5.359419036307486,665.6405809636925
1002,2328.6695183718566,0.0,665.6732517992642
1003,2330.7712965637584,0.0,665.706696329685
1004,2332.872311302957,8.259079303333465,665.7409206966665
1005,2334.972562919029,0.0,665.7759310688945
1006,2337.072051741382,6.188266357916405,665.8117336420836
1007,2339.1707780992424,11.151665360966717,665.8483346390333
1008,2341.2687423216676,10.114259690316544,665.8857403096835
1009,2343.3659447375376,4.076043068831154,665.9239569311688
1010,2345.462385675559,0.0,665.962990807876
1011,2347.5580654642504,2.9971517285028995,666.0028482714971
1012,2349.652984431985,7.956464318913277,666.0435356810867
1013,2351.7471429069287,0.9149405768829411,666.0850594231171
1014,2353.8405412170923,5.8725740884679,666.1274259115321
1015,2355.933179690312,3.8293584121952335,666.1706415878048
1016,2358.0250586542443,2.7852870790085262,666.2147129209915
1017,2360.116178436369,0.0,666.2596464077878
1018,2362.2065393640014,11.6945514274164,666.3054485725836
1019,2364.2961417642655,4.647874032481241,666.3521259675188
1020,2366.384985964143,0.600314827461375,666.3996851725386
1021,2368.4730722904114,2.551867204550149,666.4481327954499
1022,2370.560401069688,0.0,666.4974754719744
1023,2372.6469726284126,4.452280134193302,666.5477198658067
