pixel_index,raman_shift_cm-1,corrected_intensity,background_intensity
0,-228.03615456840282,3766.3312877552307,-3069.3312877552307
1,-224.95924409098728,3711.847118947399,-3016.847118947399
2,-221.88355426971083,3673.501156791088,-2964.501156791088
3,-218.80908450551493,3613.2932578465416,-2912.2932578465416
4,-215.7358341996988,3555.2232777323234,-2860.2232777323234
5,-212.66380275396062,3509.291071128666,-2808.291071128666
6,-209.5929895703694,3463.496491780822,-2756.496491780822
7,-206.52339405133682,3407.8393925024143,-2704.8393925024143
8,-203.4550155997016,3350.319625178786,-2653.319625178786
9,-200.38785361863216,3305.9370407703495,-2601.9370407703495
10,-197.32190751168937,3268.6914893159405,-2550.6914893159405
11,-194.25717668281138,3210.5828199361654,-2499.5828199361654
12,-191.1936605362985,3147.6108808367508,-2448.6108808367508
13,-188.13135847683048,3090.7755193118974,-2397.7755193118974
14,-185.07026990944925,3047.076581747627,-2347.076581747627
15,-182.01039423958915,2994.5139136251346,-2296.5139136251346
16,-178.95173087303797,2940.0873595241374,-2246.0873595241374
17,-175.89427921595657,2889.796763126227,-2195.796763126227
18,-172.83803867489166,2854.641967218218,-2145.641967218218
19,-169.78300865674996,2801.6228136954987,-2095.6228136954987
20,-166.729188568796,2749.7391435653826,-2045.7391435653824
21,-163.67657781869758,2701.990796950457,-1995.990796950457
22,-160.62517581446517,2643.377613091934,-1946.3776130919343
23,-157.5749819644843,2600.899430353003,-1896.899430353003
24,-154.5259956775222,2546.5560862221764,-1847.5560862221762
25,-151.4782163626973,2494.347417316643,-1798.3474173166428
26,-148.43164342950985,2444.273259385619,-1749.2732593856192
27,-145.38627628781765,2395.3334473136965,-1700.3334473136968
28,-142.34211434787335,2354.5278151241955,-1651.5278151241953
29,-139.29915702025906,2301.8561959825106,-1602.8561959825106
30,-136.2574037159516,2251.3184221994666,-1554.3184221994666
31,-133.21685384629424,2203.9143252346653,-1505.9143252346653
32,-130.17750682297506,2154.6437356998367,-1457.6437356998367
33,-127.13936205807023,2108.5064833621886,-1409.5064833621886
34,-124.1024189640289,2055.5023971477594,-1361.5023971477594
35,-121.06667695364285,2011.6313051447646,-1313.6313051447646
36,-118.03213544008766,1967.893034606951,-1265.893034606951
37,-114.99879383689016,1930.2874119569433,-1218.2874119569433
38,-111.9666515579567,1865.814262789599,-1170.814262789599
39,-108.93570801755355,1824.473411875354,-1123.473411875354
40,-105.90596263031563,1772.2646831635755,-1076.2646831635755
41,-102.87741481123345,1729.1878997859121,-1029.1878997859121
42,-99.8500639756597,1685.242884059643,-982.2428840596431
43,-96.82390953933078,1638.4294574910318,-935.4294574910318
44,-93.79895091832583,1588.74744077867,-888.7474407786699
45,-90.77518752909899,1543.1966538168354,-842.1966538168354
46,-87.75261878846011,1524.7769156988365,-795.7769156988365
47,-84.7312441135898,1458.4880447203655,-749.4880447203655
48,-81.7110629220243,1407.3298583828482,-703.3298583828482
49,-78.6920746316728,1363.3021733967935,-657.3021733967935
50,-75.67427866078928,1303.4048056851448,-611.4048056851448
51,-72.6576744280007,1266.6375703866302,-565.6375703866302
52,-69.64226135229828,1224.0002818591124,-520.0002818591124
53,-66.62803885302019,1166.4927536829373,-474.4927536829373
54,-63.615006349890606,1131.11479866429,-429.11479866429
55,-60.603163262963264,1081.8662288385376,-383.8662288385376
56,-57.5925090126779,1032.7468554735856,-338.7468554735856
57,-54.58304301981468,988.7564890732247,-293.75648907322466
58,-51.574764705535415,950.8949393804824,-248.89493938048236
59,-48.567673491335846,909.1620153809727,-204.16201538097266
60,-45.561768799089016,855.5575253062489,-159.55752530624886
61,-42.55705005102141,817.0812766371505,-115.0812766371505
62,-39.553516669717325,774.7330761071539,-70.73307610715392
63,-36.55116807812098,737.5127297057261,-26.512729705726088
64,-33.550003699534415,685.4200426816715,17.579957318328525
65,-30.550022957619593,647.4548195464831,61.54518045351688
66,-27.551225276385445,604.616864077695,105.38313592230497
67,-24.55361008020735,555.9059793222277,149.09402067777228
68,-21.55717679382498,514.3219675997452,192.67803240025478
69,-18.561924842311946,466.8646305059997,236.13536949400032
70,-15.567853651123498,444.53376891618336,279.46623108381664
71,-12.574962646053153,384.3291829882819,322.6708170117181
72,-9.583251253254387,340.250672166419,365.749327833581
73,-6.592718899247132,290.29803518421295,408.70196481578705
74,-3.603365010891764,247.47107006812166,451.52892993187834
75,-0.6151890154064421,210.76957414079698,494.230425859203
76,2.371809659628549,164.19334402443155,536.8066559755684
77,5.357631586290316,115.7421756441131,579.2578243558869
78,8.34227733628734,89.41586423116996,621.58413576883
79,11.325747480978986,37.21420432652576,663.7857956734742
80,14.308042591384181,3.136989784047728,705.8630102159523
81,17.289163238153222,0.0,747.8159862261036
82,20.26910999158296,0.0,789.6449312141222
83,23.247883421629798,0.0,831.3500533672077
84,26.225484097888025,0.0,872.9315615462137
85,29.201912589600642,0.0,914.3896652823
86,32.17716946566371,0.0,955.7245747735797
87,35.151255294622004,0.0,996.9365008817695
88,38.124170644658186,0.0,1038.0256551288403
89,41.09591608362096,0.0,1078.9922496936651
90,44.066492178986095,0.0,1119.8364974086708
91,47.03589949790624,0.0,1160.5586117564872
92,50.00413860715243,0.0,1201.1588068665942
93,52.97121007317041,0.0,1241.6372975119766
94,55.937114462059014,0.0,1281.9942991057696
95,58.901852339537584,0.0,1322.2300276979076
96,61.86542427100888,119.65530002822015,1362.3446999717798
97,64.82783082150702,503.6614667591266,1402.3385332408734
98,67.78907255572787,990.7882545545735,1442.2117454454265
99,70.74915003800736,1494.0354448509243,1481.9645551490757
100,73.70806383234958,2081.4028184644894,1521.5971815355106
101,76.66581450239876,2628.8901555948823,1561.1098444051177
102,79.62240261146295,3078.4972358283676,1600.5027641716324
103,82.57782872247728,3289.2238381412108,1639.7761618587892
104,85.53209339806676,3403.069740903028,1678.930259096972
105,88.48519720047916,3433.034721880138,1717.965278119862
106,91.43714069163477,3476.1185582389135,1756.8814417610865
107,94.3879244330939,3527.321026549127,1795.678973450873
108,97.33754898608301,3376.641902787308,1834.358097212692
109,100.28601491147721,3386.0809623400837,1872.9190376599163
110,103.23332276980686,3423.63798000754,1911.3620199924599
111,106.17947312124669,3383.3127300065644,1949.6872699934356
112,109.12446652565268,3323.104985974197,1987.895014025803
113,112.0683035425122,3366.014520970987,2025.9854790290128
114,115.01098473097865,3332.041107484335,2063.958892515665
115,117.95251064985199,3264.184517431848,2101.815482568152
116,120.89288185760913,3232.4445221646884,2139.5554778353116
117,123.83209891236478,3255.8208924709243,2177.1791075290757
118,126.77016237188894,3245.313398578881,2214.686601421119
119,129.70707279362418,3164.9218101604883,2252.0781898395117
120,132.64283073466171,3155.645896334635,2289.354103665365
121,135.5774367517502,3112.4854256705166,2326.5145743294834
122,138.51089140128926,3087.440166190985,2363.559833809015
123,141.44319523935744,3027.5098853759027,2400.4901146240973
124,144.37434882166693,2983.694350165485,2437.305649834515
125,147.30435270360678,2997.993326963663,2474.006673036337
126,150.23320744021913,3005.4065816414204,2510.5934183585796
127,153.16091358619914,3018.9338795401527,2547.0661204598473
128,156.08747169591027,2892.5749854750156,2583.4250145249844
129,159.01288232336677,2962.3296637382728,2619.6703362617272
130,161.93714602225333,2877.1976781026488,2655.8023218973512
131,164.86026334590775,2792.17879182468,2691.82120817532
132,167.782234847336,2784.2727676480617,2727.7272323519383
133,170.703061079195,2848.479367807,2763.520632193
134,173.62274259380547,2785.7983540295645,2799.2016459704355
135,176.54127994315428,2702.229487541036,2834.770512458964
136,179.45867367888565,2792.772529067257,2870.227470932743
137,182.37492435230772,2804.4272388379786,2905.5727611620214
138,185.29003251439033,2728.193376590224,2940.806623409776
139,188.20399871576078,2698.07070157162,2975.92929842838
140,191.11682350671884,2732.0589725437603,3010.9410274562397
141,194.02850743721743,2631.157947785555,3045.842052214445
142,196.93905105687978,2648.367385096575,3080.632614903425
143,199.8484549149888,2650.6870418004055,3115.3129581995945
144,202.75671956049334,2571.1166747479983,3149.8833252520017
145,205.6638455420019,2558.656040321018,3184.343959678982
146,208.5698334077955,2590.3048944351967,3218.6951055648033
147,211.4746837058039,2637.0629925436833,3252.9370074563167
148,214.37839698364678,2686.9300896403884,3287.0699103596116
149,217.28097378858388,2511.90594026334,3321.09405973666
150,220.1824146675496,2588.990298498037,3355.009701501963
151,223.0827201671489,2499.182917980791,3388.817082019209
152,225.98189083364827,2440.48355190208,3422.51644809792
153,228.87992721298258,2399.8919530099047,3456.1080469900953
154,231.77682985073972,2498.4078736131305,3489.5921263868695
155,234.67259929219532,2350.0310655848407,3522.9689344151593
156,237.56723608227585,2404.7612803656875,3556.2387196343125
157,240.4607407655826,2284.598268967243,3589.401731032757
158,243.35311388638726,2433.5417819753484,3622.4582180246516
159,246.24435598861453,2331.591569553464,3655.408430446536
160,249.13446761587682,2325.74738144602,3688.25261855398
161,252.02344931143102,2270.0089669817653,3720.9910330182347
162,254.91130161822824,2277.3760750771244,3753.6239249228756
163,257.7980250788683,2307.8484542395363,3786.1515457604637
164,260.68362023562787,2281.4258525708156,3818.5741474291844
165,263.568087630452,2222.108017770497,3850.891982229503
166,266.45142780495814,2251.894697139188,3883.105302860812
167,269.3336413004256,2214.7856375819156,3915.2143624180844
168,272.2147286578062,2160.780585611483,3947.219414388517
169,275.0946904177352,2043.8792873518114,3979.1207126481886
170,277.97352712049866,2110.081488541303,4010.918511458697
171,280.85123930606403,2124.3869345361736,4042.6130654638264
172,283.7278275140626,2013.7953703138219,4074.204629686178
173,286.60329228380897,1927.3065404761646,4105.693459523835
174,289.4776341542732,2030.9201892529936,4137.079810747006
175,292.35085366411056,1976.6360605053305,4168.3639394946695
176,295.2229513516428,1935.4538977287657,4199.546102271234
177,298.0939277548705,1852.3734440568214,4230.626555943179
178,300.96378341144725,1936.394442264288,4261.605557735712
179,303.83251885871897,1904.516634770589,4292.483365229411
180,306.70013463369963,1831.7397636431197,4323.26023635688
181,309.5666312730736,1828.0635706006033,4353.936429399397
182,312.4320093132022,1883.4877970164425,4384.5122029835575
183,315.2962692901107,1834.0121839220656,4414.987816077934
184,318.15941173950984,1875.6364720102774,4445.363527989723
185,321.021437196783,1910.3604016386107,4475.639598361389
186,323.8823461969905,1788.1837128326815,4505.8162871673185
187,326.7421392748435,1794.1061452895283,4535.893854710472
188,329.60081696476254,1864.1274383809723,4565.872561619028
189,332.4583798008278,1604.247331156962,4595.752668843038
190,335.3148283167834,1757.465562348927,4625.534437651073
191,338.17016304607625,1702.7818703731273,4655.218129626873
192,341.02438452180206,1598.1959933340013,4684.804006665999
193,343.8774932767422,1622.7076690275208,4714.292330972479
194,346.7294898433634,1635.3166349445337,4743.683365055466
195,349.58037475380087,1675.0226282741287,4772.977371725871
196,352.4301485398687,1578.8253859069619,4802.174614093038
197,355.2788117330559,1563.7246444386365,4831.2753555613635
198,358.126364864526,1568.7201401730263,4860.279859826974
199,360.9728084651392,1586.8116091256452,4889.188390874355
200,363.8181430654043,1540.998787026987,4918.001212973013
201,366.6623691955285,1624.2814093258776,4946.718590674122
202,369.50548738539203,1550.6592111928285,4975.3407888071715
203,372.34749816455155,1489.1319275233836,5003.868072476616
204,375.1884020622518,1518.6992929414728,5032.300707058527
205,378.0281996073991,1492.3610418027602,5060.63895819724
206,380.8668913285983,1436.1169081979933,5088.883091802007
207,383.7044777541248,1481.9666259563564,5117.033374043644
208,386.54095941193737,1345.90992864882,5145.09007135118
209,389.37633682966083,1462.9465495914865,5173.0534504085135
210,392.2106105346229,1453.076221848949,5200.923778151051
211,395.0437810538196,1434.2986782376356,5228.701321762364
212,397.8758489139216,1446.6136513291603,5256.38634867084
213,400.7068146412961,1454.0208734536754,5283.979126546325
214,403.53667876198057,1405.520076703222,5311.479923296778
215,406.365441801696,1407.1109929350732,5338.889007064927
216,409.19310428584686,1370.7933537750978,5366.206646224902
217,412.01966673952734,1382.5668906210994,5393.433109378901
218,414.8451296874956,1396.4313346461713,5420.568665353829
219,417.66949365420203,1335.3864168020427,5447.613583197957
220,420.4927591637889,1293.4318678224372,5474.568132177563
221,423.3149267400733,1342.5674182264156,5501.432581773584
222,426.1359969065493,1333.7927983217269,5528.207201678273
223,428.95597018639864,1305.1077382081676,5554.892261791832
224,431.7748471025038,1227.5119677809162,5581.488032219084
225,434.5926281774048,1354.0052167338963,5607.994783266104
226,437.40931393334,1255.5872145631256,5634.412785436874
227,440.2249048922314,1260.257690570057,5660.742309429943
228,443.0394015756821,1213.0163738649426,5686.983626135057
229,445.8528045049853,1221.8629933701723,5713.137006629828
230,448.6651142011195,1223.797277823629,5739.202722176371
231,451.47633118473817,1218.8189557820424,5765.181044217958
232,454.28645597619334,1171.9277556243287,5791.072244375671
233,457.09548909551825,1237.1234055549558,5816.876594445044
234,459.90343106243165,1178.4056336072808,5842.594366392719
235,462.71028239634444,1143.7741676469032,5868.225832353097
236,465.516043616338,1095.2287353750235,5893.7712646249765
237,468.32071524120084,1017.7690643317819,5919.230935668218
238,471.1242977893963,1011.3948818996178,5944.605118100382
239,473.92679177907974,1063.1059153066108,5969.894084693389
240,476.72819772809436,1097.9018916298428,5995.098108370157
241,479.52851615395804,1053.7825377987392,6020.217462201261
242,482.3277475739067,1078.7475805984195,6045.2524194015805
243,485.125892504836,953.7967466730552,6070.203253326945
244,487.92295146334,1071.929762529211,6095.070237470789
245,490.7189249657071,1140.1463545392016,6119.853645460798
246,493.5138135279027,992.4462489444377,6144.553751055562
247,496.307617665595,910.8291718587789,6169.170828141221
248,499.1003378941399,963.294849271886,6193.705150728114
249,501.89197472856824,1027.8430070525628,6218.156992947437
250,504.68252868361793,1031.4733709521224,6242.526629047878
251,507.4720002737126,916.1856666077147,6266.814333392285
252,510.2603900129527,974.9796195456984,6291.020380454302
253,513.0476984151569,1006.8549551849774,6315.145044815023
254,515.8339259938075,992.8113988403638,6339.188601159636
255,518.6190732620987,863.8486757259107,6363.151324274089
256,521.403140732895,1006.9665109582802,6387.03348904172
257,524.1861289187791,1029.1646295600804,6410.83537043992
258,526.9680383319974,884.442756463226,6434.557243536774
259,529.7488694845165,877.8006165122806,6458.199383487719
260,532.5286228879652,953.2379344678102,6481.76206553219
261,535.3072990536964,1026.7544350097342,6505.245564990266
262,538.0848984927293,933.3498427406776,6528.650157259322
263,540.8614217157948,893.0238821893163,6551.976117810684
264,543.6368692333026,934.7762778137276,6575.223722186272
265,546.4112415553678,926.6067540047516,6598.393245995248
266,549.1845391917931,907.5150350893236,6621.484964910676
267,551.9567626520732,794.500845333836,6644.499154666164
268,554.7279124454144,811.5639089474917,6667.436091052508
269,557.4979890806808,906.703950085639,6690.296049914361
270,560.2669930664713,813.9206928531439,6713.079307146856
271,563.0349249110558,732.2138613077168,6735.786138692283
272,565.8017851224088,882.583179463285,6758.416820536715
273,568.5675742081952,701.0283712933233,6780.971628706677
274,571.332292675778,716.5491607342228,6803.450839265777
275,574.0959410322129,684.1452716886197,6825.85472831138
276,576.8585197842664,727.8164280287729,6848.183571971227
277,579.6200294383739,664.5623535998893,6870.437646400111
278,582.3804705006952,809.3827722234855,6892.6172277765145
279,585.1398434770626,661.2774077007361,6914.722592299264
280,587.898148873031,664.245983815832,6936.754016184168
281,590.6553871938341,617.2882243393105,6958.711775660689
282,593.4115589444067,669.4038530314338,6980.596146968566
283,596.1666646293776,572.5925936455078,7002.407406354492
284,598.9207047530938,708.8541699312646,7024.145830068735
285,601.6736798195618,693.1883056381848,7045.811694361815
286,604.425590332539,600.5947245188672,7067.405275481133
287,607.1764367954289,666.0731503323677,7088.926849667632
288,609.926219711373,533.6233068475576,7110.376693152442
289,612.6749395831853,564.2449178464667,7131.755082153533
290,615.4225969133932,613.9377071276394,7153.062292872361
291,618.1691922042213,569.7013985094782,7174.298601490522
292,620.9147259576029,528.5357158336046,7195.464284166395
293,623.6591986751483,556.4403829682033,7216.559617031797
294,626.4026108581863,517.4151238113664,7237.584876188634
295,629.1449630077442,555.4596622944537,7258.540337705546
296,631.8862556245454,506.5737223854412,7279.426277614559
297,634.6264892090098,576.7570280922664,7300.242971907734
298,637.3656642612714,494.00930346618225,7320.990696533818
299,640.1037812811581,530.3302726051061,7341.669727394894
300,642.8408407681947,388.719659656972,7362.280340343028
301,645.5768432216298,545.1771888230833,7382.822811176917
302,648.3117891403789,521.702584361452,7403.297415638548
303,651.0456790230837,477.29557059016406,7423.704429409836
304,653.778513368087,451.95587189071557,7444.044128109284
305,656.5102926734257,450.68321271137575,7464.316787288624
306,659.2410174368463,310.4773175705268,7484.522682429473
307,661.9706881557958,387.3379110600217,7504.662088939978
308,664.6993053274265,337.2647178485295,7524.7352821514705
309,667.4268694485913,482.2574626848891,7544.742537315111
310,670.1533810158484,369.3158704014586,7564.684129598541
311,672.8788405254674,287.43966591746357,7584.560334082536
312,675.6032484734014,342.62857424235153,7604.3714257576485
313,678.3266053553348,421.8823204791315,7624.1176795208685
314,681.0489116666329,332.20062982775016,7643.79937017225
315,683.7701679023922,381.58322758840404,7663.416772411596
316,686.49037455738,319.02983916492303,7682.970160835077
317,689.2095321260985,324.5401900681045,7702.4598099318955
318,691.9276411027466,446.11400591907113,7721.885994080929
319,694.6447019812174,327.75101245261067,7741.248987547389
320,697.3607152551352,441.4509355205355,7760.5490644794645
321,700.0756814178034,343.21350109503146,7779.7864989049685
322,702.789600962241,322.03843527201025,7798.96156472799
323,705.5024743811921,263.9254642744454,7818.074535725555
324,708.2143021670795,368.8743144557484,7837.125685544252
325,710.9250848120508,252.88471230309733,7856.115287696903
326,713.6348228079545,291.9563844407894,7875.043615559211
327,716.343516646348,224.08905763360417,7893.910942366396
328,719.0511668185031,254.28245879014685,7912.717541209853
329,721.757773815381,171.53631496618073,7931.463685033819
330,724.4633381276724,326.8503533680214,7950.149646631979
331,727.1678602457704,224.22430135584,7968.77569864416
332,729.8713406597669,212.65788644703753,7987.3421135529625
333,732.5737798594763,221.15083631959715,8005.849163680403
334,735.275178334405,220.70287881542026,8024.29712118458
335,737.975536573795,183.31374194369164,8042.686258056308
336,740.6748550665694,217.98315388422634,8061.016846115774
337,743.3731343013824,189.71084299080576,8079.289157009194
338,746.070374766589,289.49653779454457,8097.503462205455
339,748.7665769502494,170.3399670072431,8115.660032992757
340,751.4617413401418,205.24085952471978,8133.75914047528
341,754.1558684237646,113.1989444301762,8151.801055569824
342,756.848958688302,236.21395099753863,8169.786049002461
343,759.541012620667,182.285608694825,8187.714391305175
344,762.232030707482,260.4136471874699,8205.58635281253
345,764.9220134350854,178.59779634169718,8223.402203658303
346,767.6109612895143,237.83778622785394,8241.162213772146
347,770.2988747565215,375.1333471237722,8258.866652876228
348,772.9857543215847,236.48420951811386,8276.515790481886
349,775.6716004698756,212.89010411372692,8294.109895886273
350,778.3564136862949,223.35076183098136,8311.649238169019
351,781.0401944554376,266.8659138111416,8329.134086188858
352,783.7229432616322,218.43529141969157,8346.564708580308
353,786.404660588914,200.05862624970905,8363.941373750291
354,789.0853469210194,99.73565012520157,8381.264349874798
355,791.7650027414137,157.46609510445523,8398.533904895545
356,794.4436285332672,113.24969348339982,8415.7503065166
357,797.1212247794729,79.08617779893575,8432.913822201064
358,799.7977919626262,182.97528083230645,8450.024719167694
359,802.4733305650499,147.9167356124417,8467.083264387558
360,805.1478410687714,71.9102754193027,8484.089724580697
361,807.8213239555345,126.95563378723637,8501.044366212764
362,810.493779706805,177.05254450832763,8517.947455491672
363,813.1652088037583,75.20074163574282,8534.799258364257
364,815.835611727286,189.3999594870911,8551.600040512909
365,818.5049889580017,233.64993264776058,8568.35006735224
366,821.1733409762201,58.95039597428331,8585.049604025717
367,823.8406682619932,110.30108459767689,8601.698915402323
368,826.5069712950699,0.0,8618.298266073207
369,829.1722505549232,3.152079651674285,8634.847920348326
370,831.8365065207488,84.65185774690326,8651.348142253097
371,834.4997396714563,51.20080447494911,8667.79919552505
372,837.1619504856666,0.0,8684.20134361048
373,839.8231394417212,0.0,8700.554849661086
374,842.4833070176815,47.14002346936468,8716.859976530635
375,845.1424536913315,107.88301322840562,8733.116986771594
376,847.800579940152,10.673857368199606,8749.3261426318
377,850.4576862413803,3.5122939489083365,8765.487706051092
378,853.1137730719397,0.0,8781.601938657974
379,855.7688409084737,160.3308982337494,8797.66910176625
380,858.4228902273612,0.0,8813.689456371692
381,861.075921504697,0.0,8829.663263148677
382,863.7279352162875,46.409217553164126,8845.590782446836
383,866.3789318376619,71.52772571228888,8861.472274287711
384,869.0289118440668,57.6920016385975,8877.307998361402
385,871.6778757104785,0.0,8893.098214023212
386,874.3258239115801,16.15681970969672,8908.843180290303
387,876.9727569217794,87.4568441616575,8924.543155838342
388,879.6186752152197,82.80160100184366,8940.198398998156
389,882.2635792657408,18.19083224762835,8955.809167752372
390,884.9074695469199,30.624280267929862,8971.37571973207
391,887.5503465320526,132.10168778655498,8986.898312213445
392,890.1922106941568,26.62279788556407,9002.377202114436
393,892.8330625059617,46.18735400860896,9017.812645991391
394,895.4729024399284,35.79509996428351,9033.204900035716
395,898.1117309682461,60.44577992948871,9048.554220070511
396,900.749548562816,16.13913845276329,9063.860861547237
397,903.3863556952575,76.87492045764884,9079.125079542351
398,906.0221528369252,63.652871246027644,9094.347128753972
399,908.6569404588943,20.472736501489635,9109.52726349851
400,911.2907190319511,0.0,9124.665737707339
401,913.9234890266222,0.0,9139.762804923423
402,916.5552509131456,9.18128170201635,9154.818718297984
403,919.1860051614904,0.0,9169.833730587145
404,921.8157522413394,115.19190585142496,9184.808094148575
405,924.4444926221175,79.2579390618539,9199.742060938146
406,927.0722267729548,27.364117493416416,9214.635882506584
407,929.6989551627207,76.5101900038917,9229.489809996108
408,932.3246782599946,42.69590586290906,9244.304094137091
409,934.9493965330932,0.0,9259.078985244698
410,937.5731104500625,1.185266784446867,9273.814733215553
411,940.1958204786572,0.0,9288.51158752437
412,942.8175270863684,0.0,9303.169797220615
413,945.438230740411,0.0,9317.78961092515
414,948.0579319077293,0.0,9332.371276826883
415,950.6766310549879,26.084957320574176,9346.915042679426
416,953.2943286485779,49.5788442022731,9361.421155797727
417,955.9110251546217,0.0,9375.889863054741
418,958.5267210389707,0.0,9390.321410878058
419,961.1414167671941,148.28395475342586,9404.716045246574
420,963.7551128045948,0.0,9419.074011687124
421,966.3678096162001,12.604444728858653,9433.395555271141
422,968.9795076667727,79.31907938869881,9447.680920611301
423,971.5902074207959,0.0,9461.930351858175
424,974.1999093424683,0.0,9476.144092696879
425,976.8086138957485,0.0,9490.322386343722
426,979.4163215442998,59.5345244571472,9504.465475542853
427,982.0230327515144,0.0,9518.573602562921
428,984.6287479805312,5.352990806284652,9532.647009193715
429,987.2334676941916,0.0,9546.685936742813
430,989.8371923550923,0.0,9560.690626032241
431,992.4399224255391,0.0,9574.661317395108
432,995.0416583675843,36.401749327726066,9588.598250672274
433,997.6424006429941,0.0,9602.501665208987
434,1000.2421497132806,0.0,9616.371799851531
435,1002.84090603967,0.0,9630.208892943889
436,1005.4386700831392,0.0,9644.013182324376
437,1008.0354423043698,0.0,9657.7849053223
438,1010.6312231637966,0.0,9671.524298754612
439,1013.2260131215722,0.0,9685.231598922548
440,1015.8198126375916,0.0,9698.907041608283
441,1018.4126221714673,0.0,9712.550862071583
442,1021.0044421825564,0.0,9726.163295046448
443,1023.5952731299427,33.25542526222853,9739.744574737771
444,1026.1851154724386,0.0,9753.294934817979
445,1028.773969668597,96.18539157630948,9766.81460842369
446,1031.3618361766923,0.0,9780.30382815235
447,1033.948715454744,0.0,9793.762826058903
448,1036.534607960491,127.80816634757684,9807.191833652423
449,1039.119514151417,14.408918107228601,9820.591081892771
450,1041.7034344847323,47.039198812755785,9833.960801187244
451,1044.2863694173889,0.0,9847.30122138722
452,1046.8683194060527,62.38742821517735,9860.612571784823
453,1049.4492849071469,150.1049188904526,9873.895081109547
454,1052.0292663768173,26.851022475066202,9887.148977524934
455,1054.6082642709443,0.0,9900.374488625197
456,1057.1862790451405,0.0,9913.571841431894
457,1059.763311154762,45.25873760943796,9926.741262390562
458,1062.339361054892,43.11702263263396,9939.882977367366
459,1064.9144292003486,0.0,9952.997211645765
460,1067.4885160456881,0.0,9966.084189923136
461,1070.061622045202,0.0,9979.144136307454
462,1072.6337476529175,190.82272568609187,9992.177274313908
463,1075.2048933225924,1.8161731384134328,10005.183826861587
464,1077.7750595077312,21.83598372990673,10018.164016270093
465,1080.3442466615654,123.8819357437751,10031.118064256225
466,1082.912455237059,113.95380806940193,10044.046191930598
467,1085.4796856869277,93.05138020567938,10056.94861979432
468,1088.0459384636151,17.17443226438263,10069.825567735617
469,1090.6112140192988,123.32274497349499,10082.677255026505
470,1093.1755128058958,146.49609968057666,10095.503900319423
471,1095.7388352750634,96.6942783561135,10108.305721643886
472,1098.3011818782,120.91706359685668,10121.082936403143
473,1100.8625530664272,204.1642386291769,10133.835761370823
474,1103.4229492906168,0.0,10146.564412687574
475,1105.982371001381,0.0,10159.26910585773
476,1108.540818649047,57.049944254053116,10171.950055745947
477,1111.0982926837257,70.39252342614054,10184.60747657386
478,1113.6547935552142,146.75841808326913,10197.24158191673
479,1116.2103217130848,0.0,10209.852584700095
480,1118.76487760664,57.559302803585524,10222.440697196414
481,1121.318461684913,90.99386897826662,10235.006131021733
482,1123.8710743966897,93.45090286769118,10247.549097132309
483,1126.422716190474,176.93019417871983,10260.06980582128
484,1128.9733875145423,118.43153328468725,10272.568466715313
485,1131.5230888168785,167.9547112287546,10285.045288771245
486,1134.07182054523,290.4995197272656,10297.500480272734
487,1136.6195831470725,142.0657511730842,10309.934248826916
488,1139.1663770696205,142.65319863895274,10322.346801361047
489,1141.7122027598466,281.2616558808386,10334.738344119161
490,1144.2570606644383,271.89091734129033,10347.10908265871
491,1146.8009512298504,272.54077815278106,10359.459221847219
492,1149.3438749022537,246.21103414106437,10371.788965858936
493,1151.885832127587,194.90148182852136,10384.098518171479
494,1154.4268233515052,71.61191843751294,10396.388081562487
495,1156.9668490194244,196.34214189372506,10408.657858106275
496,1159.5059095764966,242.0919508295301,10420.90804917047
497,1162.0440054676044,64.86114458731936,10433.13885541268
498,1164.5811371373943,238.64952322287718,10445.350476777123
499,1167.1173050302464,211.4568875087116,10457.543112491288
500,1169.6525095902712,179.2830389374103,10469.71696106259
501,1172.1867512613455,118.12777972498952,10481.87222027501
502,1174.7200304870644,252.990912814259,10494.009087185741
503,1177.252347710797,150.87224187814172,10506.127758121858
504,1179.7837033756155,218.77157132306456,10518.228428676935
505,1182.3140979243728,312.6887062922615,10530.311293707739
506,1184.8435317996452,237.6234526691751,10542.376547330825
507,1187.3720054437629,345.57561708076173,10554.424382919238
508,1189.899519298801,379.54500690086934,10566.45499309913
509,1192.426073806567,243.53143025357713,10578.468569746423
510,1194.95166940862,423.5346960165498,10590.46530398345
511,1197.4763065462803,325.55461382438625,10602.445386175614
512,1199.9999856605816,358.59099407196663,10614.409005928033
513,1202.5227071923234,472.6436479178119,10626.356352082188
514,1205.044471582048,203.71238728742537,10638.287612712575
515,1207.5652792700514,488.79702487664326,10650.202975123357
516,1210.0851306963489,350.89737415498894,10662.102625845011
517,1212.6040263007358,492.0132493690271,10673.986750630973
518,1215.1219665227243,343.1444655457017,10685.855534454298
519,1217.638951801598,372.2908384957009,10697.7091615043
520,1220.1549825763595,488.4521848167915,10709.547815183209
521,1222.6700592857871,542.6283218971876,10721.371678102812
522,1225.1841823683844,529.819067918881,10733.180932081119
523,1227.6973522624187,529.0242418610087,10744.975758138991
524,1230.2095694058878,518.2436635031954,10756.756336496805
525,1232.7208342365493,561.4771534288993,10768.5228465711
526,1235.2311471919004,455.72453302877875,10780.275466971221
527,1237.7405087091956,524.9856245040155,10792.014375495984
528,1240.248919225429,597.2602508697037,10803.739749130296
529,1242.756379177352,679.5482359581529,10815.451764041847
530,1245.2628890014514,655.8494044222771,10827.150595577723
531,1247.7684491339733,730.1635817389288,10838.836418261071
532,1250.2730600109035,632.4905942122568,10850.509405787743
533,1252.776722067996,703.8302689770371,10862.169731022963
534,1255.279435740731,574.1824340020539,10873.817565997946
535,1257.7812014643425,609.5469180934215,10885.453081906579
536,1260.2820196738317,638.9235508979527,10897.076449102047
537,1262.781890803927,565.312162906499,10908.687837093501
538,1265.2808152891175,664.7125854573114,10920.287414542689
539,1267.7787935636486,678.1246507393789,10931.875349260621
540,1270.2758260615044,706.5481917957841,10943.451808204216
541,1272.7719132164177,703.9830425270538,10955.016957472946
542,1275.2670554618894,766.4290376945173,10966.570962305483
543,1277.7612532311541,898.8860129236346,10978.113987076365
544,1280.2545069572025,945.3538047073689,10989.646195292631
545,1282.746817072779,877.8322504095322,11001.167749590468
546,1285.2381840103722,973.3211882681226,11012.678811731877
547,1287.7286082022335,1039.820457398695,11024.179542601305
548,1290.218090080357,1266.3298977976883,11035.670102202312
549,1292.7066300765,1235.8493503457994,11047.1506496542
550,1295.194228622149,1148.3786568113192,11058.62134318868
551,1297.6808861485692,1247.9176598534814,11070.082340146519
552,1300.1666030867616,1375.4662030258205,11081.53379697418
553,1302.6513798674862,1404.0241307795186,11092.975869220481
554,1305.1352169212512,1732.591288466756,11104.408711533244
555,1307.6181146783244,1665.1675223440616,11115.832477655938
556,1310.1000735687182,1849.7526795756676,11127.247320424332
557,1312.58109402221,2048.346608236845,11138.653391763155
558,1315.0611764683192,1938.9491573172782,11150.050842682722
559,1317.5403213363254,1815.560176724386,11161.439823275614
560,1320.0185290552624,1786.1795172866987,11172.820482713301
561,1322.4958000539123,1625.8070307571943,11184.192969242806
562,1324.9721347608129,1608.4425698166524,11195.557430183348
563,1327.4475336042694,1483.0859880770058,11206.914011922994
564,1329.9219970123143,1439.7371400846787,11218.262859915321
565,1332.3955254127645,1456.395881323957,11229.604118676043
566,1334.8681192331715,1309.062068220328,11240.937931779672
567,1337.3397789008557,1187.735558143826,11252.264441856174
568,1339.8105048428822,1197.4162094123967,11263.583790587603
569,1342.2802974860736,1188.103881295232,11274.896118704768
570,1344.7491572570132,1248.7984340161274,11286.201565983873
571,1347.217084582033,1232.4997287568385,11297.500271243161
572,1349.6840798872295,1348.207627660413,11308.792372339587
573,1352.1501435984528,1358.9219938345705,11320.07800616543
574,1354.615276141296,1425.6426913550204,11331.35730864498
575,1357.0794779411349,1479.3695852688343,11342.630414731166
576,1359.5427494230762,1454.102541597782,11353.897458402218
577,1362.0050910120017,1508.841427341702,11365.158572658298
578,1364.4665031325346,1510.5861104818305,11376.41388951817
579,1366.9269862090732,1568.336459984157,11387.663540015843
580,1369.3865406657594,1398.0923458027864,11398.907654197214
581,1371.845166926492,1447.8536388832763,11410.146361116724
582,1374.3028654149455,1214.620211165986,11421.379788834014
583,1376.759636554526,1259.3919355894413,11432.608064410559
584,1379.2154807684155,1235.1686860936752,11443.831313906325
585,1381.6703984795568,1107.950337623577,11455.049662376423
586,1384.1243901106327,1207.7367661322405,11466.26323386776
587,1386.5774560841066,1058.5278485843246,11477.472151415675
588,1389.0295968221844,1104.3234629593971,11488.676537040603
589,1391.4808127468377,1090.1234882552835,11499.876511744716
590,1393.9311042797972,1033.927804491419,11511.072195508581
591,1396.3804718425529,1211.7362927121976,11522.263707287802
592,1398.82891585635,1200.5488349903299,11533.45116500967
593,1401.2764367422014,999.3653144301843,11544.634685569816
594,1403.7230349208708,965.1856151711345,11555.814384828866
595,1406.1687108128901,932.0096223909295,11566.99037760907
596,1408.61346483855,979.8372223090173,11578.162777690983
597,1411.0572974178945,954.6683021899134,11589.331697810087
598,1413.5002089707286,966.5027503465517,11600.497249653448
599,1415.942199916641,971.3404561436109,11611.659543856389
600,1418.38327067494,920.1813100009022,11622.818689999098
601,1420.8234216647286,857.0252033966972,11633.974796603303
602,1423.2626533048622,765.872028871072,11645.127971128928
603,1425.7009660139493,874.7216800292717,11656.278319970728
604,1428.13836021037,824.5740515450616,11667.425948454938
605,1430.5748363122602,884.4290391640661,11678.570960835934
606,1433.0103947375194,823.2865397071218,11689.713460292878
607,1435.4450359038142,903.1464510736369,11700.853548926363
608,1437.878760228563,942.008672244936,11711.991327755064
609,1440.3115681289532,875.873103287604,11723.126896712396
610,1442.7434600219392,906.739645356849,11734.260354643151
611,1445.174436324225,838.6082006998422,11745.391799300158
612,1447.604497452292,668.4786726590683,11756.521327340932
613,1450.0336438223803,656.3509656756851,11767.649034324315
614,1452.461875850481,683.2249852928726,11778.775014707127
615,1454.8891939523642,746.1006381591669,11789.899361840833
616,1457.3155985435608,601.9778320318328,11801.022167968167
617,1459.741090039364,734.8564757801978,11812.143524219802
618,1462.1656688548237,671.7364793890101,11823.26352061099
619,1464.5893354047596,615.6177539617893,11834.38224603821
620,1467.0120901037667,541.5002117241729,11845.499788275827
621,1469.4339333661835,633.3837660272711,11856.616233972729
622,1471.8548656061253,738.2683313510115,11867.731668648988
623,1474.2748872374734,633.1538233074934,11878.846176692507
624,1476.6939986738748,514.0401586443331,11889.959841355667
625,1479.1122003287248,584.9272552480306,11901.07274475197
626,1481.529492615213,503.81503214729673,11912.184967852703
627,1483.9458759462664,581.7034095164126,11923.296590483587
628,1486.3613507345974,578.5923086785933,11934.407691321407
629,1488.7759173926777,447.4816521093144,11945.518347890686
630,1491.189576332734,421.37136343968086,11956.62863656032
631,1493.6023279667784,449.261367459776,11967.738632540224
632,1496.014172706582,607.1515901219955,11978.848409878005
633,1498.4251109636734,504.04195854441423,11989.958041455586
634,1500.8351431493554,593.9324010141372,12001.067598985863
635,1503.2442696746991,481.8228469906244,12012.177153009376
636,1505.6524909505413,573.7132271090923,12023.286772890908
637,1508.0598073874885,562.6034731838045,12034.396526816196
638,1510.466219395905,604.4935182114641,12045.506481788536
639,1512.8717273859356,547.3832963745517,12056.616703625448
640,1515.2763317674783,746.2727430446648,12067.727256955335
641,1517.680032950212,714.1617947858831,12078.838205214117
642,1520.0828313435745,640.0503893581135,12089.949610641886
643,1522.484727356783,676.9384657204391,12101.06153427956
644,1524.885721398805,713.8259640344677,12112.174035965532
645,1527.2858138783934,600.712825667697,12123.287174332303
646,1529.6850052040645,637.5989931968343,12134.401006803166
647,1532.0832957840964,727.4844104111817,12145.515589588818
648,1534.4806860265462,585.3690223159592,12156.63097768404
649,1536.8771763392408,668.252775135672,12167.747224864328
650,1539.272767129762,715.1356163174605,12178.86438368254
651,1541.667458805477,781.0174945344297,12189.98250546557
652,1544.0612517735128,634.8983596890284,12201.101640310972
653,1546.454146440768,790.7781629163728,12212.221837083627
654,1548.8461432139225,876.6568565876296,12223.34314341237
655,1551.237242499409,840.5343943133321,12234.465605686668
656,1553.6274447034348,760.4107309467381,12245.589269053262
657,1556.01675023199,764.2858225872096,12256.71417741279
658,1558.4051594908203,943.1596265835196,12267.84037341648
659,1560.7926728854518,780.0321015372392,12278.96789846276
660,1563.1792908211744,784.9032073060553,12290.096792693945
661,1565.565013703059,792.7729050071612,12301.227094992839
662,1567.949841935934,855.6411570205673,12312.358842979433
663,1570.3337759244105,867.5079269924663,12323.492073007534
664,1572.7168160728672,781.3731798385888,12334.626820161411
665,1575.0989627854478,729.2368817475581,12345.763118252442
666,1577.4802164660907,864.0990001842183,12356.900999815782
667,1579.8605775184772,925.9595038930111,12368.040496106989
668,1582.2400463460824,888.8183629013056,12379.181637098694
669,1584.6186233521403,864.6755485227604,12390.32445147724
670,1586.9963089396663,784.5310333606685,12401.468966639331
671,1589.3731035114372,847.3847913113023,12412.615208688698
672,1591.7490074700236,858.2367975672914,12423.763202432709
673,1594.1240212177452,926.0870286209338,12434.912971379066
674,1596.4981451567105,837.9354622675637,12446.064537732436
675,1598.8713796887987,792.7820776089193,12457.21792239108
676,1601.2437252156544,921.6268550564673,12468.373144943533
677,1603.6151821387105,806.4697763347522,12479.530223665248
678,1605.9857508591604,779.3108244847772,12490.689175515223
679,1608.3554317779724,624.1499838673226,12501.850016132677
680,1610.7242252959027,621.9872401663142,12513.012759833686
681,1613.092131813466,792.8225803921559,12524.177419607844
682,1615.459151730963,737.6559928851038,12535.344007114896
683,1617.8252854484533,602.4874673186005,12546.5125326814
684,1620.190533365795,734.3169947026308,12557.68300529737
685,1622.5548958825973,581.1445673870658,12568.855432612934
686,1624.9183733982645,543.9701790650179,12580.029820934982
687,1627.280966311959,539.7938247761995,12591.2061752238
688,1629.6426750226278,612.6155009102567,12602.384499089743
689,1632.0034999290017,511.43520521013124,12613.564794789869
690,1634.3634414295664,544.252936775405,12624.747063224595
691,1636.722499922601,713.0686960656549,12635.931303934345
692,1639.080675806153,413.8824849037992,12647.1175150962
693,1641.437969478049,600.6943064794577,12658.305693520542
694,1643.794381335896,595.5041653522767,12669.495834647723
695,1646.1499117770652,352.3120674553211,12680.687932544679
696,1648.5045611987107,426.1180200983745,12691.881979901626
697,1650.8583299977715,461.92203197133495,12703.077968028665
698,1653.2112185709534,475.7241131475348,12714.275886852465
699,1655.5632273147464,433.52427508710934,12725.47572491289
700,1657.9143566254074,615.3225306403365,12736.677469359664
701,1660.2646068989866,456.1188940509837,12747.881105949016
702,1662.613978531298,480.91338095967694,12759.086619040323
703,1664.9624719179408,598.7060084072364,12770.293991592764
704,1667.310087454289,506.49679483801265,12781.503205161987
705,1669.656825535493,561.2857601032792,12792.71423989672
706,1672.002686556489,420.0729254645448,12803.927074535455
707,1674.3476709119846,427.85831359691474,12815.141686403085
708,1676.6917789964712,507.6419485924416,12826.358051407558
709,1679.0350112042127,534.4238559634869,12837.576144036513
710,1681.3773679292556,467.20406264604935,12848.79593735395
711,1683.7188495654234,478.98259700313974,12860.01740299686
712,1686.0594565063316,449.75948882810735,12871.240511171893
713,1688.3991891453566,475.53476934800165,12882.465230651998
714,1690.7380478756586,578.3084712269301,12893.69152877307
715,1693.0760330901846,595.0806285693961,12904.919371430604
716,1695.4131451816568,305.85127692365495,12916.148723076345
717,1697.7493845425868,532.6204532850679,12927.379546714932
718,1700.0847515652472,521.3881960994404,12938.61180390056
719,1702.4192466417032,527.1545452663813,12949.845454733619
720,1704.7528701638073,470.91954214265206,12961.080457857348
721,1707.0856225231728,483.6832295455315,12972.316770454468
722,1709.4175041112233,455.44565175612297,12983.554348243877
723,1711.7485153191276,465.2068545227521,12994.793145477248
724,1714.0786565378644,523.9668850643029,13006.033114935697
725,1716.4079281581737,584.7257920735537,13017.274207926446
726,1718.7363305705937,507.48362572052974,13028.51637427947
727,1721.0638641654373,584.2404376558752,13039.759562344125
728,1723.390529332796,587.9962810141897,13051.00371898581
729,1725.7163264625467,650.7512104173638,13062.248789582636
730,1728.0412559443453,602.5052819779576,13073.494718022042
731,1730.365318167637,416.25855330252307,13084.741446697477
732,1732.6885135216376,480.0110834949992,13095.988916505
733,1735.0108423953543,571.7629331599801,13107.23706684002
734,1737.3323051775778,580.5141644061696,13118.48583559383
735,1739.6529022568754,588.2648408496425,13129.735159150358
736,1741.9726340216018,533.0150276172553,13140.984972382745
737,1744.2915008599011,533.7647913499568,13152.235208650043
738,1746.6095031596751,405.51420020615296,13163.485799793847
739,1748.9266413086452,578.2633238650706,13174.73667613493
740,1751.2429156942878,559.0122335300857,13185.987766469914
741,1753.5583267038803,500.7610019320873,13197.238998067913
742,1755.8728747244716,490.5097033328275,13208.490296667173
743,1758.1865601429054,491.2584135282559,13219.741586471744
744,1760.499383345797,464.00720985189946,13230.9927901481
745,1762.8113447195606,591.7561711781855,13242.243828821815
746,1765.1224446503911,412.505377925796,13253.494622074204
747,1767.4326835242496,489.2549120610347,13264.745087938965
748,1769.7420617269122,623.0048571011685,13275.995142898832
749,1772.050579643917,477.7552981177705,13287.24470188223
750,1774.3582376606046,337.5063217400693,13298.49367825993
751,1776.665036162079,420.25801615831733,13309.741983841683
752,1778.9709755332435,531.0104711271342,13320.989528872866
753,1781.276056158792,395.76377796883025,13332.23622203117
754,1783.5802784232,260.5180295768041,13343.481970423196
755,1785.8836427107178,359.2733204188553,13354.726679581145
756,1788.186149405389,400.0297465405456,13365.970253459454
757,1790.4877988910578,220.787405568557,13377.212594431443
758,1792.7885915513284,361.5463967140349,13388.453603285965
759,1795.0885277696134,362.30682077594247,13399.693179224058
760,1797.387607929094,208.06878014440372,13410.931219855596
761,1799.6858324127556,276.8323788040543,13422.167621195946
762,1801.9832016033608,332.59772233741023,13433.40227766259
763,1804.279715883455,280.3649179281929,13444.635082071807
764,1806.5753756353781,250.1340743646906,13455.86592563531
765,1808.8701812412658,143.90530204310926,13467.09469795689
766,1811.1641330830212,253.67871297092643,13478.321287029074
767,1813.4572315423404,44.45442077023472,13489.545579229765
768,1815.7494770007304,151.23254068109236,13500.767459318908
769,1818.0408698394504,102.01318956488467,13511.986810435115
770,1820.3314104395783,135.79648590764918,13523.20351409235
771,1822.621099181953,0.0,13534.417450176541
772,1824.909936447225,0.0,13545.628496942249
773,1827.1979226158253,0.0,13556.836531009329
774,1829.4850580679688,0.0,13568.041427359534
775,1831.7713431836576,0.0,13579.243059333243
776,1834.0567783426982,0.0,13590.441298626021
777,1836.3413639246698,0.0,13601.636015285345
778,1838.6251003089526,0.0,13612.827077707192
779,1840.9079878747066,22.98564736725166,13624.014352632748
780,1843.1900270008848,0.0,13635.197705144998
781,1845.4712180662334,0.0,13646.376998665419
782,1847.7515614492845,0.0,13657.552094950614
783,1850.0310575283595,0.0,13668.722854088974
784,1852.309706681578,0.0,13679.88913449729
785,1854.5875092868393,0.0,13691.050792917456
786,1856.8644657218376,1.7923155869211769,13702.207684413079
787,1859.1405763640619,0.0,13713.35966236614
788,1861.4158415907823,0.0,13724.50657847365
789,1863.6902617790688,0.0,13735.648282744303
790,1865.9638373057771,186.2153765049079,13746.784623495092
791,1868.2365685475659,196.08455265197335,13757.915447348027
792,1870.5084558808546,0.0,13769.0405992267
793,1872.779499681894,144.8400776469971,13780.159922353003
794,1875.0497003267008,152.72674175627617,13791.273258243724
795,1877.3190581910874,243.61955329273042,13802.38044670727
796,1879.5875736506628,305.51867415977904,13813.481325840221
797,1881.8552470808277,238.42426797592998,13824.57573202407
798,1884.122078856772,254.3365000781996,13835.6634999218
799,1886.3880693534827,242.25553752541236,13846.744462474588
800,1888.653218945725,307.18154910158046,13857.81845089842
801,1890.9175280080797,363.1147053192326,13868.885294680767
802,1893.1809969149047,366.0551784228046,13879.944821577195
803,1895.4436260403495,237.00314239192448,13890.996857608076
804,1897.7054157583705,332.95877294483216,13902.041227055168
805,1899.9663664427028,308.92224754167546,13913.077752458325
806,1902.2264784668828,465.89374538789707,13924.106254612103
807,1904.4857522042334,390.8734474375524,13935.126552562448
808,1906.744188027883,281.86153639670374,13946.138463603296
809,1909.0017863107405,296.8581967267237,13957.141803273276
810,1911.2585474255159,336.8636146476747,13968.136385352325
811,1913.514471744719,385.8779781416488,13979.122021858351
812,1915.7695596406393,314.9014769561327,13990.098523043867
813,1918.0238114853723,420.934302607322,14001.065697392678
814,1920.2772276508042,393.97664838351557,14012.023351616484
815,1922.5298085086122,519.0287093484367,14022.971290651563
816,1924.7815544302787,414.0906823445912,14033.909317655409
817,1927.0324657870647,443.1627659966289,14044.837234003371
818,1929.2825429500474,329.2451607146613,14055.754839285339
819,1931.5317862900802,298.3380686976743,14066.661931302326
820,1933.7801961778257,369.4416939367911,14077.558306063209
821,1936.0277729837255,235.55624221870676,14088.443757781293
822,1938.2745170780327,246.6819211289876,14099.318078871012
823,1940.5204288307893,292.81894005543654,14110.181059944563
824,1942.7655086118452,200.9675101914363,14121.032489808564
825,1945.009756790818,332.1278445393218,14131.872155460678
826,1947.2531737371496,171.30015791369806,14142.699842086302
827,1949.495759820067,398.4846669448307,14153.51533305517
828,1951.7375154085958,316.68159008193834,14164.318409918062
829,1953.9784408715514,207.89114759661243,14175.108852403388
830,1956.2185365775601,221.1135615861058,14185.886438413894
831,1958.4578028950255,187.3490559767306,14196.65094402327
832,1960.6962401921726,416.5978565271653,14207.402143472835
833,1962.9338488369972,272.8601908318633,14218.139809168137
834,1965.1706291973148,261.1362883243128,14228.863711675687
835,1967.4065816407265,228.42638028050715,14239.573619719493
836,1969.6417065346336,232.73069982217567,14250.269300177824
837,1971.876004246238,161.04948192021766,14260.950518079782
838,1974.1094751425312,227.38296339800945,14271.61703660199
839,1976.342119590312,181.73138293477314,14282.268617065227
840,1978.5739379561749,245.09498106892715,14292.905018931073
841,1980.8049306065134,234.4740002014296,14303.52599979857
842,1983.0350979075122,23.868684599125118,14314.131315400875
843,1985.264440225159,389.2792803981065,14324.720719601894
844,1987.4929579252525,191.70603560705422,14335.293964392946
845,1989.720651373371,323.14920011059803,14345.850799889402
846,1991.9475209349011,288.60902567265293,14356.390974327347
847,1994.173566975024,207.08576593978432,14366.914234060216
848,1996.3987898587275,111.57967644455493,14377.420323555445
849,1998.623189950798,199.09101460886814,14387.908985391132
850,2000.8467676158134,219.62003974731124,14398.379960252689
851,2003.0695232181615,288.1670130705279,14408.832986929472
852,2005.2914571220215,237.73219768856507,14419.267802311435
853,2007.5125696913726,333.31585861419444,14429.684141385806
854,2009.7328612900083,231.91826276630673,14440.081737233693
855,2011.9523322815005,137.53967897321854,14450.460321026781
856,2014.170983029239,436.18037797605575,14460.819622023944
857,2016.388813896406,313.8406324320822,14471.159367567918
858,2018.6058252459832,318.52071691807214,14481.479283081928
859,2020.8220174407643,269.2209079336426,14491.779092066357
860,2023.0373908433282,106.9414839045894,14502.05851609541
861,2025.2519458160675,247.68272518629237,14512.317274813708
862,2027.4656827211682,125.44491406700035,14522.555085933
863,2029.678601920622,323.2283347712255,14532.771665228775
864,2031.890703776218,394.0332734630647,14542.966726536935
865,2034.1019886495553,277.8600182495902,14553.13998175041
866,2036.312456902018,248.70885918415297,14563.291140815847
867,2038.522108894817,259.5800882697622,14573.419911730238
868,2040.730944988952,371.47399946241785,14583.526000537582
869,2042.9389655452087,218.39088867449027,14593.60911132551
870,2045.1461709241996,161.33105377802713,14603.668946221973
871,2047.3525614863372,177.29479460815128,14613.705205391849
872,2049.5581375918237,425.282412966375,14623.717587033625
873,2051.762899600669,246.29421262395408,14633.705787376046
874,2053.9668478726967,229.33049932526774,14643.669500674732
875,2056.16998276751,325.39158079112894,14653.608419208871
876,2058.3723046445452,443.4777667221788,14663.522233277821
877,2060.5738138630118,432.5893688021715,14673.410631197828
878,2062.774510781947,328.7267007014125,14683.273299298588
879,2064.9743957601786,288.89007808002134,14693.109921919979
880,2067.173469156346,310.0798185913336,14702.920181408666
881,2069.3717313288817,400.29624188527305,14712.703758114727
882,2071.56918263603,246.53966961161495,14722.460330388385
883,2073.7658234358328,300.8104254234204,14732.18957457658
884,2075.961654086156,315.10883498035037,14741.89116501965
885,2078.1566749446365,322.4352259520274,14751.564774047973
886,2080.3508863687416,402.7899280213787,14761.210071978621
887,2082.5442887157405,305.1732728879797,14770.82672711202
888,2084.736882342695,240.58559427142245,14780.414405728578
889,2086.928667606486,277.0272279146484,14789.972772085352
890,2089.1196448637857,315.4985115873169,14799.501488412683
891,2091.309814471081,343.9997850891341,14809.000214910866
892,2093.4991767846595,252.5313902532289,14818.468609746771
893,2095.687732160626,284.0936709494672,14827.906329050533
894,2097.8754809548664,412.68697308783885,14837.313026912161
895,2100.0624235230966,338.3116446218155,14846.688355378184
896,2102.248560220828,365.9680355516248,14856.031964448375
897,2104.433891403376,202.65649792769182,14865.343502072308
898,2106.6184174258665,63.377385853938904,14874.622614146061
899,2108.8021386432306,335.13105549117245,14883.868944508828
900,2110.9850554102036,247.9178650603899,14893.08213493961
901,2113.1671680813306,161.73817484613392,14902.261825153866
902,2115.3484770109594,289.59234719987944,14911.40765280012
903,2117.5289825532445,145.48074654337688,14920.519253456623
904,2119.708685062161,244.40373937197,14929.59626062803
905,2121.887584891468,269.36169425795015,14938.63830574205
906,2124.065682394746,161.3549818539541,14947.645018146046
907,2126.242977925389,175.38397489626732,14956.616025103733
908,2128.4194718365775,243.44904820818556,14965.550951791814
909,2130.595164481319,282.5505787033726,14974.449421296627
910,2132.7700562124173,193.68894538919994,14983.3110546108
911,2134.94414738249,100.86452937013019,14992.13547062987
912,2137.117438343963,217.07771385100204,15000.922286148998
913,2139.2899294490635,85.32888414043555,15009.671115859564
914,2141.4616210498384,265.61842765418623,15018.381572345814
915,2143.6325134981334,103.94673391843389,15027.053266081566
916,2145.802607145602,39.31419457322045,15035.68580542678
917,2147.9719023437174,165.72120337572414,15044.278796624276
918,2150.1403994437433,138.16815620365014,15052.83184379635
919,2152.308098796775,74.65545105855927,15061.34454894144
920,2154.475000753697,229.18348806925133,15069.816511930749
921,2156.6411056652073,274.7526694950757,15078.247330504924
922,2158.8064138818268,106.36339972931455,15086.636600270685
923,2160.970925753872,88.01608530250451,15094.983914697495
924,2163.134641631468,147.71113488581614,15103.288865114184
925,2165.2975618645614,90.44895929436461,15111.551040705635
926,2167.4596868028957,133.2299714906112,15119.770028509389
927,2169.621016796031,0.0,15127.945413412323
928,2171.781552193336,42.92322185269586,15136.076778147304
929,2173.941293343996,147.83629671017843,15144.163703289822
930,2176.100240596991,115.79423274537476,15152.205767254625
931,2178.258394301129,0.0,15160.202546292436
932,2180.415754805018,161.84638551348326,15168.153614486517
933,2182.57232245708,63.94145625062083,15176.05854374938
934,2184.7280976055476,55.08309618059502,15183.916903819405
935,2186.8830805984617,110.2717377425106,15191.72826225749
936,2189.037271783682,65.50781555626963,15199.49218444373
937,2191.1906715088667,60.79176642595485,15207.208233574045
938,2193.3432801214963,107.12402934318743,15214.875970656813
939,2195.49509796886,26.505045490433986,15222.494954509566
940,2197.6461253980565,94.93525824442258,15230.064741755577
941,2199.7963627560007,175.41511317942422,15237.584886820576
942,2201.945810389413,0.0,15245.054941929353
943,2204.0944686448333,0.0,15252.474457102428
944,2206.2423378686008,0.0,15259.842980152698
945,2208.389418406882,81.83994331793656,15267.160056682063
946,2210.5357106056485,77.57476992185912,15274.42523007814
947,2212.681214810684,15.36195848917123,15281.638041510829
948,2214.8259313675894,127.20197007098977,15288.79802992901
949,2216.9698606217676,76.09526794279373,15295.904732057206
950,2219.1130029184474,4.04231760780749,15302.957682392193
951,2221.2553586026706,0.0,15309.956413199689
952,2223.396928019278,106.09954548902897,15316.900454510971
953,2225.537711512933,25.21066588047688,15323.789334119523
954,2227.6777094281133,12.377422422268864,15330.622577577731
955,2229.816922109109,28.600291806516907,15337.399708193483
956,2231.955349900024,27.879752973163704,15344.120247026836
957,2234.0929931447763,0.0,15350.783712886685
958,2236.2298521870925,163.61037767263042,15357.38962232737
959,2238.365927370522,106.06251035461901,15363.937489645381
960,2240.5012190384177,44.573173124059394,15370.42682687594
961,2242.635727533961,122.14285621026647,15376.857143789734
962,2244.7694532001406,119.77205211052933,15383.22794788947
963,2246.9023963797486,341.46125559339634,15389.538744406604
964,2249.034557415409,176.2109637020294,15395.78903629797
965,2251.165936649551,168.02167575762724,15401.978324242373
966,2253.2965344244276,0.0,15408.106106637337
967,2255.4263510820974,118.82812040431963,15414.17187959568
968,2257.5553869644336,44.82486305782368,15420.175136942176
969,2259.683642413131,96.88462978975804,15426.115370210242
970,2261.8111177697006,170.00793136146967,15431.99206863853
971,2263.9378133754594,210.19528083235127,15437.804719167649
972,2266.063729571557,55.44719356327187,15443.552806436728
973,2268.1888666989325,86.7641872198692,15449.23581278013
974,2270.313225098376,153.14678177588212,15454.853218224118
975,2272.4368051104575,256.595499516603,15460.404500483397
976,2274.5596070755832,38.11086504210107,15465.889134957899
977,2276.6816313339773,99.69340527066015,15471.30659472934
978,2278.802878225674,175.34364944208937,15476.65635055791
979,2280.9233480905273,266.0621291211064,15481.937870878894
980,2283.043041268202,74.84937820061532,15487.150621799385
981,2285.1619580981887,258.70593290517354,15492.294067094826
982,2287.280098919784,68.63233179421513,15497.367668205785
983,2289.3974640721103,80.62911576552142,15502.370884234479
984,2291.5140538941055,260.69682805845514,15507.303171941545
985,2293.6298687245235,269.8360142574129,15512.163985742587
986,2295.7449089019347,101.04722229509935,15516.9527777049
987,2297.8591747647274,228.3310024559214,15521.668997544079
988,2299.9726666511147,106.68790737933523,15526.312092620665
989,2302.085384899113,303.1184920631604,15530.88150793684
990,2304.1973298465705,102.62331386698861,15535.376686133011
991,2306.308501831146,84.20293251547628,15539.797067484524
992,2308.418901190315,336.8579101017349,15544.142089898265
993,2310.5285282613763,180.58881109067443,15548.411188909326
994,2312.6373833814473,197.3962023223139,15552.603797677686
995,2314.7454668874675,80.28065301520837,15556.719346984792
996,2316.8527791161723,131.24273476971211,15560.757265230288
997,2318.9593204041444,88.28302157141297,15564.716978428587
998,2321.0650910877807,221.40208979441013,15568.59791020559
999,2323.170091503275,219.60051820469744,15572.399481795303
1000,2325.2743219866657,20.878887963554007,15576.121112036446
1001,2327.377782873803,188.2377826307893,15579.76221736921
1002,2329.4804745003453,79.67778816820646,15583.322211831794
1003,2331.5823972017843,296.19949294288017,15586.80050705712
1004,2333.6835513134215,266.8034877305399,15590.19651226946
1005,2335.783937170385,469.4903657189061,15593.509634281094
1006,2337.8835551076295,450.2607225110405,15596.73927748896
1007,2339.982405459909,457.1151561287079,15599.884843871292
1008,2342.080488561813,461.0542670157083,15602.945732984292
1009,2344.1778047477487,252.07865804126413,15605.921341958736
1010,2346.2743543519423,269.18893450332325,15608.811065496677
1011,2348.3701377084417,275.38570413192065,15611.61429586808
1012,2350.465155151111,317.66957709255803,15614.330422907442
1013,2352.55940701364,274.04116598953624,15616.958834010464
1014,2354.6528936295417,400.50108586929855,15619.498914130701
1015,2356.745615332142,301.0499542237776,15621.950045776222
1016,2358.8375724545936,423.6883909937642,15624.311609006236
1017,2360.928765329873,493.4170185722651,15626.582981427735
1018,2363.0191942907645,462.2364618077918,15628.763538192208
1019,2365.108859669891,537.1473480078021,15630.852651992198
1020,2367.1977617996863,528.1503069419741,15632.849693058026
1021,2369.285901012406,490.2459708455972,15634.754029154403
1022,2371.3732776401416,566.4349744229148,15636.565025577085
1023,2373.4598920147823,462.7179548504646,15638.282045149535
