pixel_index,raman_shift_cm-1,corrected_intensity,background_intensity
0,-224.98707721426302,3.2365205320422774,657.7634794679577
1,-221.91911876570094,11.24360588423258,657.7563941157674
2,-218.85236724334496,16.25045133286733,657.7495486671327
3,-215.78682206129875,9.257058899542017,657.742941100458
4,-212.72248263402804,1.263430597373599,657.7365694026264
5,-209.65934837637164,1.269568431015955,657.730431568984
6,-206.59741870351954,2.275474396676259,657.7245256033237
7,-203.53669303101736,6.281150482130329,657.7188495178697
8,-200.47717077479894,11.286598666739337,657.7134013332607
9,-197.41885135113193,0.0,657.7081790785352
10,-194.3617341766614,15.296819208885267,657.7031807911147
11,-191.30581866839665,10.3015954832116,657.6984045167884
12,-188.25110424369393,9.306151690303523,657.6938483096965
13,-185.19759032028028,1.3104897676851124,657.6895102323149
14,-182.14527631623625,0.0,657.6853883554394
15,-179.09416165001747,3.3185192418308134,657.6814807581692
16,-176.04424574041997,5.322214472108499,657.6777855278915
17,-172.99552800660848,1.3256992397347176,657.6743007602653
18,-169.94800786810987,1.3289754407944656,657.6710245592055
19,-166.90168474480654,8.332044963132603,657.6679550368674
20,-163.8565580569366,4.334909686369883,657.6650903136301
21,-160.8126272251067,0.33757148191875785,657.6624285180812
22,-157.76989167027264,0.0,657.6599677870004
23,-154.72835081374592,3.342293734655982,657.657706265344
24,-151.6880040772022,4.344357893771189,657.6556421062288
25,-148.6488508826815,2.3462265290839923,657.653773470916
26,-145.61089065255996,0.0,657.6520985287958
27,-142.5741228095823,0.0,657.6506154573708
28,-139.5385467768619,6.350677557759127,657.6493224422409
29,-136.50416197784386,8.35178232291355,657.6482176770864
30,-133.4709678363485,7.352700636346867,657.6472993636531
31,-130.4389637765452,7.353434288264339,657.6465657117357
32,-127.40814922295243,0.3539850608378856,657.6460149391621
33,-124.3785236004595,0.0,657.6456452717775
34,-121.35008633428964,2.3545450565712827,657.6454549434287
35,-118.32283685004556,1.3545578040524333,657.6454421959476
36,-115.29677457365085,3.3543947208642066,657.6456052791358
37,-112.27189893141947,10.354057549251479,657.6459424507485
38,-109.24820934999713,6.353548023521057,657.6464519764789
39,-106.22570525639163,8.352867870058276,657.6471321299417
40,-103.2043860779556,1.352018807342347,657.6479811926577
41,-100.18425124239724,7.351002545962729,657.6489974540373
42,-97.16530017778473,4.349820788634474,657.6501792113655
43,-94.14753231253752,4.348475230214831,657.6515247697852
44,-91.13094707541335,0.0,657.6530324422814
45,-88.1155438955364,1.345299450334096,657.6547005496659
46,-85.10132220237998,7.343472579439663,657.6565274205603
47,-82.08828142575565,3.3414886086187607,657.6585113913812
48,-79.07642099585013,5.339349193676185,657.6606508063238
49,-76.06574034317971,2.337055982654533,657.6629440173455
50,-73.056238898612,0.0,657.665389384151
51,-70.04791609338751,2.3320147258244788,657.6679852741755
52,-67.04077135906557,10.329269937430581,657.6707300625694
53,-64.03480412757413,4.326377867817996,657.673622132182
54,-61.030013831185876,0.0,657.6766598735458
55,-58.02639990252481,0.0,657.6798416848603
56,-55.0239617745662,0.0,657.6831659719766
57,-52.02269888061493,0.0,657.6866311483808
58,-49.02261065434883,0.0,657.690235635179
59,-46.023696529784004,5.3060221389197295,657.6939778610803
60,-43.02595594127918,1.3021437376182803,657.6978562623817
61,-40.02938832354651,0.0,657.701869282952
62,-37.03399311164295,10.29398462578422,657.7060153742158
63,-34.03976974096805,8.289707004862635,657.7102929951374
64,-31.046717647283465,23.285299387794794,657.7147006122052
65,-28.054836266673977,22.280763300584226,657.7192366994158
66,-25.064125035599485,50.27610026174216,657.7238997382578
67,-22.07458339084081,8.27131178230377,657.7286882176962
68,-19.086210769527888,5.2663993658437676,657.7336006341562
69,-16.09900660913977,4.261364508492534,657.7386354915075
70,-13.112970347508961,8.25620869895181,657.7437913010482
71,-10.12810142279972,5.25093341851084,657.7490665814892
72,-7.144399273538438,11.245540141062065,657.7544598589379
73,-4.161863338565923,3.2400303331173745,657.7599696668826
74,-1.1804930570894454,0.0,657.7655945461764
75,1.7997121313367836,0.0,657.7713330450214
76,4.77875278683329,6.222816281047358,657.7771837189526
77,7.756629469158477,9.21685486917761,657.7831451308224
78,10.733342737747655,14.21078414921601,657.789215850784
79,13.708893151682684,7.204605543723801,657.7953944562762
80,16.683281269689807,18.198320467992858,657.8016795320071
81,19.656507650183016,10.191930330061496,657.8080696699385
82,22.62857285120767,9.18543653073084,657.8145634692692
83,25.599477430479546,4.178840463579945,657.82115953642
84,28.569221945384804,0.0,657.8278564850177
85,31.537806952938816,8.165347064121534,657.8346529358785
86,34.50523300984037,1.1584524830075225,657.8415475169925
87,37.47150067243913,0.0,657.848538863508
88,40.436610496757346,4.1443743822846955,657.8556256177153
89,43.400563038452965,0.0,657.862806429031
90,46.36335885285651,1.1299200460183556,657.8700799539816
91,49.324998494968895,0.0,657.8774448561885
92,52.28548251943761,6.115100193649141,657.8848998063509
93,55.24481148057835,6.107556517769126,657.8924434822309
94,58.20298593236638,7.099925431362863,657.9000745686371
95,61.16000642844089,3.0922082425911412,657.9077917574089
96,64.11587352209624,1.084406252599706,657.9155937474003
97,67.07058776629724,5.076520755535739,657.9234792444643
98,70.02414971366824,1.0685530385633228,657.9314469614367
99,72.97655991649314,5.060504381879582,657.9394956181204
100,75.92781892672411,9.05237605873026,657.9476239412697
101,78.87792729597285,1.044169335426318,657.9558306645737
102,81.82688557551495,5.035885471358938,657.9641145286411
103,84.77469431628559,15.027525719016467,657.9724742809835
104,87.72135406889467,14.019091323999191,657.9809086760008
105,90.66686538360732,0.010583525036281571,657.9894164749637
106,93.6112288103634,8.002003554001021,657.997996445999
107,96.55444489875151,0.0,658.0066473640729
108,99.49651419803715,0.0,658.0153680109757
109,102.43743725714535,2.975842824694496,658.0241571753055
110,105.37721462467591,8.966986347547504,658.0330136524525
111,108.31584684888604,9.958063755417356,658.0419362445826
112,111.2533344776968,1.9490762393776322,658.0509237606224
113,114.18967805869968,5.940024983757553,658.0599750162424
114,117.12487813915874,4.930911166158353,658.0690888338416
115,120.05893526600194,0.0,658.0782640425315
116,122.99184998580594,5.912500521880247,658.0874994781198
117,125.92362284484602,1.9032060169050737,658.0967939830949
118,128.8542543890418,0.0,658.1061464066104
119,131.7837451639877,5.884444395532,658.115555604468
120,134.71209571495066,7.874979560897373,658.1250204391026
121,137.63930658685936,6.865460220433988,658.134539779566
122,140.56537832431724,4.855887498488869,658.1441125015111
123,143.4903114715851,1.8462625128241825,658.1537374871758
124,146.41410657261366,0.0,658.1634136253673
125,149.3367641710046,4.826860188553837,658.1731398114462
126,152.25828481003205,0.0,658.1829149473101
127,155.17866903264718,0.8072620586214043,658.1927379413786
128,158.0979173814714,11.79739229142342,658.2026077085766
129,161.01603039878586,8.78747682968151,658.2125231703185
130,163.9330086265528,0.0,658.2224832544928
131,166.84885260639632,0.0,658.2324868954455
132,169.76356287962602,11.757466966035395,658.2425330339646
133,172.67713998721104,12.74737938273563,658.2526206172644
134,175.58958446978667,2.737251401031358,658.2627485989686
135,178.5008968676824,2.727084060904076,658.2729159390959
136,181.41107772088077,9.716878395957224,658.2831216040428
137,184.3201275690369,7.706635433432098,658.2933645665679
138,187.22804695149154,0.0,658.3036438057768
139,190.13483640725357,0.0,658.3139583071053
140,193.04049647499372,2.6756929376961125,658.3243070623039
141,195.94502769306388,5.665310930578357,658.3346890694216
142,198.8484305994972,10.654896667209414,658.3451033327906
143,201.75070573199508,11.64445113699037,658.3555488630096
144,204.65185362792934,0.0,658.3660246769283
145,207.55187482434863,11.623470202368367,658.3765297976316
146,210.45076985798298,0.0,658.3870632544234
147,213.34853926521964,10.602375917189079,658.3976240828109
148,216.2451835821446,12.591788675511452,658.4082113244885
149,219.14070334450335,4.581175972677784,658.4188240273222
150,222.03509908772043,3.5705387546667,658.4294612453333
151,224.92837134689302,1.5598779613173974,658.4401220386826
152,227.82052065680813,6.549194526345218,658.4508054736548
153,230.71154755191677,9.538489377358019,658.461510622642
154,233.60145256634675,5.527763435871407,658.4722365641286
155,236.49023623391156,5.517017617325564,658.4829823826744
156,239.37789908808853,3.5062528311004826,658.4937471688995
157,242.2644416620449,0.0,658.5045300194682
158,245.149864488614,9.484669962927342,658.5153300370727
159,248.03416810032994,5.4738536695825815,658.5261463304174
160,250.91735302937767,5.463021985796445,658.5369780142036
161,253.79941980762777,14.452175790887736,658.5478242091123
162,256.6803689666407,8.441315958210566,658.5586840417894
163,259.56020103764945,7.430443355170269,658.5695566448297
164,262.4389165515597,1.4195588432398836,658.5804411567601
165,265.31651603897353,0.0,658.5913367220248
166,268.19300003015024,10.397757509031521,658.6022424909685
167,271.0683690550458,4.386842380178905,658.6131576198211
168,273.94262364329074,16.37591872931864,658.6240812706814
169,276.81576432419695,9.364987388498776,658.6350126115012
170,279.68779162675526,0.0,658.6459508160701
171,282.5587060796358,6.343104936001623,658.6568950639984
172,285.4285082111961,5.332155459297951,658.667844540702
173,288.297198549471,7.3212015626136235,658.6787984373864
174,291.1647776221828,9.31024404896948,658.6897559510305
175,294.03124595671784,3.2992837156291444,658.7007162843709
176,296.89660408016744,8.288321354114032,658.711678645886
177,299.7608525192913,0.0,658.7226422497799
178,302.62399180053677,14.266393684033119,658.7336063159669
179,305.4860224500303,24.255429929944967,658.744570070055
180,308.346944993584,9.244467256669509,658.7555327433305
181,311.2067599566996,12.233506427258362,658.7664935727416
182,314.0654678645454,12.222548199116886,658.7774518008831
183,316.9230692419921,0.21159332401998654,658.78840667598
184,319.7795646135812,5.200642548128258,658.7993574518717
185,322.63495450355043,0.18969661200367227,658.8103033879963
186,325.4892394358123,0.0,658.8212437493742
187,328.34241993396273,8.167822193407233,658.8321778065928
188,331.19449652129407,21.156895164209914,658.8431048357901
189,334.0454697207734,8.145975881360869,658.8540241186391
190,336.8953400550534,0.0,658.8649349423318
191,339.7441080464766,9.124163400436942,658.8758365995631
192,342.5917742170821,6.113271611484947,658.886728388515
193,345.43833908857056,4.102390387158948,658.897609612841
194,348.28380318235224,3.091520418350342,658.9084795816497
195,351.12816701950544,7.0806623905110655,658.9193376094889
196,353.9714311208116,2.0698169836695115,658.9301830163305
197,356.813596006731,4.058984872446786,658.9410151275532
198,359.6546621974076,0.0,658.9518332739281
199,362.4946302126838,0.0,658.9626367916015
200,365.33350057208315,4.026574977920177,658.9734250220798
201,368.1712737948171,5.015802687786731,658.9841973122133
202,371.00795039977845,5.005046985819945,658.99495301418
203,373.84353090557556,3.994308514529507,659.0056914854705
204,376.6780158304681,0.0,659.0164120888713
205,379.51140569243574,7.972885807550824,659.0271141924492
206,382.3437010091243,3.962202830464662,659.0377971695353
207,385.17490229789337,0.9515396012907331,659.0484603987093
208,388.0050100757708,4.940896736216814,659.0591032637832
209,390.83402485948085,14.93027484621416,659.0697251537858
210,393.66194716544635,0.0,659.0803254629467
211,396.4887775097735,10.909096409320114,659.0909035906799
212,399.31451640824775,4.898541058431306,659.1014589415687
213,402.1391643763768,4.888009074650881,659.1119909253491
214,404.9627219293258,10.87750104310578,659.1224989568942
215,407.7851895819759,8.86701754380158,659.1329824561984
216,410.60656784888295,9.856559151638749,659.1434408483613
217,413.4268572443035,0.0,659.1538735635713
218,416.2460582821841,3.835719962908911,659.1642800370911
219,419.0641714761677,3.8253402907598684,659.1746597092401
220,421.8811973395872,9.814987974620294,659.1850120253797
221,424.69713638545886,0.0,659.1953364358969
222,427.5119891265105,0.0,659.2056323961883
223,430.32575607514264,0.0,659.2158993666445
224,433.13843774347384,5.773863187366146,659.2261368126339
225,435.95003464328875,2.7636557955130456,659.236344204487
226,438.76054728608347,0.7534789825197095,659.2465210174803
227,441.56997618305945,10.743333268179413,659.2566667318206
228,444.3783218450754,3.7332191673710895,659.2667808326289
229,447.1855847827254,1.7231371900752492,659.2768628099248
230,449.9917655062633,9.713087841390347,659.2869121586097
231,452.7968645256695,4.703071621547792,659.2969283784522
232,455.6008823505971,1.6930890259287708,659.3069109740712
233,458.40381949041523,1.6831405450793682,659.3168594549206
234,461.20567645416105,3.6732266647273946,659.3267733352726
235,464.00645375059213,0.0,659.3366521342028
236,466.8061518881494,0.0,659.3464953755733
237,469.60477137497884,4.64369741198243,659.3563025880176
238,472.4023127189252,6.633926695075729,659.3660733049243
239,475.19877642751214,0.0,659.375807064421
240,477.9941630079728,6.614496590641238,659.3855034093588
241,480.7884729672498,8.60483811270376,659.3951618872962
242,483.58170681195605,9.595217949516723,659.4047820504833
243,486.37386504843136,4.585636544154568,659.4143634558454
244,489.16494818268586,7.576094335032053,659.423905664968
245,491.95495672045865,8.566591755920285,659.4334082440797
246,494.743891167155,6.557129235962293,659.4428707640377
247,497.5317520279025,11.547707199689626,659.4522928003104
248,500.31853980752294,15.53832606703736,659.4616739329626
249,503.1042550105282,30.528986253360586,659.4710137466394
250,505.8888981411395,69.51968816945043,659.4803118305496
251,508.6724697032745,143.51043222154954,659.4895677784505
252,511.45497020055376,154.5012188113683,659.4987811886317
253,514.2364001362878,56.492048336100424,659.5079516638996
254,517.0167600134944,25.48292118843949,659.5170788115605
255,519.796050334905,11.47383775659398,659.526162243406
256,522.5742716029259,9.46479842430415,659.5352015756959
257,525.3514243196817,4.455803570857142,659.5441964291429
258,528.1275089869995,0.4468535711032473,659.5531464288968
259,530.9025261063987,4.4379487954718115,659.5620512045282
260,533.6764761790995,4.429089609987159,659.5709103900128
261,536.4493597060401,1.4202763762845052,659.5797236237155
262,539.221177187851,13.411509451625761,659.5884905483742
263,541.9919291248503,12.402789188915563,659.5972108110844
264,544.7616160170807,0.0,659.6058840632829
265,547.5302383642854,0.0,659.6145099607321
266,550.2977966658959,2.3769118364963333,659.6230881635037
267,553.064291421066,3.3683816640367468,659.6316183359633
268,555.8297231286367,2.3598998532459063,659.6401001467541
269,558.5940922871591,17.351466731218693,659.6485332687813
270,561.3573993948914,0.0,659.6569173791961
271,564.1196449497946,0.3347478406205937,659.6652521593794
272,566.8808294495348,4.326462705073482,659.6735372949265
273,569.6409533914723,11.318227524369263,659.6817724756307
274,572.4000172726835,0.0,659.6899573954678
275,575.1580215899609,0.0,659.6980917525797
276,577.9149668397689,0.0,659.7061752492588
277,580.6708535183126,0.0,659.7142075919322
278,583.4256821214798,0.0,659.7221884911455
279,586.1794531448767,0.2698823384529305,659.7301176615471
280,588.9321670838059,1.262005178127879,659.7379948218721
281,591.6838244332903,2.254180305073419,659.7458196949266
282,594.4344256880426,13.24640799242843,659.7535920075716
283,597.1839713424915,9.23868850929307,659.7613114907069
284,599.9324618907774,5.2310221207437735,659.7689778792562
285,602.6798978267458,1.2234090878504276,659.7765909121496
286,605.4262796439317,1.2158496676910318,659.784150332309
287,608.1716078356128,1.2083441133684119,659.7916558866316
288,610.9158828947387,5.200892674026022,659.799107325974
289,613.6591053139948,7.193495594863521,659.8065044051365
290,616.4012755857564,2.186153117153026,659.813846882847
291,619.1423942021146,0.0,659.8211345217453
292,621.8824616548765,5.171632911633083,659.8283670883669
293,624.6214784355413,7.164455646872739,659.8355443531273
294,627.3594450353394,0.0,659.8426660903059
295,630.0963619451888,9.150267921969657,659.8497320780303
296,632.8322296557257,6.1432579017396165,659.8567420982604
297,635.5670486573131,1.1363040632277261,659.8636959367723
298,638.3008194399907,0.12940661685775012,659.8705933831422
299,641.0335424935384,0.0,659.8774342307312
300,643.7652183074322,0.0,659.8842182766687
301,646.4958473708597,7.109054678163261,659.8909453218367
302,649.2254301727223,0.1023848291459899,659.897615170854
303,651.9539672016333,0.0,659.9042276320603
304,654.6814589459215,5.089217482500089,659.9107825174999
305,657.4079058936123,2.082720357093649,659.9172796429064
306,660.133308532458,9.076281172313884,659.9237188276861
307,662.857667349916,6.0699001050970764,659.9300998949029
308,665.5809828331593,6.063577328738347,659.9364226712617
309,668.3032554690772,3.057313012907457,659.9426869870925
310,671.0244857442552,5.051107323664837,659.9488926763352
311,673.7446741450124,0.0,659.9550395765227
312,676.4638211573704,7.038872471234072,659.9611275287659
313,679.1819272670626,0.03284362226281701,659.9671563777372
314,681.8989929595451,1.0268740283453326,659.9731259716547
315,684.6150187199764,4.020963837733689,659.9790361622663
316,687.3300050332359,0.01511319516578169,659.9848868048342
317,690.0439523839161,3.009322241881705,659.9906777581183
318,692.7568612563259,0.00359111563955139,659.9964088843604
319,695.4687321344857,0.9979199507307612,660.0020800492692
320,698.1795655021361,14.992308877997061,660.0076911220029
321,700.8893618427209,4.986758024845244,660.0132419751548
322,703.5981216394144,5.981267515264221,660.0187324847358
323,706.305845375088,0.0,660.0241625301602
324,709.0125335323569,0.0,660.0295319942285
325,711.7181865935241,4.965159236888212,660.0348407631118
326,714.4228050406238,3.9599112736636926,660.0400887263363
327,717.1263893553993,2.9547242232329154,660.0452757767671
328,719.8289400193146,9.949598189407993,660.050401810592
329,722.5304575135603,6.944533272693889,660.0554667273061
330,725.230942319017,2.939529570304444,660.0604704296956
331,727.9303949163157,1.9345871761782973,660.0654128238217
332,730.6288157857754,5.929706180994572,660.0702938190054
333,733.326205407457,0.0,660.0751133278109
334,736.0225642611198,2.9201287339703867,660.0798712660296
335,738.7178928262524,0.0,660.084567552665
336,741.4121915820656,0.0,660.089202109916
337,744.1054610074689,4.906225136838884,660.0937748631611
338,746.797701581107,3.9017142590569165,660.0982857409431
339,749.4889137813497,15.89726532504767,660.1027346749523
340,752.1790980862712,0.0,660.1071216000114
341,754.8682549736625,2.8885535459412495,660.1114464540588
342,757.556384921056,4.884290821866557,660.1157091781334
343,760.2434884056738,3.8800902836414934,660.1199097163585
344,762.9295659044893,0.0,660.1240480159253
345,765.6146178941741,2.871875972922112,660.1281240270779
346,768.2986448511223,0.0,660.1321377030968
347,770.9816472514613,3.8639109997170635,660.1360890002829
348,773.6636255710276,7.860022122057558,660.1399778779424
349,776.3445802853788,3.856195701630213,660.1438042983698
350,779.0245118698027,4.8524317731674955,660.1475682268325
351,781.7034207992994,0.8487303684447625,660.1512696315552
352,784.3813075485975,9.845091516296407,660.1549084837036
353,787.0581725921375,10.841515242631772,660.1584847573682
354,789.7340164040971,2.8380015704508423,660.1619984295492
355,792.4088394583619,1.8345505198601586,660.1654494801398
356,795.082642228548,0.8311621080891882,660.1688378919108
357,797.7554251879988,0.0,660.1721636504946
358,800.4271888097624,0.8245732556310941,660.1754267443689
359,803.0979335666268,0.0,660.1786271648413
360,805.7676599310961,5.818235093967019,660.181764906033
361,808.4363683753988,0.0,660.1848399648633
362,811.1040593714926,6.812147658966865,660.1878523410331
363,813.7707333910486,0.0,660.1908020370097
364,816.4363909054692,6.80631094198975,660.1936890580102
365,819.1010323858883,6.803486588013698,660.1965134119863
366,821.7646583031442,3.800724890392644,660.1992751096074
367,824.4272691278177,0.0,660.2019741642457
368,827.0888653302073,6.795389408040023,660.20461059196
369,829.7494473803366,0.7928155885209662,660.207184411479
370,832.4090157479512,1.7903043558131913,660.2096956441868
371,835.0675709025368,8.787855685894215,660.2121443141058
372,837.725113313286,6.785469552118798,660.2145304478812
373,840.3816434491337,0.0,660.2168540747654
374,843.0371617787263,8.780884773398839,660.2191152266012
375,845.6916687704479,3.7786860621928327,660.2213139378072
376,848.3451648924026,6.7765497546394045,660.2234502453606
377,850.9976506124194,3.774475811217826,660.2255241887822
378,853.6491263980671,6.772464189880111,660.2275358101199
379,856.2995927166259,13.770514846066817,660.2294851539332
380,858.9490500351158,7.7686277327230755,660.2313722672769
381,861.5974988202728,1.7668028003143945,660.2331971996856
382,864.2449395385729,0.0,660.2349600031574
383,866.8913726562034,1.763339267861511,660.2366607321385
384,869.5367986391003,3.7617005564935653,660.2382994435064
385,872.1812179529176,0.0,660.2398761965552
386,874.8246310630336,4.758608947021571,660.2413910529784
387,877.4670384345604,0.0,660.2428440768541
388,880.1084405323434,8.755764665371544,660.2442353346285
389,882.7488378209412,0.7544351049002671,660.2455648950997
390,885.3882307646634,0.753167170597294,660.2468328294027
391,888.026619827538,2.751960789007171,660.2480392109928
392,890.6640054733213,12.75081588437024,660.2491841156298
393,893.3003881655033,5.749732378637987,660.250267621362
394,895.9357683672921,9.748710191489181,660.2512898085108
395,898.5701465416486,3.7477492403460246,660.252250759654
396,901.2035231512516,6.746849440389383,660.2531505596106
397,903.835898658507,2.7460107045754967,660.2539892954245
398,906.4672735255579,9.745232943651445,660.2547670563486
399,909.0976482142768,1.7445160661709451,660.255483933829
400,911.7270231862669,11.743859978510727,660.2561400214893
401,914.3553989028586,0.0,660.2567354151139
402,916.9827758251283,7.742729787366898,660.2572702126331
403,919.6091544138685,9.742255485893452,660.2577445141065
404,922.2345351296112,2.741841578292565,660.2581584217074
405,924.8589184326266,4.7414879602931705,660.2585120397068
406,927.482304782898,3.7411945255428236,660.2588054744572
407,930.1046946401641,2.740961165622707,660.2590388343773
408,932.7260884638838,9.740787770064344,660.2592122299357
409,935.3464867132514,6.7406742263654,660.2593257736346
410,937.9658898471922,7.74062042000503,660.259379579995
411,940.5842983243716,0.0,660.2593737655396
412,943.2017126031881,4.740691551222312,660.2593084487777
413,945.8181331417647,8.740816249811246,660.2591837501888
414,948.4335603979644,11.74100020779315,660.2589997922069
415,951.0479948293943,4.7412433007955315,660.2587566992045
416,953.6614368933749,2.7415454025231156,660.2584545974769
417,956.2738870469802,0.0,660.2580936152261
418,958.8853457470126,6.742326117455264,660.2576738825447
419,961.4958134500037,10.742804468599388,660.2571955314006
420,964.1052906122246,11.743341304379669,660.2566586956203
421,966.7137776896932,3.7439364891263267,660.2560635108737
422,969.3212751381405,6.744589885342521,660.2554101146575
423,971.9277834130532,10.745301353720151,660.2546986462798
424,974.5333029696508,4.74607075315555,660.2539292468445
425,977.1378342628709,3.746897940765848,660.2531020592342
426,979.7413777474172,7.747782771904667,660.2522172280953
427,982.3439338776984,2.7487251001779214,660.2512748998221
428,984.9455031078909,8.749724777459846,660.2502752225402
429,987.5460858918854,6.750781653908916,660.2492183460911
430,990.1456826833139,5.751895577983873,660.2481044220161
431,992.7442939355576,2.753066396459303,660.2469336035407
432,995.3419201017239,0.0,660.245706045558
433,997.9385616346623,1.7555780953862268,660.2444219046138
434,1000.5342189869579,5.75691866111049,660.2430813388895
435,1003.1288926109333,13.75831549181271,660.2416845081873
436,1005.7225829586577,3.7597684260865663,660.2402315739134
437,1008.3152904819264,1.761277300937195,660.2387226990628
438,1010.9070156322838,1.7628419517972134,660.2371580482028
439,1013.4977588610052,0.0,660.2355377874575
440,1016.08752061911,0.0,660.2338620844916
441,1018.6763013573662,2.7678688915051453,660.2321311084949
442,1021.2641015262489,6.769654969834278,660.2303450301657
443,1023.8509215760228,0.0,660.2285040216956
444,1026.436761956645,8.773391743246748,660.2266082567533
445,1029.0216231178358,0.0,660.2246579104683
446,1031.6055055090578,12.7773468405843,660.2226531594157
447,1034.1884095795072,2.779405818399937,660.2205941816001
448,1036.7703357781234,0.0,660.2184811564389
449,1039.35128455358,5.78368573525222,660.2163142647478
450,1041.9312563542983,0.0,660.2140936887233
451,1044.5102516284467,3.7881803880716234,660.2118196119284
452,1047.0882708239217,2.7905077807248517,660.2094922192751
453,1049.6653143883711,0.0,660.20711169701
454,1052.2413827691803,0.0,660.204678232697
455,1054.816476413478,0.7978079847974868,660.2021920152025
456,1057.3905957681427,2.8003467653211374,660.1996532346789
457,1059.9637412797676,5.802937917451345,660.1970620825487
458,1062.5359133947256,6.80558124851143,660.1944187514886
459,1065.1071125591113,11.808276564585867,660.1917234354141
460,1067.677339218762,7.811023670537111,660.1889763294629
461,1070.2465938192606,2.8138223700207163,660.1861776299793
462,1072.8148768059457,7.816672465501824,660.1833275344982
463,1075.3821886238711,8.819573758270622,660.1804262417294
464,1077.9485297178699,17.822526048458826,660.1774739515412
465,1080.5139005324909,2.8255291350548077,660.1744708649452
466,1083.078301512034,3.8285828159201856,660.1714171840798
467,1085.6417331005555,4.831686887805631,660.1683131121944
468,1088.2041957418369,9.834841146366216,660.1651588536338
469,1090.765689879421,15.838045386178237,660.1619546138218
470,1093.3262159565859,6.841299400754224,660.1587005992458
471,1095.885774416354,13.844602982559536,660.1553970174405
472,1098.444365701507,2.847955923027939,660.1520440769721
473,1101.001990254549,0.8513580125776343,660.1486419874224
474,1103.5586485177496,1.8548090406270603,660.1451909593729
475,1106.1143409331146,10.858308795610924,660.1416912043891
476,1108.6690679423957,0.0,660.1381429350041
477,1111.2228299870928,0.0,660.1345463647029
478,1113.7756275084546,2.869098292093213,660.1309017079068
479,1116.3274609474693,0.0,660.1272091799572
480,1118.8783307448762,0.0,660.1234689970995
481,1121.4282373411647,0.8803186235325029,660.1196813764675
482,1123.977181176569,0.0,660.1158465360675
483,1126.5251626910645,10.88803530523785,660.1119646947622
484,1129.0721823243775,2.8919639277451097,660.1080360722549
485,1131.6182405159873,0.8959391109266335,660.1040608890734
486,1134.1633377051153,0.0,660.1000393665544
487,1136.7074743307264,5.904028273172571,660.0959717268274
488,1139.2506508315541,5.908141807201105,660.0918581927989
489,1141.7928676460517,0.0,660.0876989881361
490,1144.3341252124387,2.9165056627483636,660.0834943372516
491,1146.874423968683,6.920755534712839,660.0792444652872
492,1149.4137643524941,5.925050401902581,660.0749495980974
493,1151.952146801335,3.9293900377650743,660.0706099622349
494,1154.4895717524096,5.933774215066819,660.0662257849332
495,1157.0260396426952,2.938202705908452,660.0617972940915
496,1159.5615509088932,7.942675281741117,660.0573247182589
497,1162.0961059874599,3.9471917133824945,660.0528082866175
498,1164.6297053146066,1.9517517710320362,660.048248228968
499,1167.162349326302,6.956355224287563,660.0436447757124
500,1169.6940384582501,6.9610018421610675,660.0389981578389
501,1172.2247731459079,3.965691393094289,660.0343086069057
502,1174.7545538244933,3.970423644974858,660.0295763550251
503,1177.2833809289732,5.97519836515221,660.0248016348478
504,1179.8112548940496,3.9800153204536173,660.0199846795464
505,1182.338176154193,0.9848742771996513,660.0151257228003
506,1184.8641451436217,1.989775001220778,660.0102249987792
507,1187.3891622962988,10.994717257872594,660.0052827421274
508,1189.9132280459505,0.9997008120521969,660.0002991879478
509,1192.4363428260408,1.0047254282138738,659.9952745717861
510,1194.958507069791,20.009790870385018,659.990209129615
511,1197.4797212101923,10.014896902182272,659.9851030978177
512,1199.9999856799627,9.020043286827217,659.9799567131728
513,1202.5193009115778,8.025229787162289,659.9747702128377
514,1205.0376673372805,0.0,659.9695438343332
515,1207.5550853890559,7.035722184472661,659.9642778155273
516,1210.0715554986423,8.041027605380691,659.9589723946193
517,1212.587078097526,1.0463721898761378,659.9536278101239
518,1215.101653616968,0.0,659.9482443008554
519,1217.6152824879623,4.057177894088113,659.9428221059119
520,1220.1279651412603,8.062638535341193,659.9373614646588
521,1222.6397020073687,6.068137383286512,659.9318626167135
522,1225.1504935165656,11.073674198070762,659.9263258019292
523,1227.6603400988524,3.079248739620539,659.9207512603795
524,1230.1692421840069,3.0848607676588244,659.9151392323412
525,1232.6772002015596,7.090510041719995,659.90948995828
526,1235.1842145807805,18.09619632116653,659.9038036788335
527,1237.690285750719,0.0,659.8980806347955
528,1240.195414140158,0.0,659.8923210671005
529,1242.6996001776536,4.113474783192828,659.8865252168072
530,1245.2028442915052,8.119306674916857,659.8806933250831
531,1247.7051469097664,7.125174366811734,659.8748256331883
532,1250.2065084602616,0.0,659.8689223824593
533,1252.7069293705563,6.137016185705875,659.8629838142941
534,1255.2064100679827,0.0,659.857010170135
535,1257.7049509796207,0.0,659.8510016914537
536,1260.2025525323122,6.155041380265288,659.8449586197347
537,1262.6992151526583,7.161118803540035,659.83888119646
538,1265.194939267006,12.167230336907437,659.8327696630926
539,1267.6897253014797,1.1733757389390576,659.8266242610609
540,1270.1835736819407,0.0,659.820445231743
541,1272.6764848340188,3.185767183549956,659.81423281645
542,1275.1684591830983,0.0,659.8079872564113
543,1277.6594971543211,0.0,659.8017087927573
544,1280.1495991725883,1.2046023334953588,659.7953976665046
545,1282.6387656625664,4.21094588146002,659.78905411854
546,1285.1269970486685,8.217321610396652,659.7826783896033
547,1287.6142937550653,1.22372927972674,659.7762707202733
548,1290.1006562057012,11.230168649049574,659.7698313509504
549,1292.5860848242628,6.236639478158509,659.7633605218415
550,1295.0705800342178,0.0,659.7568584729436
551,1297.5541422587567,0.0,659.7503254440282
552,1300.0367719208741,3.2562383253746248,659.7437616746254
553,1302.5184694432876,4.262832595992336,659.7371674040077
554,1304.9992352484933,1.2694571288258203,659.7305428711742
555,1307.4790697587532,9.276111685165006,659.723888314835
556,1309.957973396063,12.28279602660507,659.7172039733949
557,1312.4359465822008,2.2895099150624674,659.7104900849375
558,1314.912989738709,12.296253112790282,659.7037468872097
559,1317.3891032868694,0.3030253823945941,659.6969746176054
560,1319.864287647743,7.3098264868507385,659.6901735131493
561,1322.338543242145,12.316656189518085,659.6833438104819
562,1324.811870490653,14.32351425415709,659.6764857458429
563,1327.2842698136058,7.330400444944871,659.6695995550551
564,1329.7557416310965,0.33731452649044513,659.6626854735096
565,1332.2262863630003,0.0,659.6557437361481
566,1334.6959044289292,0.0,659.6487745774489
567,1337.1645962482787,3.358221768590397,659.6417782314096
568,1339.6323622401883,13.365245068468198,659.6347549315318
569,1342.0992028235742,6.372295089194836,659.6277049108052
570,1344.5651184171031,18.37937159830858,659.6206284016914
571,1347.0301094392232,12.38647436389192,659.6135256361081
572,1349.4941763081176,9.393603154586685,659.6063968454133
573,1351.9573194417612,4.400757739610526,659.5992422603895
574,1354.4195392578736,8.407937888772835,659.5920621112272
575,1356.8808361739482,4.415143372490206,659.5848566275098
576,1359.3412106072296,4.422373961803032,659.577626038197
577,1361.8006629747408,0.0,659.5703705716091
578,1364.2591936932602,3.436909544588275,659.5630904554117
579,1366.7168031793274,3.444214083401448,659.5557859165986
580,1369.1734918492627,0.0,659.5484571814766
581,1371.6292601191312,3.4588955243499413,659.5411044756501
582,1374.0841084047677,2.4662719759962783,659.5337280240037
583,1376.5380371217793,2.4736719493118926,659.5263280506881
584,1378.9910466855283,0.0,659.5189047791026
585,1381.44313751116,2.4885415681197856,659.5114584318802
586,1383.8943100135639,0.0,659.5039892308712
587,1386.3445646073997,7.503502602872572,659.4964973971274
588,1388.7939017071014,3.5110168491135028,659.4889831508865
589,1391.242321726869,3.518553288444309,659.4814467115557
590,1393.6898250806532,0.0,659.4738882976958
591,1396.1364121821853,0.0,659.4663081270057
592,1398.5820834449626,3.5412935836934594,659.4587064163065
593,1401.0268392822397,1.548916618474891,659.4510833815251
594,1403.4706801070479,7.556560762321624,659.4434392376784
595,1405.9136063321732,8.564225801142356,659.4357741988576
596,1408.3556183701828,6.571911521787342,659.4280884782127
597,1410.7967166334029,0.0,659.4203822879354
598,1413.2369015339304,10.587344160755833,659.4126558392442
599,1415.676173483621,8.595090657631658,659.4049093423683
600,1418.1145328941116,5.602856993468436,659.3971430065316
601,1420.551980176794,4.610642960063615,659.3893570399364
602,1422.988515742843,2.6184483502519242,659.3815516497481
603,1425.4241400031804,3.6262729579209463,659.373727042079
604,1427.8588533685188,3.6341165780276015,659.3658834219724
605,1430.2926562493244,2.641979006613269,659.3580209933867
606,1432.7255490558377,7.649860040820499,659.3501399591795
607,1435.1575321980672,3.6577594789083605,659.3422405210916
608,1437.5886060857868,9.665677120268697,659.3343228797313
609,1440.0187711285516,7.673612765441817,659.3263872345582
610,1442.4480277356633,0.0,659.3184337838676
611,1444.8763763162176,0.0,659.3104627247743
612,1447.3038172790625,5.69752574680308,659.3024742531969
613,1449.730351032832,3.705531436158367,659.2944685638416
614,1452.1559779859185,4.713554149813149,659.2864458501869
615,1454.580698546479,5.721593695533329,659.2784063044667
616,1457.0045131224529,0.0,659.2703501176554
617,1459.427422121542,0.7377225205484592,659.2622774794515
618,1461.8494259512363,0.0,659.2541885782616
619,1464.270525018763,0.0,659.2460836011846
620,1466.6907197311507,1.762037266003972,659.237962733996
621,1469.1100104951877,2.7701738388683452,659.2298261611317
622,1471.5283977174324,2.778325934328109,659.2216740656719
623,1473.9458818042137,0.0,659.213506629326
624,1476.3624631616433,6.794675967584226,659.2053240324158
625,1478.7781421955879,10.802873546140063,659.1971264538599
626,1481.192919311697,1.8110859288418624,659.1889140711581
627,1483.6067949153894,0.0,659.1806870603751
628,1486.019769411861,4.827554403875297,659.1724455961247
629,1488.4318432060593,5.835810148446285,659.1641898515537
630,1490.8430167027411,2.8440800016735466,659.1559199983265
631,1493.2532903064005,3.852363793391305,659.1476362066087
632,1495.6626644213295,3.8606613549487747,659.1393386450512
633,1498.0711394515763,2.8689725192250535,659.131027480775
634,1500.478715800973,0.0,659.1227028793539
635,1502.8853938731102,4.88563499519978,659.1143650048002
636,1505.2911740713778,9.893985980452499,659.1060140195475
637,1507.696056798919,6.902349915564514,659.0976500844355
638,1510.1000424586518,0.0,659.0892733586937
639,1512.5031314532728,4.919116000074041,659.080883999926
640,1514.9053241852594,0.9275178359059737,659.072482164094
641,1517.3066210568547,3.9359319944981053,659.0640680055019
642,1519.707022470077,2.9443583232198307,659.0556416767802
643,1522.1065288267139,3.9527966711306135,659.0472033288694
644,1524.505140528341,7.961246888994879,659.0387531110051
645,1526.902857976306,0.969708829298952,659.030291170701
646,1529.2996815717183,5.978182346266067,659.0218176537339
647,1531.6956117154812,0.0,659.0133327041269
648,1534.0906488082594,4.995163535865686,659.0048364641343
649,1536.4847932504942,5.003670925774827,658.9963290742252
650,1538.8780454424189,17.012189326932457,658.9878106730675
651,1541.2704057840197,6.020718602487136,658.9792813975129
652,1543.6618746750762,6.029258617420737,658.9707413825793
653,1546.0524525151347,0.0,658.9621907614367
654,1548.442139703522,5.046370334609833,658.9536296653902
655,1550.8309366393412,1.05494177613582,658.9450582238642
656,1553.2188437214706,7.063523435613092,658.9364765643869
657,1555.6058613485627,1.0721151874261068,658.9278848125739
658,1557.991989919055,5.080716907887222,658.9192830921128
659,1560.37722983116,5.08932847525341,658.9106715247466
660,1562.7615814828625,2.0979497697413763,658.9020502302586
661,1565.1450452719255,8.106580673544158,658.8934193264558
662,1567.5276215958893,0.0,658.8847789291535
663,1569.9093108520835,8.12387084784109,658.8761291521589
664,1572.2901134376018,2.132529892744401,658.8674701072556
665,1574.6700297493182,0.0,658.8588019041875
666,1577.049060183897,3.1498753493569893,658.850124650643
667,1579.4272051377593,0.15856154776133735,658.8414384522387
668,1581.8044650071245,5.167256587495899,658.8327434125041
669,1584.1808401879844,5.175960367134735,658.8240396328653
670,1586.556331076099,0.0,658.815327212629
671,1588.9309380670352,0.19339375103299972,658.806606248967
672,1591.3046615561036,3.2021231631000546,658.7978768369
673,1593.6775019384204,0.21086093071869527,658.7891390692813
674,1596.0494596088713,0.21960696321787054,658.7803930367821
675,1598.4205349621254,6.228361172125915,658.7716388278741
676,1600.7907283926243,9.237123471185441,658.7628765288146
677,1603.160040294599,8.24589377636994,658.7541062236301
678,1605.5284710620506,20.25467200589935,658.7453279941006
679,1607.8960210887724,16.263458080255873,658.7365419197441
680,1610.2626907683252,7.272251922200439,658.7277480777996
681,1612.6284804940665,8.281053456788072,658.7189465432119
682,1614.993390659117,6.28986261138391,658.7101373886161
683,1617.3574216563916,0.0,658.7013206843206
684,1619.7205738785774,1.3075035017077425,658.6924964982923
685,1622.0828477181535,1.3163351038602968,658.6836648961397
686,1624.4442435673648,5.325174058902235,658.6748259410978
687,1626.80476181825,5.334020305988361,658.6659796940116
688,1629.1644028626267,2.342873786679206,658.6571262133208
689,1631.523167092094,9.35173444495706,658.6482655550429
690,1633.881054898035,2.3606022272414293,658.6393977727586
691,1636.238066671607,4.369477082405297,658.6305229175947
692,1638.5942028037596,7.37835896179115,658.6216410382088
693,1640.9494636852178,0.0,658.6127521807734
694,1643.3038497065006,0.0,658.6038563889598
695,1645.6573612578834,0.0,658.594953703922
696,1648.0099987294625,1.4139558357185251,658.5860441642815
697,1650.361762511078,5.422872193889589,658.5771278061104
698,1652.7126529923921,9.431795337083713,658.5682046629163
699,1655.0626705628176,0.4407252343738719,658.5592747656261
700,1657.4118156115615,0.0,658.5503381425699
701,1659.760088527631,5.458605180534505,658.5413948194655
702,1662.1074896997868,6.467555180597969,658.532444819402
703,1664.4540195165998,1.4765118371757353,658.5234881628243
704,1666.79967836641,3.4854751324830886,658.5145248675169
705,1669.1444666373573,1.4944450514117307,658.5055549485883
706,1671.4883847173473,0.0,658.4965784184548
707,1673.831432994074,2.512404713175556,658.4875952868244
708,1676.1736118550327,1.5213944393183283,658.4786055606817
709,1678.514921687477,2.530390755728831,658.4696092442712
710,1680.8553628784714,2.539393660918563,658.4606063390814
711,1683.1949358148504,2.548403156170366,658.4515968438296
712,1685.533640883236,2.5574192455546836,658.4425807544453
713,1687.8714784700471,0.0,658.4335580640545
714,1690.2084489614651,3.5754712370363677,658.4245287629636
715,1692.5445527434772,10.584507161355987,658.415492838644
716,1694.879790201853,2.5935497242841166,658.4064502757159
717,1697.2141617221416,4.602598944068063,658.3974010559319
718,1699.5476676896792,2.6116548418378898,658.3883451581621
719,1701.880308489596,16.620717441622787,658.3792825583772
720,1704.2120845068036,3.6297867703666498,658.3702132296334
721,1706.5429961260027,4.638862857944332,658.3611371420557
722,1708.8730437316751,0.0,658.3520542628225
723,1711.2022277080948,0.0,658.34296455615
724,1713.530548439323,6.666132016724646,658.3338679832754
725,1715.8580063092065,13.675235497558674,658.3247645024413
726,1718.1846017013747,6.684345931119424,658.3156540688806
727,1720.5103349992537,0.0,658.3065366347993
728,1722.8352065860615,0.0,658.2974121493615
729,1725.1592168447812,10.711719441326636,658.2882805586734
730,1727.4823661582147,5.720858194233415,658.2791418057666
731,1729.804654908918,8.730004169416702,658.2699958305833
732,1732.126083479268,4.739157430040223,658.2608425699598
733,1734.4466522514085,12.74831804238977,658.2516819576102
734,1736.7663616072825,2.757486075888437,658.2425139241116
735,1739.0852119286162,8.766661603112993,658.233338396887
736,1741.4032035969312,3.775844699809909,658.2241553001901
737,1743.720336993529,3.7850354449105907,658.2149645550894
738,1746.0366124995057,6.794233920548322,658.2057660794517
739,1748.3520304957513,0.0,658.1965597879267
740,1750.6665913629326,5.812654408068852,658.1873455919311
741,1752.9802954815207,1.8218766003674318,658.1781233996326
742,1755.293143231771,3.831106884066344,658.1688931159337
743,1757.6051349937156,14.840345357544152,658.1596546424558
744,1759.9162711472009,1.8495921224756557,658.1504078775243
745,1762.2265520718447,5.8588472838488315,658.1411527161512
746,1764.5359781470684,7.86811094997995,658.13188905002
747,1766.844549752069,6.877383232530065,658.1226167674699
748,1769.152267265847,5.886664246520468,658.1133357534795
749,1771.4591310671965,1.8959541103490665,658.1040458896509
750,1773.76514153468,0.0,658.0947470541944
751,1776.070299046679,0.0,658.0854391219115
752,1778.3746039813534,8.92387803581994,658.0761219641801
753,1780.6780567166443,1.9332045510623175,658.0667954489377
754,1782.9806576303056,6.942540559333793,658.0574594406662
755,1785.2824070998672,4.951886199624369,658.0481138003756
756,1787.5833055026576,0.9612416144119607,658.038758385588
757,1789.883353215797,0.0,658.0293930503219
758,1792.1825506161947,6.97998235492355,658.0200176450765
759,1794.4808980805533,1.9893679831851614,658.0106320168148
760,1796.7783959853723,0.0,658.0012360089494
761,1799.0750447069393,0.00817053867535833,657.9918294613246
762,1801.3708446213338,1.0175877897977443,657.9824122102023
763,1803.6657961044293,0.0,657.9729840882446
764,1805.9598995318884,5.036455075500953,657.963544924499
765,1808.2531552791838,0.0,657.9540945443819
766,1810.545563721564,0.0,657.9446327696627
767,1812.8371252340678,6.064840581551948,657.935159418448
768,1815.1278401915429,7.074325694833874,657.9256743051661
769,1817.4177089686264,0.0,657.9161772405503
770,1819.7067319397413,2.093331968376674,657.9066680316233
771,1821.9949094791086,4.102853518318398,657.8971464816816
772,1824.2822419607521,1.1123876097205994,657.8876123902794
773,1826.5687297584766,1.1219344467878045,657.8780655532122
774,1828.8543732458847,3.1314942374981456,657.8685057625019
775,1831.1391727963846,5.141067193620188,657.8589328063798
776,1833.4231287831676,4.150653530728391,657.8493464692716
777,1835.7062415792184,8.160253468219139,657.8397465317809
778,1837.988511557327,5.169867229326769,657.8301327706732
779,1840.2699390900707,12.179495041139262,657.8205049588607
780,1842.5505245498255,2.189137134614157,657.8108628653858
781,1844.830268308761,19.198793744594695,657.8012062554053
782,1847.1091707388389,2.2084651098256245,657.7915348901744
783,1849.3872322118298,5.218151472968998,657.781848527031
784,1851.6644530992876,4.227853080620207,657.7721469193798
785,1853.9408337725602,1.23757018332401,657.762429816676
786,1856.216374602807,10.247303035589994,657.75269696441
787,1858.491075960964,2.2570518959090577,657.7429481040909
788,1860.7649382177804,4.2668170267688765,657.7331829732311
789,1863.0379617437932,9.27659869467027,657.7234013053297
790,1865.3101469093442,2.28639717014255,657.7136028298575
791,1867.5814940845585,1.2962127277598938,657.7037872722401
792,1869.8520036393656,5.306045646157145,657.6939543538429
793,1872.1216759434917,8.315896208045388,657.6841037919546
794,1874.3905113664675,1.3257647002283193,657.6742352997717
795,1876.6585102776112,3.3356514136182795,657.6643485863817
796,1878.9256730460438,0.3455566432513706,657.6544433567486
797,1881.1920000406717,4.3554806883040555,657.644519311696
798,1883.4574916302277,4.365423852109188,657.6345761478908
799,1885.7221481832082,8.375386442171134,657.6246135578289
800,1887.9859700679317,5.385368770182481,657.6146312298175
801,1890.2489576525047,5.395371152039729,657.6046288479603
802,1892.5111113048404,0.0,657.5946060921412
803,1894.7724313926346,0.0,657.5845626380086
804,1897.0329182834018,6.425501843040934,657.5744981569591
805,1899.2925723444373,1.435587683878225,657.5644123161218
806,1901.551393942854,4.445695221657388,657.5543047783426
807,1903.8093834455394,7.455824797831951,657.544175202168
808,1906.0665412192054,6.465976758170655,657.5340232418293
809,1908.322867630349,0.0,657.5238485472266
810,1910.5783630452684,2.4863492360868804,657.5136507639131
811,1912.8330278300655,0.49657046692118456,657.5034295330788
812,1915.0868623506396,5.506815508464911,657.4931844915351
813,1917.3398669726807,3.5170847283015974,657.4829152716984
814,1919.5920420617042,2.5273784984254917,657.4726215015745
815,1921.8433879829993,1.5376971952573513,657.4623028047426
816,1924.0939051016667,7.548041199660588,657.4519588003394
817,1926.3435937826057,2.5584108969568433,657.4415891030432
818,1928.5924543905219,5.5688066769423585,657.4311933230576
819,1930.8404872899116,1.5792289339035506,657.4207710660964
820,1933.0876928450773,4.589678066632928,657.4103219333671
821,1935.334071420131,5.60015447844512,657.3998455215549
822,1937.5796233789656,1.610658577192794,657.3893414228072
823,1939.8243490852965,6.621190775282571,657.3788092247174
824,1942.0682489026237,0.6317514896907142,657.3682485103093
825,1944.3113231942616,1.6423411419795002,657.3576588580205
826,1946.55357232332,4.6529601583126805,657.3470398416873
827,1948.7949966527099,1.663608969471511,657.3363910305285
828,1951.0355965451422,6.67428801087101,657.325711989129
829,1953.2753723631438,0.0,657.3150022774249
830,1955.5143244690291,4.695738549313546,657.3042614506865
831,1957.7524532249108,5.706510940497083,657.2934890595029
832,1959.9897589927282,7.717315350233434,657.2826846497666
833,1962.2262421341968,10.728152237343693,657.2718477626563
834,1964.4619030108508,4.739022065377526,657.2609779346225
835,1966.6967419840155,4.74992530262989,657.2500746973701
836,1968.9307594148406,9.760862422156151,657.2391375778438
837,1971.1639556642488,0.7718339017885683,657.2281660982114
838,1973.3963310929907,1.7828402241518688,657.2171597758481
839,1975.6278860616137,0.0,657.2061181233205
840,1977.858620930465,9.80495935162935,657.1950406483707
841,1980.088536059695,4.81607314609937,657.1839268539006
842,1982.317631809259,9.8272237620439,657.1727762379561
843,1984.5459085389211,0.0,657.1615882937103
844,1986.7733666082463,1.8496374905511175,657.1503625094489
845,1989.000006376606,13.860901631447064,657.1390983685529
846,1991.225828203171,0.0,657.127795349484
847,1993.450832446916,11.883547074232183,657.1164529257678
848,1995.6750194666272,0.0,657.1050705659783
849,1997.8983896208981,0.0,657.0936477337215
850,2000.120943268114,0.0,657.0821838876201
851,2002.3426807664691,0.0,657.0706784812975
852,2004.56360247398,4.940869036638674,657.0591309633613
853,2006.7837087484443,11.952459222611651,657.0475407773883
854,2009.0029999474796,4.964092638092438,657.0359073619076
855,2011.221476428504,0.0,657.0242301503854
856,2013.4391385487468,2.987491428791145,657.0125085712089
857,2015.6559866652337,14.999257952329913,657.0007420476701
858,2017.8720211348061,0.011070002049450522,656.9889299979505
859,2020.0872423141036,1.0229281648953474,656.9770718351047
860,2022.301650559579,2.0348330329555893,656.9651669670444
861,2024.5152462274843,0.0,656.9532147965228
862,2026.728029673893,2.058785278881146,656.9412147211189
863,2028.9400012546616,0.0,656.9291661332206
864,2031.151161325474,0.0,656.9170684200102
865,2033.3615102418114,2.095079036552761,656.9049209634472
866,2035.571048358965,0.0,656.8927231402532
867,2037.7797760320307,2.11952567810431,656.8804743218957
868,2039.9876936159087,6.131826125428006,656.868173874572
869,2042.194801465322,7.144178840806262,656.8558211591937
870,2044.4010999347847,10.156584468629376,656.8434155313706
871,2046.6065893786279,0.0,656.8309563413947
872,2048.8112701509817,8.181557065775905,656.8184429342241
873,2051.0151426057973,4.19412535053209,656.8058746494679
874,2053.218207096813,0.0,656.7932508213693
875,2055.4204639776017,0.0,656.78057077879
876,2057.6219136015316,21.2321661548051,656.7678338451949
877,2059.8225563217748,6.24496066136453,656.7550393386355
878,2062.0223924913175,1.2578134282663314,656.7421865717337
879,2064.2214224629565,13.270725148332872,656.7292748516671
880,2066.4196465892915,6.283696519848149,656.7163034801519
881,2068.6170652227365,0.29672824657257024,656.7032717534274
882,2070.813678715516,4.309821037759548,656.6901789622405
883,2073.0094874196616,7.322975608170964,656.677024391829
884,2075.204491687006,0.0,656.6638073219063
885,2077.39869186921,2.3494729733545228,656.6505270266455
886,2079.5920883177237,0.0,656.6371827746626
887,2081.7846813838205,2.3762261709979384,656.6237738290021
888,2083.976471418585,0.38970055288052663,656.6102994471195
889,2086.1674587729008,4.403241119133213,656.5967588808668
890,2088.357643797471,5.416848623524743,656.5831513764753
891,2090.547026842803,0.4305238254592041,656.5694761745408
892,2092.7356082592155,8.44426748999308,656.5557325100069
893,2094.9233883968495,6.458080387850373,656.5419196121496
894,2097.11036760564,5.471963295439082,656.5280367045609
895,2099.2965462353372,6.485916994866557,656.5140830051334
896,2101.48192463551,0.49994227395598045,656.500057726044
897,2103.666503155534,5.51403992626183,656.4859600737382
898,2105.8502821445954,13.528210751085908,656.4717892489141
899,2108.0332619516885,5.542455553493596,656.4575444465064
900,2110.2154429256266,4.5567751443290945,656.4432248556709
901,2112.3968254150313,4.571170340232015,656.428829659768
902,2114.57740976833,0.0,656.414358036347
903,2116.7571963337714,0.0,656.3998091571306
904,2118.9361854594113,2.6148178120017747,656.3851821879982
905,2121.1143774931193,4.629523711029151,656.3704762889708
906,2123.291772782579,6.6443093858054,656.3556906141946
907,2125.468371675279,4.659175688074924,656.3408243119251
908,2127.6441745185243,6.674123475488614,656.3258765245114
909,2129.819181659442,2.689153611619986,656.31084638838
910,2131.9933934449573,5.704266965980537,656.2957330340195
911,2134.166810221817,1.7194644140362243,656.2805355859638
912,2136.339432336576,0.0,656.2652531627766
913,2138.5112601356086,1.7501151229640755,656.2498848770359
914,2140.682293965094,2.7655701646823445,656.2344298353177
915,2142.8525341710397,0.0,656.2188871381795
916,2145.021981099246,0.0,656.2032558801457
917,2147.1906350953413,7.812464850309425,656.1875351496906
918,2149.3584965047703,3.8282759707770992,656.1717240292229
919,2151.5255656727763,6.844178404930176,656.1558215950698
920,2153.6918429444254,11.860173082538836,656.1398269174612
921,2155.8573286646056,5.876260939486883,656.1237390605131
922,2158.022023178016,9.892442917787207,656.1075570822128
923,2160.1859268291523,3.9087199655980385,656.091280034402
924,2162.349039962349,16.925093037238526,656.0749069627615
925,2164.5113629217403,0.0,656.0584369067949
926,2166.6728960512787,1.9581311001869608,656.041868899813
927,2168.833639694741,0.9747980310821731,656.0252019689178
928,2170.993594195702,11.991564865013629,656.0084351349864
929,2173.152759897567,8.008432587345055,655.991567412655
930,2175.311137143541,0.025402189696364985,655.9745978103036
931,2177.468726276663,0.0,655.9575253300395
932,2179.6255276397774,1.0596510323183566,655.9403489676816
933,2181.781541575542,5.0769322872553175,655.9230677127447
934,2183.9367684264303,4.094319451577235,655.9056805484228
935,2186.091208534742,11.111813548425744,655.8881864515743
936,2188.244862242584,9.129415607294959,655.870584392705
937,2190.3977298918817,4.147126664046596,655.8528733359534
938,2192.549811824375,5.164947760926566,655.8350522390734
939,2194.7011083816183,0.0,655.8171200534196
940,2196.851619904992,6.200924276069486,655.7990757239305
941,2199.001346735686,0.21908181088667789,655.7809181891133
942,2201.1502892147014,8.237353618972634,655.7626463810274
943,2203.2984476828765,3.2557407747312936,655.7442592252687
944,2205.445822480842,4.274244359045952,655.725755640954
945,2207.592413949056,0.0,655.7071345407047
946,2209.7382224278035,0.31160516936904514,655.688394830631
947,2211.883248257169,3.330464589684425,655.6695354103156
948,2214.027491777078,6.349444827201296,655.6505551727987
949,2216.1709533272447,0.0,655.6314530045615
950,2218.313633247223,3.3877722144900417,655.61222778551
951,2220.4555318763755,4.407121611040225,655.5928783889598
952,2222.5966495538855,0.0,655.5734036816197
953,2224.736986618759,6.446197476424345,655.5538025235757
954,2226.8765434098054,0.0,655.5340737682754
955,2229.0153202656684,3.4857837374876226,655.5142162625124
956,2231.1533175248082,9.505771153590672,655.4942288464093
957,2233.2905355254975,0.0,655.4741103534029
958,2235.4269746058208,6.54614038977229,655.4538596102277
959,2237.562635103705,5.566524563099733,655.4334754369003
960,2239.697517356872,14.58704335329719,655.4129566467028
961,2241.8316217028714,1.6076979538319165,655.3923020461681
962,2243.964948479087,3.62848956493724,655.3715104350628
963,2246.097498022693,1.6494193936281363,655.3505806063719
964,2248.2292706707062,0.0,655.329511346283
965,2250.360266759955,9.69169856583028,655.3083014341697
966,2252.4904866270867,2.7130503574234126,655.2869496425766
967,2254.6199306085723,0.7345452627974964,655.2654547372025
968,2256.748599040693,10.756184523114598,655.2438154768854
969,2258.8764922595656,3.7779693864143837,655.2220306135856
970,2261.003610601112,0.7999011076293527,655.2000988923706
971,2263.129954401088,16.821980948601094,655.1780190513989
972,2265.2555239950634,2.844210178096205,655.1557898219038
973,2267.38031971842,4.866590071822088,655.1334099281779
974,2269.5043419063772,0.8891219124428744,655.1108780875571
975,2271.627590893965,1.911806989595334,655.0881930104047
976,2273.75006701603,4.934646599904909,655.0653534000951
977,2275.871770607257,0.0,655.0423579529984
978,2277.99270200213,8.980794641535795,655.0192053584642
979,2280.1128615349758,2.004105701194135,654.9958942988059
980,2282.232249539921,1.0275765507154802,654.9724234492845
981,2284.350866350938,0.0,654.9487914780932
982,2286.468712301799,5.075002953659464,654.9249970463405
983,2288.585787726112,13.098961191964463,654.9010388080355
984,2290.702092957299,5.123084589928794,654.8769154100712
985,2292.817628328607,1.1473745077912554,654.8526254922087
986,2294.9323941731095,6.171832312938477,654.8281676870615
987,2297.046390823689,2.1964593799206114,654.8035406200794
988,2299.159618613072,5.2212570904672475,654.7787429095328
989,2301.272077873781,9.246226833503783,654.7537731664962
990,2303.3837689381894,2.2713700051665455,654.7286299948335
991,2305.4946921384685,3.2966880088193875,654.7033119911806
992,2307.6048478066286,6.322182255069492,654.6778177449305
993,2309.714236274495,11.347854161782834,654.6521458382172
994,2311.8228578737176,5.3737051541005485,654.6262948458995
995,2313.930712935775,6.399736664454849,654.6002633355452
996,2316.0378017919616,7.425950132584603,654.5740498674154
997,2318.144124773395,11.452347005551474,654.5476529944485
998,2320.249682211033,0.0,654.521071262244
999,2322.354474435626,0.0,654.4943032090471
1000,2324.4585017777795,9.53265263426772,654.4673473657323
1001,2326.561764567903,1.5597977442124602,654.4402022557875
1002,2328.6642631362415,0.0,654.4128663952988
1003,2330.7659978128586,5.614661707066375,654.3853382929336
1004,2332.8669689276385,4.642383550074555,654.3576164499254
1005,2334.9671768102976,0.6703006399425249,654.3296993600575
1006,2337.0666217903727,4.698414490352775,654.3015855096472
1007,2339.1653041972336,3.7267266224698687,654.2732733775301
1008,2341.263224360057,3.7552385649560165,654.244761435044
1009,2343.3603826078574,2.78395185398756,654.2160481460124
1010,2345.4567792694793,8.812868033269865,654.1871319667301
1011,2347.552414673573,0.0,654.1580113459457
1012,2349.647289148632,5.871315275153393,654.1286847248466
1013,2351.7414030229725,9.900849462957353,654.0991505370426
1014,2353.834756624732,0.0,654.0694072085505
1015,2355.927350281869,7.960546842222129,654.0394531577779
1016,2358.0191843221796,0.0,654.009286795507
1017,2360.1102590732703,7.021093475120665,653.9789065248793
1018,2362.2005748625975,0.0,653.9483107413791
1019,2364.2901320174137,0.08250216718181491,653.9174978328182
1020,2366.378930864822,7.1135338206808,653.8864661793192
1021,2368.4669717317397,0.0,653.8552141533004
1022,2370.554254944907,5.176259880540556,653.8237401194594
1023,2372.6407808309104,4.20795756524285,653.7920424347571
