pixel_index,raman_shift_cm-1,corrected_intensity,background_intensity
0,-224.93893402798304,17.22473209374789,631.7752679062521
1,-221.87119738811433,13.954357354181639,632.0456426458184
2,-218.80466707970393,17.685867343699556,632.3141326563004
3,-215.7393425174822,13.419252883523768,632.5807471164762
4,-212.6752231165416,19.15450482313463,632.8454951768654
5,-209.61230829233662,8.89161404022866,633.1083859597713
6,-206.5505974606905,10.63057144067784,633.3694285593222
7,-203.49009003776476,18.371367958487554,633.6286320415124
8,-200.43078544011544,11.113994555755426,633.8860054442446
9,-197.3726830846326,12.858442222629947,634.14155777737
10,-194.31578238858145,24.604701977268746,634.3952980227313
11,-191.26008276958498,18.3527648657971,634.6472351342029
12,-188.2055836456304,17.102621962266767,634.8973780377332
13,-185.15228443504978,10.854264368614508,635.1457356313855
14,-182.10018455655032,8.607683214620465,635.3923167853795
15,-179.04928342920343,11.362869657866668,635.6371303421333
16,-175.99958047242103,7.119814883695653,635.8801851163043
17,-172.95107510598802,6.878510105169198,636.1214898948308
18,-169.90376675004703,11.63894656302648,636.3610534369735
19,-166.85765482508333,12.401115525642922,636.5988844743571
20,-163.812738751966,11.165008288988702,636.8349917110113
21,-160.76901795190238,4.930616176587137,637.0693838234129
22,-157.72649184647062,3.6979305394733046,637.3020694605267
23,-154.68515985759146,14.466942756152775,637.5330572438472
24,-151.64502140755644,14.237644232559887,637.7623557674401
25,-148.60607591900407,12.010026402016251,637.9899735979837
26,-145.5683228149306,11.784080725189597,638.2159192748104
27,-142.53176151870528,8.559798690052162,638.4402013099478
28,-139.4963914540248,12.337171811839198,638.6628281881608
29,-136.46221204496314,24.116191633007475,638.8838083669925
30,-133.4292227159412,8.896849723193895,639.1031502768061
31,-130.39742289173333,16.67913767917412,639.3208623208259
32,-127.36681199747605,9.463047124820946,639.536952875179
33,-124.33738945865497,0.24856971106305537,639.751430288937
34,-121.3091547011113,3.0356971158431634,639.9643028841568
35,-118.28210715103971,8.824421044077098,640.1755789559229
36,-115.25624623498618,0.0,640.385266772388
37,-112.23157137985659,17.406625425184757,640.5933745748152
38,-109.20808201290164,8.200089422381097,640.7999105776189
39,-106.18577756173632,4.995117031593395,641.0048829684066
40,-103.16465745431385,7.791700091979806,641.2082999080202
41,-100.14472111894963,4.589830469422623,641.4101695305774
42,-97.12596798430815,3.3895000564864404,641.6104999435136
43,-94.10839747940949,4.190700772377454,641.8092992276225
44,-91.09200903361639,2.9934245629015095,642.0065754370985
45,-88.07680207665582,0.0,642.2023365995775
46,-85.06277603858659,6.603409283821293,642.3965907161787
47,-82.04993034984474,10.410654238454185,642.5893457615458
48,-79.0382644411873,5.219390316111344,642.7806096838887
49,-76.02777774374418,0.029609594975227083,642.9703904050248
50,-73.01846968898583,0.0,643.1586958204206
51,-70.01033970873175,6.6544662007671604,643.3455337992328
52,-67.00338723515274,3.469087815649459,643.5309121843505
53,-63.997611700768694,11.285161207564329,643.7148387924357
54,-60.99301253844865,6.102678586034585,643.8973214139654
55,-57.98958918139989,0.0,644.078367813273
56,-54.98734106319835,0.0,644.2579857285896
57,-51.986267617753875,0.0,644.4361828720853
58,-48.98636827932977,0.0,644.6129669299112
59,-45.98764248252112,6.211654437759762,644.7883455622402
60,-42.99008966229812,4.037673596690979,644.962326403309
61,-39.99370925394973,6.865082938540695,645.1349170614593
62,-36.998500693131376,10.693874880820886,645.3061251191791
63,-34.004463415841094,74.52404186685544,645.4759581331446
64,-31.011596858408677,161.35557636573878,645.6444236342612
65,-28.01990045753471,326.1884708722946,645.8115291277054
66,-25.029373650236383,415.02271790703435,645.9772820929657
67,-22.040015873901666,79.85831001611552,646.1416899838845
68,-19.05182656624163,14.695239771300521,646.3047602286995
69,-16.064805165335976,6.533499769914897,646.4665002300851
70,-13.078951109589658,0.0,646.6269173651938
71,-10.094263837754584,2.213981014302476,646.7860189856975
72,-7.11074278894044,5.056187582170423,646.9438124178296
73,-4.128387402575675,0.0,647.1003049624256
74,-1.1471971184616978,0.0,647.255503894965
75,1.8328286232878293,0.0,647.4094164656132
76,4.8116903821797745,1.4379501007383624,647.5620498992616
77,7.789388717421765,0.0,647.713411395571
78,10.76592418784413,1.136491870988948,647.863508129011
79,13.741297351951928,1.9876527510966753,648.0123472489033
80,16.71550876789895,12.840064120538273,648.1599358794617
81,19.688558993507208,0.0,648.3062811198345
82,22.66044858625395,1.5486099558547721,648.4513900441452
83,25.63117810327814,0.0,648.5952697015351
84,28.600748101367465,0.0,648.7379271162033
85,31.569159136973518,0.0,648.8793692874494
86,34.53641176621612,0.0,649.0196031897143
87,37.502506544872475,0.0,649.1586357726216
88,40.46744402837286,0.0,649.2964739610195
89,43.431224771807095,0.0,649.433124655022
90,46.39384932994409,0.0,649.5685947300502
91,49.35531825719279,0.0,649.7028910368742
92,52.31563210763473,0.0,649.8360204016542
93,55.27479143500446,0.0,649.9679896259818
94,58.232796792709145,0.0,650.0988054869218
95,61.189648733817656,0.0,650.2284747370541
96,64.14534781104976,0.0,650.3570041045137
97,67.09989457679127,10.515599706965986,650.484400293034
98,70.05328958310928,0.3893300180135384,650.6106699819865
99,73.00553338170872,2.264180173576392,650.7358198264236
100,75.9566265239671,22.14014354288065,650.8598564571193
101,78.90656956093456,8.017213519388747,650.9827864806113
102,81.8553630433142,1.8953835207585144,651.1046164792415
103,84.80300752147525,11.774646988801692,651.2253530111983
104,87.74950354546165,6.654997389442201,651.3450026105578
105,90.69485166496825,3.536428212674764,651.4635717873252
106,93.63905242936247,16.41893297252375,651.5810670274763
107,96.58210638767342,7.302505207001332,651.6974947929987
108,99.52401408860065,13.187138478066117,651.8128615219339
109,102.46477608050544,16.072826371582096,651.9271736284179
110,105.40439291141078,4.959562497276352,652.0404375027236
111,108.34286512901876,11.847340488698478,652.1526595113015
112,111.28019328069315,11.736154003178626,652.2638459968214
113,114.21637791345519,15.625996721786123,652.3740032782139
114,117.15141957400512,6.516862349288203,652.4831376507118
115,120.08531880870494,0.40874461410817275,652.5912553858918
116,123.01807616358273,10.30163726828448,652.6983627317155
117,125.94969218433695,3.195534087428655,652.8044659125713
118,128.88016741634516,11.090428870684264,652.9095711293157
119,131.80950240462278,4.986315440685644,653.0136845593144
120,134.73769769388812,5.8831876435157255,653.1168123564843
121,137.6647538285083,1.781039348665331,653.2189606513347
122,140.5906713525338,6.679864448991111,653.3201355510089
123,143.51545080965727,15.579656860674618,653.4203431393254
124,146.4390927432809,0.0,653.5195894768196
125,149.36159769644246,11.382119399214844,653.6178806007852
126,152.2829662118654,6.284777474684688,653.7152225253153
127,155.2031988319414,7.1883787586554035,653.8116212413446
128,158.1222960987303,5.092917283309816,653.9070827166902
129,161.0402585539754,3.99838710390668,654.0016128960933
130,163.95708673906444,0.904782298739292,654.0952177012607
131,166.87278119509233,0.0,654.1879030309062
132,169.78734246279186,4.720325239207909,654.2796747607921
133,172.70077108258582,0.0,654.3705387437703
134,175.61306759457167,3.53949919017532,654.4605008098247
135,178.52423253850645,2.4504332338887025,654.5495667661113
136,181.4342664538328,8.36225760299908,654.6377423970009
137,184.3431698796594,11.27496653588014,654.7250334641199
138,187.25094335476314,0.18855429360826292,654.8114457063917
139,190.15758741760874,0.0,654.8969848400789
140,193.0631026063204,12.018343441176512,654.9816565588235
141,195.96748945870795,10.93453346631054,655.0654665336895
142,198.87074851224943,0.0,655.1484204132039
143,201.77288030408897,4.76947617660187,655.2305238233981
144,204.67388537106277,11.688217632150554,655.3117823678494
145,207.57376424967524,3.6077983722773297,655.3922016277227
146,210.47251747609903,5.528212838188551,655.4717871618114
147,213.37014558619245,14.449455493420373,655.5505445065796
148,216.2666491154798,13.371520823797141,655.6284791762029
149,219.1620285991688,23.29440333738978,655.7055966626102
150,222.0562845721397,10.218097564474874,655.7819024355251
151,224.94941756895196,11.142598057492592,655.8574019425074
152,227.84142812383533,13.067899391005767,655.9321006089942
153,230.7323167707073,22.993996161657833,656.0060038383422
154,233.62208404315803,13.92088298813212,656.0791170118679
155,236.5107304744523,6.848554511109683,656.1514454888903
156,239.39825659752756,16.77700539322825,656.2229946067717
157,242.28466294501328,14.706230319040742,656.2937696809593
158,245.16995004920938,21.63622399497376,656.3637760050262
159,248.05411844208183,13.566981149285994,656.433018850714
160,250.93716865530598,22.498496532026934,656.5015034679731
161,253.81910122020818,16.43076491499528,656.5692350850047
162,256.69991666780675,13.363781091697888,656.6362189083021
163,259.579615528797,14.297539877307713,656.7024601226923
164,262.4581983335511,23.23203610862265,656.7679638913773
165,265.33566561212467,12.167264644024044,656.832735355976
166,268.2120178942567,17.103220363435526,656.8967796365645
167,271.08725570935445,21.039898168280956,656.960101831719
168,273.9613795865194,5.977292981443384,657.0227070185566
169,276.83439005452567,21.915399747223773,657.0846002527762
170,279.7062876418307,5.854213431298717,657.1457865687013
171,282.5770728765798,27.79372902068019,657.2062709793198
172,285.44674628658413,20.73394152367291,657.2660584763271
173,288.3153083993516,15.674845969833541,657.3251540301665
174,291.18275974207313,31.616437409929404,657.3835625900706
175,294.0491008416061,23.558710915896427,657.4412890841036
176,296.9143322245041,25.501661580797986,657.498338419202
177,299.7784544170041,10.445284518783637,657.5547154812164
178,302.641467945018,19.389574865047166,657.6104251349528
179,305.5033733341431,32.33452777578577,657.6654722242142
180,308.36417110966875,13.280138428158125,657.7198615718419
181,311.2238617965506,13.226402020242972,657.773597979757
182,314.0824459194535,7.1733137709977655,657.8266862290022
183,316.93992400270207,21.120868920217504,657.8791310797825
184,319.7962965703193,13.069062728492668,657.9309372715073
185,322.6515641460096,3.01789047716818,657.9821095228318
186,325.5057272531607,12.967347468301682,658.0326525316983
187,328.35878641485243,14.917429024622606,658.0825709753774
188,331.2107421538394,20.86813048949,658.13186951051
189,334.06159499257046,18.81944722685148,658.1805527731485
190,336.91134545317783,6.771374621201971,658.228625378798
191,339.759994057475,4.723908077541751,658.2760919224582
192,342.60754132697195,7.67704302133518,658.3229569786648
193,345.45398778286193,4.63077489846944,658.3692251015306
194,348.29933394601954,5.585099175213031,658.414900824787
195,351.1435803370115,6.54001133817394,658.4599886618261
196,353.9867274760856,15.495506894258824,658.5044931057412
197,356.8287758831906,11.45158137063072,658.5484186293693
198,359.6697260779521,10.408230314668572,658.5917696853314
199,362.5095785796833,4.365449293924939,658.6345507060751
200,365.3483339073919,8.323233896084957,658.676766103915
201,368.18599257977536,2.2815797289248394,658.7184202710752
202,371.0225551152081,3.2404824202702684,658.7595175797297
203,373.85802203176956,6.199937617955129,658.8000623820449
204,376.6923938472184,8.159940989779898,658.8400590102201
205,379.525671079003,7.120488223470261,658.8795117765297
206,382.3578542442598,10.081575026635733,658.9184249733643
207,385.1889438598278,15.043197126728046,658.956802873272
208,388.01894044223184,12.00535027099977,658.9946497290002
209,390.8478445076649,18.968030226462815,659.0319697735372
210,393.6756565720402,3.9312327798471642,659.0687672201528
211,396.50237715095454,9.894953737558922,659.1050462624411
212,399.32800675968355,8.859188925639614,659.1408110743604
213,402.1525459132081,10.823934189724127,659.1760658102759
214,404.9759951261882,14.789185394999208,659.2108146050008
215,407.79835491299525,8.754938426162767,659.2450615738372
216,410.61962578767134,7.721189187381356,659.2788108126186
217,413.4398082639612,7.687933602249586,659.3120663977504
218,416.25890285530187,17.655167613748063,659.3448323862519
219,419.0769100748202,7.622887184202568,659.3771128157974
220,421.89383043535025,6.591088295241889,659.4089117047581
221,424.70966444938796,1.559766947756998,659.440233052243
222,427.5244126291538,1.5289191618588802,659.4710808381411
223,430.3380754865538,6.498540976837944,659.501459023162
224,433.15065353318175,9.468628451121958,659.531371548878
225,435.9621472803214,0.4391776622347834,659.5608223377652
226,438.77255723896593,0.0,659.5898152932454
227,441.5818839197984,0.0,659.6183542997267
228,444.39012783318526,0.35355677735401514,659.646443222646
229,447.1972894892046,0.0,659.6740859085097
230,450.00336939761365,1.2987138150643887,659.7012861849356
231,452.8083680678855,9.271952139305995,659.728047860694
232,455.6122860091636,6.245625274250642,659.7543747257494
233,458.4151237303118,0.2197294486982173,659.7802705513018
234,461.21688173987724,0.0,659.8057390898285
235,464.017560546108,0.0,659.830784075125
236,466.8171606569418,6.144590777652979,659.855409222347
237,469.615682580026,2.1203817719487006,659.8796182280513
238,472.41312682268915,8.096585229762013,659.903414770238
239,475.2094938919715,3.0731974916087665,659.9268025083912
240,478.004784294603,8.050214916479149,659.9497850835209
241,480.79899853701886,7.027633881795737,659.9723661182043
242,483.59213712534205,12.005450783372794,659.9945492166272
243,486.38420056540485,17.983662035374095,660.0163379646259
244,489.1751893627253,31.962264070272,660.037735929728
245,491.96510402253716,67.94125333880572,660.0587466611943
246,494.7539450497599,135.9206263099402,660.0793736900598
247,497.5417129490073,272.90037947082385,660.0996205291761
248,500.32840822461986,343.8805093267482,660.1194906732518
249,503.1140313806041,512.8610124011055,660.1389875988945
250,505.8985829206868,786.8418852353481,660.1581147646519
251,508.68206334829136,1067.8231243889459,660.1768756110541
252,511.4644731665438,1057.804726439346,660.195273560654
253,514.2458128782625,545.7866879819308,660.2133120180692
254,517.0260829859643,234.76900562997628,660.2309943700237
255,519.8052839918906,93.75167601461078,660.2483239853892
256,522.5834163979579,58.73469578477386,660.2653042152261
257,525.360480705798,33.71806160717426,660.2819383928257
258,528.1364774167396,36.70177016624882,660.2982298337512
259,530.9114070318208,23.68581816412086,660.3141818358791
260,533.6852700517629,13.670202320558701,660.3297976794413
261,536.4580669770143,9.6549193729345,660.3450806270655
262,539.229798307702,14.639966076182418,660.3600339238176
263,542.0004645436848,15.625339202757573,660.3746607972424
264,544.7700661844975,0.6110355425938678,660.3889644574061
265,547.5386037293874,11.597051903063402,660.4029480969366
266,550.3060776773151,9.583385108934635,660.4166148910654
267,553.072488526929,3.570032002330663,660.4299679976693
268,555.8378367765912,3.5569894426880637,660.4430105573119
269,558.6021229243669,24.544254306715516,660.4557456932845
270,561.3653474680265,0.0,660.4681765116479
271,564.1275109050407,2.5196938987260182,660.480306101274
272,566.8886137325879,7.507862466113124,660.4921375338869
273,569.6486564475581,2.4963261358952877,660.5036738641047
274,572.4076395465373,7.485081870519139,660.5149181294809
275,575.1655635258105,1.4741266494544334,660.5258733505456
276,577.9224288813938,5.4634574691529,660.5365425308471
277,580.6782361089755,0.45307134300639973,660.5469286569936
278,583.4329857039885,9.442965301305776,660.5570346986942
279,586.186678161538,4.433136391199241,660.5668636088008
280,588.9393139764561,0.0,660.5764183233491
281,591.6908936432668,0.41429823839928304,660.5857017616007
282,594.4414176562253,5.405283173916359,660.5947168260836
283,597.1908865092619,0.0,660.6034664026349
284,599.9393006960395,7.388046639558979,660.611953360441
285,602.6866607099246,10.379819447920113,660.6201805520799
286,605.4329670439818,1.3718491864375437,660.6281508135625
287,608.1782201909917,0.0,660.6358669643736
288,610.9224206434384,0.0,660.6433318075141
289,613.6655688935253,11.349451870458324,660.6505481295417
290,616.407665433149,10.342481299386918,660.6575187006131
291,619.1487107539252,2.3357537254753424,660.6642462745247
292,621.8887053471823,0.32926641124527123,660.6707335887547
293,624.6276497039443,2.323016635495833,660.6769833645042
294,627.3655443149603,2.3170016932612043,660.6829983067388
295,630.102389670682,0.0,660.6887811042299
296,632.838186261273,0.0,660.6943344295962
297,635.5729345766084,4.300339060654551,660.6996609393454
298,638.3066351062596,0.0,660.7047632739155
299,641.0392883395315,2.2903559422838953,660.7096440577161
300,643.770894765425,2.285694100830028,660.71430589917
301,646.5014548726641,8.281248609245381,660.7187513907546
302,649.2309691496665,4.2770168909564745,660.7229831090435
303,651.9594380845836,7.272996385252213,660.7270036147478
304,654.6868621652583,3.2691845472422756,660.7308154527577
305,657.4132418792587,11.265578847816187,660.7344211521838
306,660.1385777138601,11.262176773601368,660.7378232263986
307,662.8628701560511,12.25897582692187,660.7410241730781
308,665.5861196925347,15.2559735257571,660.7440264742429
309,668.3083268097249,0.25316740369976287,660.7468325963002
310,671.0294919937522,2.2505550099151606,660.7494449900848
311,673.749615730454,0.0,660.7518660909006
312,676.468698505388,0.24590168143754454,660.7540983185625
313,679.1867408038215,8.243855922562943,660.756144077437
314,681.9037431107333,0.24199424351525067,660.7580057564847
315,684.619705910829,0.0,660.7596857293012
316,687.3346296885105,8.238813645841901,660.7611863541581
317,690.0485149279197,0.0,660.7625099740455
318,692.7613621128862,0.0,660.7636589167126
319,695.4731717269684,1.2353645052904767,660.7646354947095
320,698.1839442534343,13.234557994571105,660.7654420054289
321,700.8936801752786,0.0,660.7660807311468
322,703.602379975197,0.0,660.7665539390648
323,706.31004413562,11.233136118648872,660.7668638813511
324,709.0166731386687,4.232987204818073,660.7670127951819
325,711.722267466206,0.0,660.7670029027834
326,714.4268275997997,7.2331635885276455,660.7668364114724
327,717.1303540207206,0.0,660.7665155136983
328,719.832847209988,7.233957612915219,660.7660423870848
329,722.5343076483156,3.2345808055291627,660.7654191944708
330,725.2347358161414,0.0,660.764648083952
331,727.9341321936132,0.0,660.7637311889227
332,730.6324972606183,2.23732937188322,660.7626706281168
333,733.3298314967295,7.238531494350582,660.7614685056494
334,736.0261353812642,3.2398730889414082,660.7601269110586
335,738.7214093932488,0.0,660.7586479193465
336,741.4156540114344,7.242966408979328,660.7570335910207
337,744.1088697142818,1.2447140278638926,660.7552859721361
338,746.8010569799737,0.0,660.753407094336
339,749.4922162864116,18.24860102510604,660.751398974894
340,752.1823481112275,0.0,660.7492636167545
341,754.8714529317566,0.0,660.7470030085757
342,757.5595312250632,1.255380875230685,660.7446191247693
343,760.2465834679381,0.0,660.7421139255435
344,762.9326101368686,2.260510643056591,660.7394893569434
345,765.6176117080948,0.0,660.736747350893
346,768.3015886575492,8.266110174763753,660.7338898252362
347,770.984541460908,0.0,660.7309186837792
348,773.6664705935525,11.272164183669247,660.7278358163308
349,776.347376530589,0.0,660.7246430987442
350,779.0272597468567,1.278657607040941,660.7213423929591
351,781.7061207168957,9.282064452957457,660.7179355470425
352,784.3839599149926,0.0,660.7144243952303
353,787.0607778151322,10.28918924203117,660.7108107579688
354,789.7365748910415,7.292903558043918,660.7070964419561
355,792.411351616157,1.2967167598162632,660.7032832401837
356,795.0851084636439,3.300627068022095,660.6993729319779
357,797.7578459063944,0.0,660.695367283041
358,800.4295644170166,2.3087319545066975,660.6912680454933
359,803.1002644678389,8.312923042086027,660.687076957914
360,805.769946530927,0.31720425461708146,660.6827957453829
361,808.4386110780565,3.3215738804781267,660.6784261195219
362,811.106258580736,8.326030221463611,660.6739697785364
363,813.7728895102033,2.33057159274324,660.6694284072568
364,816.4385043374009,8.335196322820138,660.6648036771799
365,819.1031035330071,1.3399027534898096,660.6600972465102
366,821.7666875674443,10.344689239798072,660.6553107602019
367,824.4292569108201,0.0,660.6504458499996
368,827.0908120330084,0.0,660.6455041344806
369,829.7513534035709,1.359512780904879,660.6404872190951
370,832.4108814918301,0.0,660.6353966962095
371,835.0693967668099,8.369765854853995,660.630234145146
372,837.7268996972672,4.374998867774821,660.6250011322252
373,840.3833907516902,4.380300789192802,660.6196992108072
374,843.0388703982959,0.0,660.614329921333
375,845.6933391050064,0.0,660.6088947913663
376,848.3467973395011,8.396604664365668,660.6033953356343
377,850.9992455691664,5.402166943929956,660.59783305607
378,853.6506842611135,7.407790558147212,660.5922094418528
379,856.3011138822086,2.4134740305494233,660.5865259694506
380,858.9505348990077,0.0,660.5807841026609
381,861.5989477778196,5.425014707347373,660.5749852926526
382,864.2463529846822,8.43086902199309,660.5691309780069
383,866.8927509853448,5.436777415240499,660.5632225847595
384,869.5381422453011,6.442738473558734,660.5572615264413
385,872.1825272297646,4.448750795879846,660.5512492041202
386,874.8259064036827,3.454812993557084,660.5451870064429
387,877.4682802317226,8.46092369032408,660.5390763096759
388,880.1096491783022,3.4670815222531246,660.5329184777469
389,882.7500137075449,3.4732851377134466,660.5267148622866
390,885.3893742833112,9.479533197330284,660.5204668026697
391,888.0277313692083,18.485824373942705,660.5141756260573
392,890.6650854285436,4.4921573525630265,660.507842647437
393,893.3014369243847,0.0,660.5014691696654
394,895.9367863195056,10.504943516490812,660.4950564835092
395,898.5711340764248,2.5113941323133986,660.4886058676866
396,901.2044806573898,15.517881411091025,660.482118588909
397,903.8368265243748,9.52440409807798,660.475595901922
398,906.4681721391004,9.530960950452595,660.4690390495474
399,909.0985179629855,20.537550737275637,660.4624492627244
400,911.7278644572174,25.544172239449153,660.4558277605508
401,914.3562120826989,11.55082424967486,660.4491757503251
402,916.9835613000556,10.557505572412765,660.4424944275872
403,919.6099125696658,12.564215023839438,660.4357849761606
404,922.2352663516322,15.570951431807089,660.4290485681929
405,924.859623105778,25.577713635801388,660.4222863641986
406,927.4829832916793,26.584500486900765,660.4154995130992
407,930.1053473686322,36.59131084773435,660.4086891522657
408,932.7267157956728,33.59814359244092,660.4018564075591
409,935.3470890315573,52.604997606627194,660.3950023933728
410,937.9664675347992,54.611871787326436,660.3881282126736
411,940.5848517636279,42.61876504295719,660.3812349570428
412,943.2022421760104,57.625676293281344,660.3743237067187
413,945.818639229649,53.6326044693634,660.3673955306366
414,948.4340433819774,50.63954851352821,660.3604514864718
415,951.0484550901733,44.64650737932027,660.3534926206797
416,953.6618748111456,38.65348003146164,660.3465199685384
417,956.2743030015275,52.66046544581093,660.3395345541891
418,958.8857401176967,53.66746260932155,660.3325373906785
419,961.4961866157793,57.674470520000455,660.3255294799995
420,964.1056429516084,41.68148818686643,660.3185118131336
421,966.7141095807746,40.68851462990915,660.3114853700908
422,969.3215869585972,41.69554888004711,660.3044511199529
423,971.9280755401331,37.70258997908661,660.2974100209134
424,974.5335757801685,44.70963697967977,660.2903630203202
425,977.138088133244,44.71668894528398,660.283311054716
426,979.7416130536188,36.72374495011957,660.2762550498804
427,982.3441509953004,38.73080407912846,660.2691959208715
428,984.9457024120253,26.73786542793357,660.2621345720664
429,987.5462677572783,30.744928102796052,660.255071897204
430,990.1458474842668,16.75199122057495,660.248008779425
431,992.7444420459466,14.759053908685019,660.240946091315
432,995.3420518950132,15.766115305055678,660.2338846949443
433,997.938677483887,10.773174558089408,660.2268254419106
434,1000.5343192647474,10.78023082662014,660.2197691733799
435,1003.1289776894921,3.787283279872213,660.2127167201278
436,1005.7226532097737,5.794331097418535,660.2056689025815
437,1008.3153462769673,9.801373469139321,660.1986265308607
438,1010.9070573422049,14.808409595180365,660.1915904048196
439,1013.4977868563457,6.8154386859119995,660.184561314088
440,1016.0875352699882,0.0,660.1775400381126
441,1018.676303033482,3.8294726538010764,660.1705273461989
442,1021.2640905969076,3.8364760024476254,660.1635239975524
443,1023.8508984100765,0.0,660.1565307413199
444,1026.4367269225663,6.850451683368306,660.1495483166317
445,1029.0215765836638,4.857422547358283,660.1425774526417
446,1031.6054478424303,4.864381131429468,660.1356188685705
447,1034.1883411476367,0.0,660.1286732737454
448,1036.7702569478065,1.878258632357074,660.1217413676429
449,1039.3511956912207,2.885176160070614,660.1148238399294
450,1041.931157825869,0.0,660.1079213705033
451,1044.5101437995206,0.0,660.1010346295358
452,1047.0881540596456,0.0,660.0941642775131
453,1049.6651890534986,4.912689034722803,660.0873109652772
454,1052.2412492280334,0.0,660.0804753340677
455,1054.816335029987,0.9263419844368173,660.0736580155632
456,1057.3904469058075,0.0,660.0668596319227
457,1059.9635853017053,0.9399192041727247,660.0600807958273
458,1062.5357506636187,11.946677889479133,660.0533221105209
459,1065.1069434372444,3.9534158301472644,660.0465841698527
460,1067.677164068013,0.0,660.0398675583183
461,1070.2464130010965,4.966827148899597,660.0331728511004
462,1072.8146906814227,3.9734993858886583,660.0265006141113
463,1075.3819975536471,15.980148595966057,660.019851404034
464,1077.9483340621778,0.0,660.0132257683632
465,1080.5137006511707,0.9933757545522894,660.0066242454477
466,1083.0780977645225,1.999952635469299,660.0000473645307
467,1085.641525845867,0.0,659.9934956457923
468,1088.2039853386036,2.0130303996096472,659.9869696003904
469,1090.765476685848,8.019530269497977,659.980469730502
470,1093.3260003304795,4.026003470634464,659.9739965293655
471,1095.8855567151259,6.032449518678959,659.967550481321
472,1098.44414628215,4.0388679381471775,659.9611320618528
473,1101.0017694736619,3.0452582623698845,659.9547417376301
474,1103.5584267315273,2.0516200334511723,659.9483799665488
475,1106.1141184973405,13.05795280222685,659.9420471977731
476,1108.6688452124579,0.0,659.9357438717765
477,1111.2226073179766,14.070529579616277,659.9294704203837
478,1113.7754052547439,0.07677273318802236,659.923227266812
479,1116.327239463334,10.082985174287728,659.9170148257123
480,1118.8781103841109,4.089166496788948,659.910833503211
481,1121.4280184571371,0.0,659.9046836969518
482,1123.976964122256,0.0,659.898565796136
483,1126.5249478190487,2.107519818434639,659.8924801815654
484,1129.0719699868341,3.113572774317845,659.8864272256822
485,1131.6180310646987,5.119592707388165,659.8804072926118
486,1134.163131491456,0.0,659.874420738204
487,1136.7072717056785,6.131532089926509,659.8684679100735
488,1139.2504521456967,11.13745085235746,659.8625491476425
489,1141.7926732495694,7.143335217818276,659.8566647821817
490,1144.3339354551188,9.149184863148434,659.8508151368516
491,1146.8742391999137,6.154999473255771,659.8450005267442
492,1149.4135849212653,0.0,659.8392212589243
493,1151.951973056241,8.166522367528728,659.8334776324713
494,1154.489404041664,5.172230061480036,659.82776993852
495,1157.0258783140907,13.177901539697245,659.8220984603028
496,1159.5613963098317,0.0,659.8164634731904
497,1162.095958464962,3.1891347552658544,659.8108652447341
498,1164.6295652152942,8.194695965293363,659.8053040347066
499,1167.1622169963912,1.200219904856226,659.7997800951438
500,1169.6939142435708,7.205706329614031,659.794293670386
501,1172.2246573919042,0.0,659.7888449971192
502,1174.7544468762019,0.0,659.7834343044176
503,1177.2832831310445,2.2219381862163345,659.7780618137837
504,1179.8111665907418,2.2272722608096274,659.7727277391904
505,1182.3380976893739,0.0,659.7674322871227
506,1184.8640768607577,0.0,659.7621756566186
507,1187.3891045384812,0.0,659.7569580393111
508,1189.9131811558568,6.2482203805308245,659.7517796194692
509,1192.4363071459816,3.2533594259607526,659.7466405740392
510,1194.958482941676,21.25845892731263,659.7415410726874
511,1197.4797089755323,13.263518722160256,659.7364812778397
512,1199.9999856798913,21.268538655275165,659.7314613447248
513,1202.5193134868375,12.273518578585822,659.7264814214142
514,1205.0376928282178,0.2784583511353276,659.7215416488647
515,1207.555124135638,6.283357839040605,659.7166421609594
516,1210.0716078404387,1.2882169154506755,659.7117830845493
517,1212.5871443737315,9.29303546050528,659.7069645394947
518,1215.1017341663742,16.297813361293606,659.7021866387064
519,1217.6153776489812,12.302550511812228,659.6974494881878
520,1220.1280752519158,16.30724681292429,659.6927531870757
521,1222.6398274053095,15.311902172318014,659.688097827682
522,1225.1506345390262,0.3165165044646301,659.6834834955354
523,1227.660497082712,4.321089730577569,659.6789102694224
524,1230.1694154657387,2.3256217785708486,659.6743782214292
525,1232.6773901172598,4.330112583017353,659.6698874169826
526,1235.184421466164,12.334562085107564,659.6654379148924
527,1237.69050994111,17.33897023260829,659.6610297673917
528,1240.1956559704984,9.34333697982072,659.6566630201793
529,1242.6998599825026,7.347662287539606,659.6523377124604
530,1245.2031224050334,9.351946123011203,659.6480538769888
531,1247.7054436657695,0.0,659.6438115401078
532,1250.2068241921465,6.360389278208231,659.6396107217918
533,1252.7072644113534,6.364548564312145,659.6354514356879
534,1255.206764750336,3.368666310842741,659.6313336891573
535,1257.705325635795,12.372742516683388,659.6272574833166
536,1260.2029474941858,18.376777186920435,659.6232228130796
537,1262.6996307517347,3.3807703328019443,659.619229667198
538,1265.1953758344093,6.38472197169574,659.6152780283043
539,1267.6901831679436,5.388632127048822,659.6113678729512
540,1270.1840531778303,4.392500828344851,659.6074991716551
541,1272.676986289311,5.3963281110635535,659.6036718889364
542,1275.168982927397,9.400114016639009,659.599885983361
543,1277.6600435168511,5.403858592417805,659.5961414075822
544,1280.150168482192,8.407561891618116,659.5924381083819
545,1282.639358247714,18.411223973288088,659.5887760267119
546,1285.1276132374353,16.41484490226412,659.5851550977359
547,1287.614933875177,12.418424749129713,659.5815752508703
548,1290.1013205844874,10.421963590174187,659.5780364098258
549,1292.5867737886842,10.42546150735052,659.5745384926495
550,1295.0712939108407,12.42891858823441,659.5710814117656
551,1297.554881373802,14.432334925983014,659.567665074017
552,1300.037536600162,11.43571061929299,659.564289380707
553,1302.5192600122737,9.439045772359009,659.560954227641
554,1305.0000520322562,8.44234049483316,659.5576595051668
555,1307.4799130819902,1.4455949017824423,659.5544050982176
556,1309.9588435831083,9.448809113647826,659.5511908863522
557,1312.4368439570121,14.451983256202766,659.5480167437972
558,1314.9139146248642,12.455117460511588,659.5448825394884
559,1317.39005600758,11.458211862888334,659.5417881371117
560,1319.865268525843,14.461266604854927,659.5387333951451
561,1322.3395526000938,15.464281833100017,659.5357181669
562,1324.812908650541,15.467257699437369,659.5327423005626
563,1327.2853370971502,15.47019436076448,659.5298056392355
564,1329.7568383596508,18.473091979020865,659.5269080209791
565,1332.2274128575316,12.475950721147228,659.5240492788528
566,1334.697061010047,11.478770759043186,659.5212292409568
567,1337.1657832362084,12.48155226952656,659.5184477304734
568,1339.6335799547958,18.48429543429131,659.5157045657087
569,1342.1004515843565,19.48700043986662,659.5129995601334
570,1344.5663985431822,17.489667477574812,659.5103325224252
571,1347.03142124935,21.492296743490556,659.5077032565094
572,1349.495520120681,15.49488843839913,659.5051115616009
573,1351.9586955747795,21.497442767754706,659.5025572322453
574,1354.4209480289942,23.49995994163919,659.5000400583608
575,1356.8822779004456,13.502440174720846,659.4975598252792
576,1359.342685606018,13.504883686212679,659.4951163137873
577,1361.8021715623686,15.507290699830719,659.4927093001693
578,1364.2607361859064,17.509661443753203,659.4903385562468
579,1366.718379892803,17.511996150578625,659.4880038494214
580,1369.1751030990117,15.514295057284244,659.4857049427158
581,1371.6309062202317,14.516558405185037,659.483441594815
582,1374.0857896719308,3.518786439891983,659.481213560108
583,1376.539753869361,10.520979411270218,659.4790205887298
584,1378.9927992275113,8.523137573398685,659.4768624266013
585,1381.4449261611628,7.525261184527267,659.4747388154727
586,1383.8961350848365,7.527350507036658,659.4726494929633
587,1386.3464264128404,4.529405807395619,659.4705941926044
588,1388.7958005592318,10.531427356120957,659.468572643879
589,1391.244257937848,2.533415427734667,659.4665845722653
590,1393.691798962293,10.53537030072323,659.4646296992768
591,1396.1384240459163,5.5372922574964605,659.4627077425035
592,1398.5841336018623,11.539181584344988,659.460818415655
593,1401.0289280430252,0.5410385714000085,659.4589614286
594,1403.4728077820698,9.542863512590884,659.4571364874091
595,1405.9157732314222,7.544656705604211,659.4553432943958
596,1408.3578248032875,7.546418451842214,659.4535815481578
597,1410.7989629096344,9.548149056381135,659.4518509436189
598,1413.239187962195,16.549848827930077,659.4501511720699
599,1415.6785003724717,9.5515180787894,659.4484819212106
600,1418.1169005517352,7.553157124809218,659.4468428751908
601,1420.5543889110238,8.55476628534791,659.4452337146521
602,1422.9909658611434,4.556345883230847,659.4436541167692
603,1425.426631812669,0.0,659.4421037552912
604,1427.8613871759449,15.559417699416485,659.4405823005835
605,1430.2952323610878,10.560910580331097,659.4390894196689
606,1432.7281677779736,4.562375223731124,659.4376247762689
607,1435.1601938362621,12.563811969154244,659.4361880308458
608,1437.5913109453609,14.56522115935661,659.4347788406434
609,1440.0215195144672,13.566603140271013,659.433396859729
610,1442.4508199525378,10.567958260965383,659.4320417390346
611,1444.8792126683018,3.5692868736012997,659.4307131263987
612,1447.3066980702629,16.570589333392945,659.429410666607
613,1449.7332765666813,1.571865998565272,659.4281340014347
614,1452.1589485656057,12.573117230312505,659.4268827696875
615,1454.5837144748366,8.574343392756873,659.4256566072431
616,1457.007574701965,7.575544852907228,659.4244551470928
617,1459.4305296543341,8.576721980617322,659.4232780193827
618,1461.8525797390685,18.577875148544422,659.4221248514556
619,1464.2737253630626,12.57900473210816,659.4209952678918
620,1466.693966932981,8.580111109448467,659.4198888905515
621,1469.1133048552567,9.58119466138487,659.4188053386151
622,1471.5317395361033,14.582255771374435,659.4177442286256
623,1473.9492713814936,4.583294825470375,659.4167051745296
624,1476.3659007971776,6.584312212281247,659.4156877877188
625,1478.7816281886835,7.585308322928199,659.4146916770718
626,1481.196453961308,3.586283551005181,659.4137164489948
627,1483.6103785201108,10.587238292535858,659.4127617074641
628,1486.0234022699485,1.5881729459334792,659.4118270540665
629,1488.4355256154215,7.589087911958359,659.4109120880416
630,1490.846748960911,0.0,659.4100164063227
631,1493.2570727105883,8.590860396421476,659.4091396035785
632,1495.6664972683816,0.0,659.4082812722545
633,1498.075023037993,0.0,659.4074410026146
634,1500.482650422907,3.5933816172176876,659.4066183827823
635,1502.8893798263769,0.0,659.4058129987824
636,1505.2952116514223,0.0,659.4050244345822
637,1507.7001463008505,1.5957477278668648,659.4042522721331
638,1510.104184177237,0.5965039085878061,659.4034960914122
639,1512.5073256829262,1.5972445295362832,659.4027554704637
640,1514.9095712200426,5.597970014559905,659.4020299854401
641,1517.3109211904894,1.5986807893564219,659.4013192106436
642,1519.7113759959393,2.599377281431657,659.4006227185683
643,1522.1109360378355,5.600059920059152,659.3999400799408
644,1524.5096017174,4.600729136237874,659.3992708637621
645,1526.9073734356405,6.601385362651172,659.3986146373488
646,1529.3042515933255,0.0,659.397970966375
647,1531.7002365910093,0.0,659.3973394149134
648,1534.0953288290075,2.6032804545234285,659.3967195454766
649,1536.4895287074296,3.603889080941144,659.3961109190589
650,1538.8828366261491,30.604486904822352,659.3955130951776
651,1541.2752529848244,8.605074368085184,659.3949256319148
652,1543.6667781828844,6.6056519140418,659.3943480859582
653,1546.0574126195302,5.606219987357008,659.393780012643
654,1548.4471566937543,6.606779034006763,659.3932209659932
655,1550.8360108043073,6.607329501236563,659.3926704987634
656,1553.223975349733,0.0,659.3921281624798
657,1555.6110507283413,1.6084064925183839,659.3915935074816
658,1557.9972373382338,10.60893391703678,659.3910660829632
659,1560.3825355772651,5.609454562985434,659.3905454370146
660,1562.7669458430946,0.609968883336137,659.3900311166639
661,1565.150468533145,10.610477332082155,659.3895226679178
662,1567.5331040446097,7.6109803641960525,659.389019635804
663,1569.9148527744821,0.0,659.3885215644118
664,1572.2957151195153,5.61197200306583,659.3880279969342
665,1574.6756914762475,3.612461524291234,659.3875384757088
666,1577.054782240996,1.6129474577402334,659.3870525422598
667,1579.4329878098565,0.0,659.3865697373391
668,1581.8103085787016,2.6139103990323065,659.3860896009677
669,1584.1867449431804,0.6143883275221924,659.3856116724778
670,1586.5622972987321,5.614864509446761,659.3851354905532
671,1588.9369660405657,3.6153394067282534,659.3846605932717
672,1591.3107515636689,7.615813481853706,659.3841865181463
673,1593.6836542628191,3.6162871978340263,659.383712802166
674,1596.0556745325664,6.616761018161924,659.3832389818381
675,1598.426812767235,0.0,659.3827645932295
676,1600.7970693609434,7.617710827992028,659.382289172008
677,1603.1664447075755,5.618187746516583,659.3818122534834
678,1605.5349392008052,19.618666627350194,659.3813333726498
679,1607.9025532340918,14.61914793577364,659.3808520642264
680,1610.2692872006644,10.619632137300982,659.380367862699
681,1612.6351414935311,5.620119697638302,659.3798803023617
682,1615.0001165054985,3.6206110826416307,659.3793889173584
683,1617.3642126291256,0.0,659.3788932417239
684,1619.727430256792,6.621607190574537,659.3783928094255
685,1622.0897697806208,0.0,659.3778871544049
686,1624.4512315925363,0.0,659.3773758106189
687,1626.8118160842428,4.623141687918519,659.3768583120815
688,1629.171523647229,12.623665807094994,659.376334192905
689,1631.5303546727569,6.624197012658669,659.3758029873413
690,1633.8883095518788,6.624735770175789,659.3752642298242
691,1636.245388675424,8.625282544990341,659.3747174550097
692,1638.601592434013,7.625837802181877,659.3741621978181
693,1640.956921218036,3.626402006524131,659.3735979934759
694,1643.3113754176745,9.626975622444093,659.3730243775559
695,1645.6649554228939,3.627559113979828,659.3724408860202
696,1648.0176616234387,0.0,659.3718470552607
697,1650.369494408839,1.62875757785946,659.3712424221405
698,1652.7204541684102,12.629373475963689,659.3706265240363
699,1655.070541291253,0.6300011011211382,659.3699988988789
700,1657.4197561662402,6.630640914805554,659.3693590851944
701,1659.7680991820387,3.6312933778525576,659.3687066221474
702,1662.1155707271032,2.63195895041963,659.3680410495804
703,1664.4621711896602,0.6326380919437042,659.3673619080563
704,1666.8079009577286,9.633331261100011,659.3666687389
705,1669.152760419119,0.0,659.3659610842393
706,1671.496749961409,0.6347615129534461,659.3652384870466
707,1673.8398699719785,7.635499508819407,659.3645004911806
708,1676.1821208379738,0.0,659.3637466414273
709,1678.523502946349,0.6370235164581572,659.3629764835418
710,1680.864016683826,6.637810435710435,659.3621895642896
711,1683.203662436923,0.0,659.3613854314882
712,1685.54244059193,5.639436365951724,659.3605636340483
713,1687.8803515349362,6.64027627798464,659.3597237220154
714,1690.2173956518134,3.6411347533886556,659.3588652466113
715,1692.5535733282206,4.6420122397240675,659.3579877602759
716,1694.8888849495966,2.6429091832923177,659.3570908167077
717,1697.2233309011774,4.643826029093816,659.3561739709062
718,1699.5569115679657,9.644763220787127,659.3552367792129
719,1701.8896273347773,10.645721200647358,659.3542787993526
720,1704.2214785861916,1.6467004095242146,659.3532995904758
721,1706.5524657065976,6.6477012868012935,659.3522987131987
722,1708.8825890801472,6.648724270354251,659.3512757296457
723,1711.2118490907958,2.649769796508963,659.350230203491
724,1713.5402461222834,19.650838300001055,659.349161699999
725,1715.8677805581383,12.651930213933497,659.3480697860665
726,1718.194452781669,0.0,659.3469540302646
727,1720.520263175985,2.6541859971212034,659.3458140028788
728,1722.8452121239636,0.0,659.344649275952
729,1725.1693000082932,6.656540576675297,659.3434594233247
730,1727.4925272114267,3.657755979322701,659.3422440206773
731,1729.8148941156444,12.658997354428948,659.341002645571
732,1732.1364011029634,5.660265122510168,659.3397348774898
733,1734.4570485552306,0.0,659.3384402978811
734,1736.7768368540658,0.6628815098015366,659.3371184901985
735,1739.095766380874,0.0,659.3357690399415
736,1741.413837516861,4.665608465301148,659.3343915346989
737,1743.731050643008,7.667014435811666,659.3329855641883
738,1746.0474061400987,8.668449279700553,659.3315507202994
739,1748.3629043887004,0.0,659.3300865971344
740,1750.677545769169,10.67140720895111,659.3285927910489
741,1752.9913306616536,0.0,659.3270689006949
742,1755.3042594460935,12.6744854729385,659.3255145270615
743,1757.6163325022198,0.0,659.3239292735155
744,1759.927550209542,3.6776872541552166,659.3223127458448
745,1762.2379129473816,5.679335447702215,659.3206645522978
746,1764.547421094821,6.681015696373947,659.318984303626
747,1766.856075030767,0.0,659.3172716131255
748,1769.1638751338926,0.0,659.3155260966781
749,1771.4708217826822,6.686252627207182,659.3137473727928
750,1773.776915355383,2.6880649373525785,659.3119350626474
751,1776.082156230061,6.689911209870502,659.3100887901295
752,1778.3865447845585,1.6917918181211462,659.3082081818789
753,1780.690081396518,5.693707132671989,659.306292867328
754,1782.9927664433724,4.695657521255953,659.304342478744
755,1785.2946003023394,0.0,659.3023566512702
756,1787.5955833504347,10.699664977033194,659.3003350229668
757,1789.8957159644667,4.7017227651463145,659.2982772348537
758,1792.1949985210306,10.703817069049592,659.2961829309504
759,1794.4934313965268,3.705948241681085,659.2940517583189
760,1796.7910149671302,1.7081166328961217,659.2918833671039
761,1799.087749608827,3.710322589424891,659.2896774105751
762,1801.383635697386,2.7125664548314035,659.2874335451686
763,1803.6786736083643,0.0,659.2851514305278
764,1805.9728637171302,7.7171692704548605,659.2828307295451
765,1808.2662063988284,0.7195288915959281,659.2804711084041
766,1810.5587020283997,3.721927763380336,659.2780722366197
767,1812.8503509805878,3.7243662129192217,659.2756337870808
768,1815.141153629922,5.72684456390914,659.2731554360909
769,1817.4311103507246,1.7293631365899955,659.27063686341
770,1819.7202215171305,0.0,659.268077752296
771,1822.0084875030332,0.0,659.265477789546
772,1824.295908682157,0.0,659.2628366655381
773,1826.5824854279965,9.739845925727764,659.2601540742722
774,1828.8682181138538,8.742570286587807,659.2574297134122
775,1831.1531071128197,12.74533671567292,659.2546632843271
776,1833.4371527977821,2.7481455078677754,659.2518544921322
777,1835.7203555414287,8.750996954268544,659.2490030457315
778,1838.0027157162328,4.753891342142424,659.2461086578576
779,1840.2842336944707,1.75682895488535,659.2431710451147
780,1842.5649098482143,6.7598100719807235,659.2401899280193
781,1844.8447445493211,16.762834968958487,659.2371650310415
782,1847.1237381694623,7.76590391735283,659.2340960826472
783,1849.4018910800853,1.769017184661493,659.2309828153385
784,1851.6792036524491,5.7721750343037,659.2278249656963
785,1853.9556762576008,7.7753777255790055,659.224622274421
786,1856.231309266391,0.7786255136262525,659.2213744863737
787,1858.5061030494567,1.7819186493810548,659.218081350619
788,1860.7800579772395,8.785257379535324,659.2147426204647
789,1863.0531744199707,3.788641946495318,659.2113580535047
790,1865.3254527476945,2.7920725883404884,659.2079274116595
791,1867.5968933302327,3.795549538781529,659.2044504612185
792,1869.8674965372113,6.799073027119562,659.2009269728804
793,1872.1372627380638,5.802643278204187,659.1973567217958
794,1874.406192302004,5.806260512392328,659.1937394876077
795,1876.67428559806,8.809924945506282,659.1900750544937
796,1878.9415429950402,0.0,659.1863632112068
797,1881.2079648615672,0.0,659.1826037511172
798,1883.4735515660545,10.821203527745865,659.1787964722541
799,1885.7383034767174,4.825058822653318,659.1749411773467
800,1888.0022209615618,5.828962326134842,659.1710376738652
801,1890.2653043883947,4.832914225936747,659.1670857740633
802,1892.5275541248343,8.836914704980813,659.1630852950192
803,1894.7889705382756,12.840963941323139,659.1590360586769
804,1897.0495539959381,6.8450621081124154,659.1549378918876
805,1899.3093048648088,5.849209373548433,659.1507906264516
806,1901.5682235117101,7.853405900840812,659.1465940991592
807,1903.8263103032284,5.857651848167279,659.1423481518327
808,1906.0835656057825,1.8619473686321726,659.1380526313678
809,1908.3399897855663,13.866292610225742,659.1337073897743
810,1910.5955832085822,7.870687715781742,659.1293122842183
811,1912.8503462406406,0.0,659.1248671770637
812,1915.1042792473318,2.87962806408666,659.1203719359133
813,1917.3573825940668,0.8841735663496593,659.1158264336503
814,1919.6096566460462,8.88876945151992,659.1112305484801
815,1921.8611017682708,13.893415836029021,659.106584163971
816,1924.111718325553,4.898112830903301,659.1018871690967
817,1926.3615066824887,0.0,659.097139458277
818,1928.6104672034842,0.0,659.0923409314192
819,1930.8586002527513,3.9125085060396714,659.0874914939603
820,1933.1059061943001,8.917408943092369,659.0825910569076
821,1935.3523853919328,0.9223604631190483,659.077639536881
822,1937.5980382092578,0.0,659.0726368561532
823,1939.8428650096998,5.932417057307134,659.0675829426929
824,1942.0868661564602,0.0,659.0624777302045
825,1944.3300420125604,4.942678841829093,659.0573211581709
826,1946.5723929408236,1.9478868281058794,659.0521131718941
827,1948.8139193038576,11.953146277462679,659.0468537225373
828,1951.0546214640892,3.9584572328342347,659.0415427671658
829,1953.2944997837503,6.963819731211402,659.0361802687886
830,1955.5335546248627,3.9692338035998773,659.0307661964001
831,1957.7717863492485,10.974699474978479,659.0253005250215
832,1960.0091953185517,3.980216764257875,659.0197832357421
833,1962.2457818942044,4.985785684239318,659.0142143157607
834,1964.4815464374453,4.991406241572918,659.0085937584271
835,1966.7164893093118,0.0,659.0029215632841
836,1968.9506108706519,7.002802263892136,658.9971977361079
837,1971.1839114821194,8.008577711049497,658.9914222889505
838,1973.4163915041615,7.014404759819286,658.9855952401807
839,1975.6480512970304,9.020283385474158,658.9797166145258
840,1977.8788912207897,7.026213556887342,658.9737864431127
841,1980.1089116353055,0.032195236490338175,658.9678047635097
842,1982.3381129002466,0.03822838023233999,658.9617716197677
843,1984.5664953750784,13.044312937538052,658.955687062462
844,1986.7940594190857,9.050448851266765,658.9495511487332
845,1989.0208053913454,18.05663605767029,658.9433639423297
846,1991.2467336507439,0.0,658.9371255136475
847,1993.4718445559695,3.069164060226626,658.9308359397734
848,1995.6961384655228,3.0755046954748195,658.9244953045252
849,1997.9196157377041,4.081896301506163,658.9181036984938
850,2000.1422767306128,0.0,658.9116612190846
851,2002.3641218021673,6.094832029441477,658.9051679705585
852,2004.5851513100852,4.1013759359257165,658.8986240640743
853,2006.8053656118846,5.107970382271333,658.8920296177287
854,2009.0247650648962,0.0,658.8853847565994
855,2011.2433500262505,0.0,658.8786896127851
856,2013.4611208528943,4.128055674551661,658.8719443254483
857,2015.678077901572,21.134850959144273,658.8651490408557
858,2017.8942215288314,8.14169608757993,658.8583039124201
859,2020.109552091035,13.148590899258465,658.8514091007415
860,2022.32406994435,0.1555352263505938,658.8444647736494
861,2024.5377754447477,4.162528893756644,658.8374711062434
862,2026.7506689480049,1.1695717190651749,658.8304282809348
863,2028.962750809714,1.1766635125112543,658.8233364874887
864,2031.1740213852588,5.18380407693553,658.8161959230645
865,2033.3844810298458,2.19099320774194,658.8090067922581
866,2035.5941300984884,3.1982306928570097,658.801769307143
867,2037.8029689459872,9.205516312688133,658.7944836873119
868,2040.0109979269741,0.21284984008195806,658.787150159918
869,2042.2182173958813,1.2202310402833518,658.7797689597166
870,2044.4246277069458,6.2276596708932175,658.7723403291068
871,2046.6302292142095,1.2351354818279106,658.7648645181721
872,2048.835022271532,4.242658215277061,658.7573417847229
873,2051.0390072325736,0.0,658.7497723943376
874,2053.2421844508103,5.25784337959692,658.7421566204031
875,2055.444554279512,8.265505255841845,658.7344947441582
876,2057.6461170717816,21.273212945266664,658.7267870547333
877,2059.846873180508,5.280966150807444,658.7190338491926
878,2062.046822958394,8.28876456742455,658.7112354325754
879,2064.245966757958,0.0,658.7033921179382
880,2066.444304931526,2.304495773605481,658.6955042263945
881,2068.6418378312324,2.312427912841372,658.6875720871586
882,2070.838565809022,0.0,658.6795960375849
883,2073.0344892166377,5.328423576789419,658.6715764232106
884,2075.2296084056525,1.336486402203377,658.6635135977966
885,2077.423923727438,0.0,658.6554079233695
886,2079.6174355331677,1.352740229737492,658.6472597702625
887,2081.8101441738436,10.360930482842832,658.6390695171572
888,2084.00205000027,3.369162448875386,658.6308375511246
889,2086.1931533630454,8.377435732332515,658.6225642676675
890,2088.38345461261,5.385749929239182,658.6142500707608
891,2090.572954099189,1.3941046271061168,658.6058953728939
892,2092.7616521728232,9.402499404888772,658.5975005951112
893,2094.9495491833836,11.410933832945148,658.5890661670549
894,2097.136645480514,1.4194074729948625,658.5805925270051
895,2099.3229414137154,2.4279198780777733,658.5720801219222
896,2101.508437332266,0.0,658.5635294074876
897,2103.6931335852637,4.445059151854025,658.554940848146
898,2105.8770305216262,4.453685082854236,658.5463149171458
899,2108.0601284900767,4.462347903418049,658.537652096582
900,2110.2424278391427,4.471047122564073,658.5289528774359
901,2112.4239289171824,7.479782240381724,658.5202177596183
902,2114.604632072344,3.488552747990525,658.5114472520095
903,2116.784537652611,0.0,658.5026418725016
904,2118.963646005759,11.506197851959769,658.4938021480402
905,2121.1419574793913,11.515071385335318,658.4849286146647
906,2123.319472420906,2.523978182449355,658.4760218175506
907,2125.4961911775276,7.532917688948601,658.4670823110514
908,2127.6721140963023,3.5418893412612533,658.4581106587387
909,2129.8472415240585,12.550892566555035,658.449107433445
910,2132.0215738074735,16.559926782695698,658.4400732173043
911,2134.1951112930083,1.568991398206208,658.4310086017938
912,2136.3678543269534,12.578085812224572,658.4219141877754
913,2138.53980325541,4.58720941446245,658.4127905855376
914,2140.710958424294,7.596361585164004,658.403638414836
915,2142.881320179326,0.6055416950646304,658.3944583049354
916,2145.0508888660556,10.614749105348778,658.3852508946512
917,2147.219664829826,10.62398316760914,658.3760168323909
918,2149.387648415816,4.633243223804925,658.3667567761951
919,2151.554839969008,7.642528606220367,658.3574713937796
920,2153.721239834198,9.651838637423566,658.3481613625764
921,2155.8868483559977,8.661172630224542,658.3388273697755
922,2158.051665878827,4.670529887634302,658.3294701123657
923,2160.2156927469405,0.0,658.3200902971771
924,2162.3789293043856,17.68931135907826,658.3106886409217
925,2164.541375895034,2.6987341297649436,658.301265870235
926,2166.7030328625783,10.708177278281937,658.2918227217181
927,2168.863900550509,0.0,658.282359941978
928,2171.0239793021465,4.7271217123296765,658.2728782876703
929,2173.183269460631,0.0,658.2633785255395
930,2175.341771368895,2.7461385675387646,658.2538614324612
931,2177.49948536972,11.755672204516031,658.244327795484
932,2179.656411805671,0.0,658.2347784118693
933,2181.8125510191467,0.7747859108653756,658.2252140891346
934,2183.967903352361,0.7843643549063017,658.2156356450937
935,2186.1224691473385,1.7939560921012117,658.2060439078988
936,2188.276248745926,11.80356028391816,658.1964397160818
937,2190.429242489777,2.8131760814044355,658.1868239185956
938,2192.5814507203745,0.0,658.1771973748555
939,2194.73287377901,9.832439045218848,658.1675609547812
940,2196.883512006792,7.842084461162017,658.157915538838
941,2199.0333657446536,2.8517379819226107,658.1482620180774
942,2201.1824353333286,3.861398705819852,658.1386012941801
943,2203.3307211133847,3.871065720503907,658.1289342794961
944,2205.4782234252,13.880738102912915,658.1192618970871
945,2207.62494260897,0.0,658.1095850807675
946,2209.7708790047077,7.900095224854226,658.0999047751458
947,2211.9160329522488,3.9097780643339775,658.090221935666
948,2214.060404791241,7.919462471350357,658.0805375286496
949,2216.2039948611396,4.9291474686632455,658.0708525313368
950,2218.3468035012493,2.9388320680726565,658.0611679319273
951,2220.488831050657,0.9485152703770154,658.051484729623
952,2222.630077848295,1.9581960653318902,658.0418039346681
953,2224.7705442328925,0.0,658.0321265683916
954,2226.9102305430206,6.977546336751743,658.0224536632483
955,2229.049137117045,5.987213737139655,658.0127862628603
956,2231.1872642931667,5.996874577940957,658.003125422059
957,2233.324612409401,1.0065277930749517,657.993472206925
958,2235.4611818035833,1.0161723051685385,657.9838276948315
959,2237.596972813364,7.025807025515405,657.9741929744846
960,2239.7319857762172,11.035430854034985,657.964569145965
961,2241.866221029433,4.045042679230619,657.9549573207694
962,2243.9996789101183,2.0546413781480624,657.9453586218519
963,2246.1323597552105,2.0642258163335327,657.9357741836665
964,2248.264263901459,16.073794847793692,657.9262051522063
965,2250.395391685438,15.083347314953016,657.916652685047
966,2252.525743443525,5.092882048611955,657.907117951388
967,2254.6553195119404,10.10239786790737,657.8976021320926
968,2256.784120226714,0.0,657.8881064197317
969,2258.9121459237012,17.12136798137749,657.8786320186225
970,2261.0393969385664,8.130819855127811,657.8691801448722
971,2263.165873606801,15.140247973581381,657.8597520264186
972,2265.291576263721,10.149651096928551,657.8503489030714
973,2267.4165052444673,8.159027973445745,657.8409720265543
974,2269.5406608839835,5.168377339455105,657.8316226605449
975,2271.664043517051,8.177697919281286,657.8223020807187
976,2273.786653478264,6.18698842521178,657.8130115747882
977,2275.9084911020464,8.196247557454171,657.8037524425458
978,2278.0295567226335,8.205474004095777,657.7945259959042
979,2280.1498506740863,0.21466644106112653,657.7853335589389
980,2282.2693732902862,0.2238235320712647,657.7761764679287
981,2284.3881249049487,9.232943928601685,657.7670560713983
982,2286.50610585159,0.0,657.7579737301584
983,2288.62331646356,19.25106918265203,657.748930817348
984,2290.7397570740377,4.260071281524347,657.7399287184757
985,2292.855428016006,0.26903116853861775,657.7309688314614
986,2294.97032962229,0.2779474333226517,657.7220525666773
987,2297.0844622255186,0.28681865301064136,657.7131813469894
988,2299.1978261581644,1.295643392200759,657.7043566077992
989,2301.3104217525,17.304420202914685,657.6955797970853
990,2303.422249340637,6.313147624555654,657.6868523754443
991,2305.5333092545097,2.3218241838670792,657.6781758161329
992,2307.6436018258587,10.330448394891164,657.6695516051088
993,2309.7531273862755,10.339018758927637,657.6609812410724
994,2311.861886267143,15.347533764491686,657.6524662355083
995,2313.969878799697,7.355991887273149,657.6440081127269
996,2316.077105314978,5.364391590094783,657.6356084099052
997,2318.1835661438554,11.372731322871005,657.627268677129
998,2320.289261617029,5.381009522565705,657.6189904774343
999,2322.3941920650086,0.0,657.6107753868482
1000,2324.4983578181423,9.39737500556896,657.602624994431
1001,2326.6017592065973,3.4054590976829786,657.594540902317
1002,2328.7043965603602,1.413475274243865,657.5865247257561
1003,2330.8062702092443,6.421421906843534,657.5785780931565
1004,2332.9073804828886,8.429297353875995,657.570702646124
1005,2335.007727710763,15.437099960495061,657.5629000395049
1006,2337.1073122221565,4.444828058572284,657.5551719414277
1007,2339.2061343461764,0.4524799666568242,657.5475200333432
1008,2341.304194411764,7.460053989932817,657.5399460100672
1009,2343.4014927476874,0.0,657.5324515798212
1010,2345.49802968253,10.474961535725242,657.5250384642748
1011,2347.5938055447136,6.482291601414545,657.5177083985855
1012,2349.6888206624653,0.0,657.5104631314418
1013,2351.783075363865,15.496695574895853,657.5033044251041
1014,2353.87656997679,0.0,657.4962340554463
1015,2355.9693048289755,4.510746188003964,657.489253811996
1016,2358.0612802479463,3.5176345020220197,657.482365497978
1017,2360.1524965610806,7.524429069645521,657.4755709303545
1018,2362.2429540955764,0.0,657.4688719398669
1019,2364.3326531784483,16.537729628923444,657.4622703710766
1020,2366.4215941365483,11.54423191759247,657.4557680824075
1021,2368.509777296551,0.0,657.4493669461871
1022,2370.597202984953,5.556931151312369,657.4430688486876
1023,2372.6838715280865,3.5631243098321193,657.4368756901679
