pixel_index,raman_shift_cm-1,intensity
0,-224.93893402798304,0.055664258033782506
1,-221.87119738811433,0.05929015467430159
2,-218.80466707970393,0.060487013751536006
3,-215.7393425174822,0.059971302612153984
4,-212.6752231165416,0.05845948860282379
5,-209.61230829233662,0.05666803907021364
6,-206.5505974606905,0.05640438455531332
7,-203.49009003776476,0.05822530477291702
8,-200.43078544011544,0.059669059495064805
9,-197.3726830846326,0.060102543750582126
10,-194.31578238858145,0.06188856193957941
11,-191.26008276958498,0.062011413302285455
12,-188.2055836456304,0.05842482814477509
13,-185.15228443504978,0.05647338863365071
14,-182.10018455655032,0.05457716949793508
15,-179.04928342920343,0.05219068211262799
16,-175.99958047242103,0.051524109209932924
17,-172.95107510598802,0.051107752436635054
18,-169.90376675004703,0.049211891139986016
19,-166.85765482508333,0.0469953135143753
20,-163.812738751966,0.047923092708819386
21,-160.76901795190238,0.04830968806851712
22,-157.72649184647062,0.04877688523242729
23,-154.68515985759146,0.04912683428393559
24,-151.64502140755644,0.05085183041354487
25,-148.60607591900407,0.051758635066929966
26,-145.5683228149306,0.052138353407431844
27,-142.53176151870528,0.052686255748723446
28,-139.4963914540248,0.051740453559867366
29,-136.46221204496314,0.05132176576735355
30,-133.4292227159412,0.05074621391525472
31,-130.39742289173333,0.04883521189295196
32,-127.36681199747605,0.04798548052330119
33,-124.33738945865497,0.0471484448979576
34,-121.3091547011113,0.048327966070585815
35,-118.28210715103971,0.04892946689692848
36,-115.25624623498618,0.050100430611006566
37,-112.23157137985659,0.050554870703410026
38,-109.20808201290164,0.05017972745914163
39,-106.18577756173632,0.04941590178062933
40,-103.16465745431385,0.048362308712374985
41,-100.14472111894963,0.04646780751723191
42,-97.12596798430815,0.0472059507936509
43,-94.10839747940949,0.04901942451690525
44,-91.09200903361639,0.05111119733851629
45,-88.07680207665582,0.052215067221035964
46,-85.06277603858659,0.053902467040925925
47,-82.04993034984474,0.05339228214937374
48,-79.0382644411873,0.05203549175682515
49,-76.02777774374418,0.050312565584957045
50,-73.01846968898583,0.04966209910175954
51,-70.01033970873175,0.046392899616655894
52,-67.00338723515274,0.04479532917953599
53,-63.997611700768694,0.044394558196850786
54,-60.99301253844865,0.0443822502053966
55,-57.98958918139989,0.04370700441868702
56,-54.98734106319835,0.04313192365762108
57,-51.986267617753875,0.04302159829311762
58,-48.98636827932977,0.0369404697583951
59,-45.98764248252112,0.028607981670192628
60,-42.99008966229812,0.021432681412001185
61,-39.99370925394973,0.04134331044199686
62,-36.998500693131376,0.14263082752481895
63,-34.004463415841094,0.23060753320992106
64,-31.011596858408677,0.28839458127019646
65,-28.01990045753471,0.31210858888487847
66,-25.029373650236383,0.30330685768516363
67,-22.040015873901666,0.26324709838707383
68,-19.05182656624163,0.19450974396755327
69,-16.064805165335976,0.10961260220945677
70,-13.078951109589658,0.030866712893185565
71,-10.094263837754584,0.0
72,-7.11074278894044,0.036076050667755696
73,-4.128387402575675,0.039913301618850164
74,-1.1471971184616978,0.04220285990241565
75,1.8328286232878293,0.040525381614371844
76,4.8116903821797745,0.04180254211596808
77,7.789388717421765,0.04328149065222157
78,10.76592418784413,0.04655627137414519
79,13.741297351951928,0.04919340880758088
80,16.71550876789895,0.050319561423215184
81,19.688558993507208,0.04861765396777391
82,22.66044858625395,0.04804454219449416
83,25.63117810327814,0.04463770640634709
84,28.600748101367465,0.04406675811761326
85,31.569159136973518,0.04116798760027501
86,34.53641176621612,0.04104291416239021
87,37.502506544872475,0.0395594384091818
88,40.46744402837286,0.03872424880218168
89,43.431224771807095,0.03693481095454691
90,46.39384932994409,0.03728877658193332
91,49.35531825719279,0.03781901482036082
92,52.31563210763473,0.037666316018282756
93,55.27479143500446,0.03798099087102239
94,58.232796792709145,0.039348084177789795
95,61.189648733817656,0.040829249115677424
96,64.14534781104976,0.04400157220250024
97,67.09989457679127,0.044877097041443235
98,70.05328958310928,0.045117700075177194
99,73.00553338170872,0.04619306735401568
100,75.9566265239671,0.05192439115350696
101,78.90656956093456,0.055511517224517505
102,81.8553630433142,0.0558945667036743
103,84.80300752147525,0.05756739836137315
104,87.74950354546165,0.05778846727424635
105,90.69485166496825,0.05621578234677607
106,93.63905242936247,0.05632855008755638
107,96.58210638767342,0.05554915274415312
108,99.52401408860065,0.05542924009186921
109,102.46477608050544,0.057090859829014504
110,105.40439291141078,0.0595165281839147
111,108.34286512901876,0.05976968362173977
112,111.28019328069315,0.0585116821751411
113,114.21637791345519,0.056624333601928985
114,117.15141957400512,0.05360454618636179
115,120.08531880870494,0.04999779650330742
116,123.01807616358273,0.04755357754484349
117,125.94969218433695,0.048193788425299464
118,128.88016741634516,0.0487048874391148
119,131.80950240462278,0.0492451440819724
120,134.73769769388812,0.04921819787106433
121,137.6647538285083,0.04975457571203085
122,140.5906713525338,0.049947020904843833
123,143.51545080965727,0.049812486538519204
124,146.4390927432809,0.05061998972180048
125,149.36159769644246,0.05026956272777551
126,152.2829662118654,0.04800657072517443
127,155.2031988319414,0.048729038050847794
128,158.1222960987303,0.047677420901210826
129,161.0402585539754,0.04740671643091549
130,163.95708673906444,0.0443953132258136
131,166.87278119509233,0.043634504569787416
132,169.78734246279186,0.04488404772082048
133,172.70077108258582,0.04509998101600883
134,175.61306759457167,0.048770511127808745
135,178.52423253850645,0.04947421258622799
136,181.4342664538328,0.049398659824697294
137,184.3431698796594,0.04973938561329371
138,187.25094335476314,0.049894377129793846
139,190.15758741760874,0.04999929358854026
140,193.0631026063204,0.04830180606510578
141,195.96748945870795,0.04800979405682071
142,198.87074851224943,0.04874735117709787
143,201.77288030408897,0.050353372104385806
144,204.67388537106277,0.054633876918722
145,207.57376424967524,0.0560662131290711
146,210.47251747609903,0.05922620383359419
147,213.37014558619245,0.060640285517654505
148,216.2666491154798,0.06163117597278772
149,219.1620285991688,0.06288849518282921
150,222.0562845721397,0.06110260679989209
151,224.94941756895196,0.05923832614996184
152,227.84142812383533,0.05574399391498666
153,230.7323167707073,0.056204432971139355
154,233.62208404315803,0.05549550345136282
155,236.5107304744523,0.053789607129344906
156,239.39825659752756,0.054385066305779765
157,242.28466294501328,0.05800541705528195
158,245.16995004920938,0.0595943514881473
159,248.05411844208183,0.061350749750857504
160,250.93716865530598,0.06203102258414991
161,253.81910122020818,0.060937062353505
162,256.69991666780675,0.058636957090774176
163,259.579615528797,0.05826510209871078
164,262.4581983335511,0.057249533284508484
165,265.33566561212467,0.05575982625985667
166,268.2120178942567,0.05764826408942898
167,271.08725570935445,0.06360446705986637
168,273.9613795865194,0.06572601356590434
169,276.83439005452567,0.06807150878074496
170,279.7062876418307,0.07292744925042818
171,282.5770728765798,0.07353042423781891
172,285.44674628658413,0.07265023267910763
173,288.3153083993516,0.07151632390838679
174,291.18275974207313,0.07035762660646984
175,294.0491008416061,0.06777792996475318
176,296.9143322245041,0.06547868040523963
177,299.7784544170041,0.06491543369311745
178,302.641467945018,0.06393452274231376
179,305.5033733341431,0.061532596619994544
180,308.36417110966875,0.06217525213734325
181,311.2238617965506,0.05973217654444341
182,314.0824459194535,0.05841742335244443
183,316.93992400270207,0.05478286661032428
184,319.7962965703193,0.05601020591515089
185,322.6515641460096,0.05802952284133046
186,325.5057272531607,0.05888499350140315
187,328.35878641485243,0.062214100253005736
188,331.2107421538394,0.06253658626024518
189,334.06159499257046,0.0608981896920558
190,336.91134545317783,0.05993587228397555
191,339.759994057475,0.05679786375239274
192,342.60754132697195,0.055217741739503515
193,345.45398778286193,0.05011658828792708
194,348.29933394601954,0.053924597173934476
195,351.1435803370115,0.05480227012772448
196,353.9867274760856,0.05462911265282267
197,356.8287758831906,0.05473632233075182
198,359.6697260779521,0.05230887127184844
199,362.5095785796833,0.04968413041743505
200,365.3483339073919,0.047105160509133354
201,368.18599257977536,0.04582119563275846
202,371.0225551152081,0.04471300570557148
203,373.85802203176956,0.04724001457193666
204,376.6923938472184,0.050248034885741914
205,379.525671079003,0.05269132117924267
206,382.3578542442598,0.05501925634522448
207,385.1889438598278,0.05575931918062858
208,388.01894044223184,0.05441689853061118
209,390.8478445076649,0.05367983035711878
210,393.6756565720402,0.05233844215313467
211,396.50237715095454,0.052034827968076465
212,399.32800675968355,0.051468872778730426
213,402.1525459132081,0.05166935714685164
214,404.9759951261882,0.049733637210200646
215,407.79835491299525,0.05183158705772156
216,410.61962578767134,0.05014840205553277
217,413.4398082639612,0.04888400460859009
218,416.25890285530187,0.04822210281047097
219,419.0769100748202,0.049465631281368015
220,421.89383043535025,0.0500624111158134
221,424.70966444938796,0.0504279094770299
222,427.5244126291538,0.051687002266363094
223,430.3380754865538,0.05132425290711144
224,433.15065353318175,0.050261041600639544
225,435.9621472803214,0.04851149676935856
226,438.77255723896593,0.04466245041486829
227,441.5818839197984,0.044267636956085016
228,444.39012783318526,0.044845535844375894
229,447.1972894892046,0.04442901852831933
230,450.00336939761365,0.04368226930545102
231,452.8083680678855,0.0430179291555906
232,455.6122860091636,0.045598657749605954
233,458.4151237303118,0.04684297173689294
234,461.21688173987724,0.04583796356975057
235,464.017560546108,0.04434160716332501
236,466.8171606569418,0.04455843651994331
237,469.615682580026,0.0454229223377744
238,472.41312682268915,0.0464065379485077
239,475.2094938919715,0.04537822782894107
240,478.004784294603,0.04377093806430097
241,480.79899853701886,0.042884777263929336
242,483.59213712534205,0.04392941150487811
243,486.38420056540485,0.06075667906787423
244,489.1751893627253,0.08840636859557487
245,491.96510402253716,0.12823511534508816
246,494.7539450497599,0.19352949172416511
247,497.5417129490073,0.337090983944515
248,500.32840822461986,0.5870359157225108
249,503.1140313806041,0.8195371328289875
250,505.8985829206868,0.9623819117498078
251,508.68206334829136,1.0
252,511.4644731665438,0.933903481060517
253,514.2458128782625,0.7879720106837129
254,517.0260829859643,0.5719649020782774
255,519.8052839918906,0.3289554151687454
256,522.5834163979579,0.12048969999641555
257,525.360480705798,0.024342691036657437
258,528.1364774167396,0.040002819876685504
259,530.9114070318208,0.0555813485498095
260,533.6852700517629,0.0576899511260086
261,536.4580669770143,0.05848184205928342
262,539.229798307702,0.05705541950953751
263,542.0004645436848,0.05528171096331837
264,544.7700661844975,0.050424826713099356
265,547.5386037293874,0.051803172702686605
266,550.3060776773151,0.05187609897352338
267,553.072488526929,0.05184196662668388
268,555.8378367765912,0.053475708009841694
269,558.6021229243669,0.05411491805094245
270,561.3653474680265,0.05283821070942332
271,564.1275109050407,0.04988582141327722
272,566.8886137325879,0.045076862496943086
273,569.6486564475581,0.04218730771316234
274,572.4076395465373,0.040420129575179674
275,575.1655635258105,0.04335063246202269
276,577.9224288813938,0.044500866466964564
277,580.6782361089755,0.043647549046038576
278,583.4329857039885,0.04629354138745477
279,586.186678161538,0.04762560174308367
280,588.9393139764561,0.04819203558171489
281,591.6908936432668,0.0481539412331938
282,594.4414176562253,0.04657580116502953
283,597.1908865092619,0.04936181542935021
284,599.9393006960395,0.04944333134115241
285,602.6866607099246,0.05028542655469247
286,605.4329670439818,0.04818278060478882
287,608.1782201909917,0.045814751549152016
288,610.9224206434384,0.04707319284584956
289,613.6655688935253,0.046356316922650194
290,616.407665433149,0.04688896348303691
291,619.1487107539252,0.048252833420664984
292,621.8887053471823,0.04716655578206772
293,624.6276497039443,0.04857620501946606
294,627.3655443149603,0.04793704088419516
295,630.102389670682,0.048114959285998016
296,632.838186261273,0.04485350561763277
297,635.5729345766084,0.04337008202005135
298,638.3066351062596,0.04298071449361562
299,641.0392883395315,0.04258595860340809
300,643.770894765425,0.04421794309599784
301,646.5014548726641,0.045279268886078715
302,649.2309691496665,0.04435676899249606
303,651.9594380845836,0.044488745527074026
304,654.6868621652583,0.04781472780884657
305,657.4132418792587,0.04899012445395321
306,660.1385777138601,0.04887696383757578
307,662.8628701560511,0.04867360756634395
308,665.5861196925347,0.05017194646964048
309,668.3083268097249,0.048832893140480345
310,671.0294919937522,0.04859352257962696
311,673.749615730454,0.046771645934746926
312,676.468698505388,0.04535982348262969
313,679.1867408038215,0.043204910694747856
314,681.9037431107333,0.04328303056363025
315,684.619705910829,0.03957127272631295
316,687.3346296885105,0.04080016721376768
317,690.0485149279197,0.042094293493933344
318,692.7613621128862,0.04293925758083672
319,695.4731717269684,0.04209147246973627
320,698.1839442534343,0.04497748896480126
321,700.8936801752786,0.04556874411371863
322,703.602379975197,0.046985503810417405
323,706.31004413562,0.044750860062342884
324,709.0166731386687,0.04267752953227568
325,711.722267466206,0.040683546739878756
326,714.4268275997997,0.04222268451470315
327,717.1303540207206,0.043925956103274336
328,719.832847209988,0.04338815314856527
329,722.5343076483156,0.04359953046378063
330,725.2347358161414,0.0458969400719298
331,727.9341321936132,0.04547279351090004
332,730.6324972606183,0.04644505112806048
333,733.3298314967295,0.04626436181419269
334,736.0261353812642,0.04569383273327095
335,738.7214093932488,0.04678820367620605
336,741.4156540114344,0.04743620465122116
337,744.1088697142818,0.049135788545024386
338,746.8010569799737,0.04905497134621331
339,749.4922162864116,0.04719940394779288
340,752.1823481112275,0.045558820615451266
341,754.8714529317566,0.04347185848430085
342,757.5595312250632,0.042962167796706655
343,760.2465834679381,0.041463439575848304
344,762.9326101368686,0.04170308014994567
345,765.6176117080948,0.04240076052044682
346,768.3015886575492,0.043824980306717234
347,770.984541460908,0.04476041611188402
348,773.6664705935525,0.04586842738764284
349,776.347376530589,0.044961433384594476
350,779.0272597468567,0.04491380963302402
351,781.7061207168957,0.04521681517235574
352,784.3839599149926,0.044804922126258764
353,787.0607778151322,0.044167083895242785
354,789.7365748910415,0.044360346134902515
355,792.411351616157,0.04239727688925972
356,795.0851084636439,0.043334178183596674
357,797.7578459063944,0.043089828537158974
358,800.4295644170166,0.04202882290123694
359,803.1002644678389,0.04277399356797636
360,805.769946530927,0.043951742820565284
361,808.4386110780565,0.046082113767789534
362,811.106258580736,0.04859983897180463
363,813.7728895102033,0.04976107157212376
364,816.4385043374009,0.048963801866773904
365,819.1031035330071,0.04941873876076873
366,821.7666875674443,0.049212455649489596
367,824.4292569108201,0.04548753186028227
368,827.0908120330084,0.04091484737949086
369,829.7513534035709,0.03997413313154366
370,832.4108814918301,0.04027148652409629
371,835.0693967668099,0.0405265788273397
372,837.7268996972672,0.042500211944211864
373,840.3833907516902,0.04192462680374722
374,843.0388703982959,0.04216315419768663
375,845.6933391050064,0.04441415647301634
376,848.3467973395011,0.044732076159739925
377,850.9992455691664,0.04374153072059561
378,853.6506842611135,0.044152968854477365
379,856.3011138822086,0.04602008946932076
380,858.9505348990077,0.04819257508369151
381,861.5989477778196,0.04817194901842104
382,864.2463529846822,0.0489569456275585
383,866.8927509853448,0.04805191458062629
384,869.5381422453011,0.05073078555871065
385,872.1825272297646,0.05225097623808529
386,874.8259064036827,0.05162609630982682
387,877.4682802317226,0.051820964220466885
388,880.1096491783022,0.05173048383771782
389,882.7500137075449,0.05125007970823795
390,885.3893742833112,0.05233274431870082
391,888.0277313692083,0.05068810813358213
392,890.6650854285436,0.04827481631723774
393,893.3014369243847,0.04879253306152603
394,895.9367863195056,0.05089592427586871
395,898.5711340764248,0.05131209910859591
396,901.2044806573898,0.052271030399951686
397,903.8368265243748,0.053249845993083245
398,906.4681721391004,0.05272232674101899
399,909.0985179629855,0.05662376358417477
400,911.7278644572174,0.05808617449658107
401,914.3562120826989,0.05804789974775785
402,916.9835613000556,0.05904132949652841
403,919.6099125696658,0.06392105548217492
404,922.2352663516322,0.06826952345600977
405,924.859623105778,0.07442693319232882
406,927.4829832916793,0.08057877999877061
407,930.1053473686322,0.08598173810071451
408,932.7267157956728,0.09174372760398611
409,935.3470890315573,0.09820955963782227
410,937.9664675347992,0.09954851521844907
411,940.5848517636279,0.10200395531571632
412,943.2022421760104,0.10280324956338432
413,945.818639229649,0.10200857616764579
414,948.4340433819774,0.102124062096149
415,951.0484550901733,0.10148499820171739
416,953.6618748111456,0.10307881382632322
417,956.2743030015275,0.10389546696193476
418,958.8857401176967,0.10344034893079973
419,961.4961866157793,0.10208370791353225
420,964.1056429516084,0.09987641685709767
421,966.7141095807746,0.0975165781894772
422,969.3215869585972,0.09562033078924996
423,971.9280755401331,0.09291299905747206
424,974.5335757801685,0.09242723367592216
425,977.138088133244,0.0917917431868944
426,979.7416130536188,0.09105457425714825
427,982.3441509953004,0.08873472926140825
428,984.9457024120253,0.08529855165975134
429,987.5462677572783,0.07892023163486732
430,990.1458474842668,0.07283591564653578
431,992.7444420459466,0.06741585197333125
432,995.3420518950132,0.06487022945519572
433,997.938677483887,0.060462118844301804
434,1000.5343192647474,0.05748419322367729
435,1003.1289776894921,0.05634061685841395
436,1005.7226532097737,0.05549951826245688
437,1008.3153462769673,0.05709477541649565
438,1010.9070573422049,0.05621705300773364
439,1013.4977868563457,0.05260632788220202
440,1016.0875352699882,0.05188982139863767
441,1018.676303033482,0.05084834335325588
442,1021.2640905969076,0.04980692083712343
443,1023.8508984100765,0.046278383021640425
444,1026.4367269225663,0.045864514329815684
445,1029.0215765836638,0.04685255825173152
446,1031.6054478424303,0.048507668317966546
447,1034.1883411476367,0.04632750074290636
448,1036.7702569478065,0.04319773725778127
449,1039.3511956912207,0.04198710162377198
450,1041.931157825869,0.04243274444017492
451,1044.5101437995206,0.041572671569366025
452,1047.0881540596456,0.04112529065745384
453,1049.6651890534986,0.040901236894600235
454,1052.2412492280334,0.04372966546445361
455,1054.816335029987,0.047694324201212134
456,1057.3904469058075,0.05154880105555591
457,1059.9635853017053,0.05263351919773778
458,1062.5357506636187,0.05140351699692208
459,1065.1069434372444,0.054003234264103146
460,1067.677164068013,0.054288229824619234
461,1070.2464130010965,0.052470477725306275
462,1072.8146906814227,0.0494289657997124
463,1075.3819975536471,0.047074292183258384
464,1077.9483340621778,0.04339693589756313
465,1080.5137006511707,0.04412021368870582
466,1083.0780977645225,0.04614929403518457
467,1085.641525845867,0.04691221639371553
468,1088.2039853386036,0.045100389547886574
469,1090.765476685848,0.047672236295317236
470,1093.3260003304795,0.04714363531139136
471,1095.8855567151259,0.04754775829686843
472,1098.44414628215,0.045880216317069254
473,1101.0017694736619,0.04568805239910772
474,1103.5584267315273,0.042805256166136216
475,1106.1141184973405,0.04473290573403531
476,1108.6688452124579,0.044354302662596795
477,1111.2226073179766,0.043585697840247024
478,1113.7754052547439,0.045236462307616715
479,1116.327239463334,0.0458075995000566
480,1118.8781103841109,0.044722537640006076
481,1121.4280184571371,0.04441757228336522
482,1123.976964122256,0.04360389661233302
483,1126.5249478190487,0.042490658490230246
484,1129.0719699868341,0.042296005444968136
485,1131.6180310646987,0.043460844377528604
486,1134.163131491456,0.043568662994630226
487,1136.7072717056785,0.04451027528167086
488,1139.2504521456967,0.04658809800895716
489,1141.7926732495694,0.047634335904229066
490,1144.3339354551188,0.049344786230511854
491,1146.8742391999137,0.04910226732520913
492,1149.4135849212653,0.04843299668888366
493,1151.951973056241,0.048111388161085726
494,1154.489404041664,0.049253841465899145
495,1157.0258783140907,0.04992432039216791
496,1159.5613963098317,0.051663174112032924
497,1162.095958464962,0.05141513991430498
498,1164.6295652152942,0.050771440915134025
499,1167.1622169963912,0.05024364233874693
500,1169.6939142435708,0.04928908848359128
501,1172.2246573919042,0.047387734290430535
502,1174.7544468762019,0.04578599069017186
503,1177.2832831310445,0.04724235494207122
504,1179.8111665907418,0.046788139252574495
505,1182.3380976893739,0.04501121977843418
506,1184.8640768607577,0.04894915677242058
507,1187.3891045384812,0.05029536722939938
508,1189.9131811558568,0.05125156151008754
509,1192.4363071459816,0.05270238039864304
510,1194.958482941676,0.05383101428041357
511,1197.4797089755323,0.05630782357225891
512,1199.9999856798913,0.05670447014284772
513,1202.5193134868375,0.058248622015624474
514,1205.0376928282178,0.05513499789718549
515,1207.555124135638,0.051470254319397224
516,1210.0716078404387,0.050609244152367644
517,1212.5871443737315,0.05083638501360291
518,1215.1017341663742,0.050879828269069276
519,1217.6153776489812,0.051335929139030366
520,1220.1280752519158,0.05128047753742404
521,1222.6398274053095,0.05182704700692898
522,1225.1506345390262,0.05141267698760176
523,1227.660497082712,0.0532056826332815
524,1230.1694154657387,0.05109836543717287
525,1232.6773901172598,0.05159128313210814
526,1235.184421466164,0.05138893514839487
527,1237.69050994111,0.05266194231952931
528,1240.1956559704984,0.0508938297090701
529,1242.6998599825026,0.04845306123041904
530,1245.2031224050334,0.04686868091793619
531,1247.7054436657695,0.04686988154095938
532,1250.2068241921465,0.04668455419953864
533,1252.7072644113534,0.047137986877952946
534,1255.206764750336,0.047125084465306444
535,1257.705325635795,0.04935912311132706
536,1260.2029474941858,0.049758882671690347
537,1262.6996307517347,0.04825087834416501
538,1265.1953758344093,0.048133436514174344
539,1267.6901831679436,0.04864344797215055
540,1270.1840531778303,0.050360310061166466
541,1272.676986289311,0.05314835874620249
542,1275.168982927397,0.05436780199305178
543,1277.6600435168511,0.056737568646322005
544,1280.150168482192,0.05881623042033785
545,1282.639358247714,0.059111485101359246
546,1285.1276132374353,0.05944348874196341
547,1287.614933875177,0.05806556947512626
548,1290.1013205844874,0.05744228650496995
549,1292.5867737886842,0.05545389246890075
550,1295.0712939108407,0.052306709248789274
551,1297.554881373802,0.04905213127356564
552,1300.037536600162,0.048508008960682074
553,1302.5192600122737,0.049645558179856226
554,1305.0000520322562,0.05102335068683147
555,1307.4799130819902,0.053571248754855576
556,1309.9588435831083,0.05735708414069028
557,1312.4368439570121,0.05786438203412195
558,1314.9139146248642,0.05944568983558651
559,1317.39005600758,0.059356641386181935
560,1319.865268525843,0.05899061702880972
561,1322.3395526000938,0.05789257756799991
562,1324.812908650541,0.057995732303010784
563,1327.2853370971502,0.05766363628340516
564,1329.7568383596508,0.05795333664752421
565,1332.2274128575316,0.05597632445045539
566,1334.697061010047,0.05483025679103552
567,1337.1657832362084,0.053525918206026
568,1339.6335799547958,0.05583928489941299
569,1342.1004515843565,0.05858790966470208
570,1344.5663985431822,0.06276948674050514
571,1347.03142124935,0.0672252209030483
572,1349.495520120681,0.0700812555494599
573,1351.9586955747795,0.07170218710375736
574,1354.4209480289942,0.07095183098890716
575,1356.8822779004456,0.06724513689834251
576,1359.342685606018,0.06557622911010176
577,1361.8021715623686,0.0637490494663219
578,1364.2607361859064,0.06362049642310555
579,1366.718379892803,0.06288993763471228
580,1369.1751030990117,0.06157998366931795
581,1371.6309062202317,0.06028133734282149
582,1374.0857896719308,0.05729537451834777
583,1376.539753869361,0.05524492898246327
584,1378.9927992275113,0.051699357244410514
585,1381.4449261611628,0.05069183155476346
586,1383.8961350848365,0.04990476161171889
587,1386.3464264128404,0.04840545860821695
588,1388.7958005592318,0.04954029671685011
589,1391.244257937848,0.05125736062455793
590,1393.691798962293,0.05169692543221775
591,1396.1384240459163,0.052354119449191834
592,1398.5841336018623,0.05369811335183087
593,1401.0289280430252,0.05351589105241055
594,1403.4728077820698,0.051937463683694764
595,1405.9157732314222,0.05591560197549705
596,1408.3578248032875,0.05875755747149799
597,1410.7989629096344,0.058538599711237496
598,1413.239187962195,0.0585005287001769
599,1415.6785003724717,0.057730439970861115
600,1418.1169005517352,0.05575351014248549
601,1420.5543889110238,0.05455947522623744
602,1422.9909658611434,0.052243389081203406
603,1425.426631812669,0.04869502484908922
604,1427.8613871759449,0.04855804201935742
605,1430.2952323610878,0.05127565366555836
606,1432.7281677779736,0.054046967180892254
607,1435.1601938362621,0.053683882809042405
608,1437.5913109453609,0.05288837163052464
609,1440.0215195144672,0.05165478099508473
610,1442.4508199525378,0.05105428982277573
611,1444.8792126683018,0.05012311974169869
612,1447.3066980702629,0.050200950985807125
613,1449.7332765666813,0.051708906679217105
614,1452.1589485656057,0.054621549875223024
615,1454.5837144748366,0.05504985109992296
616,1457.007574701965,0.054873319544257206
617,1459.4305296543341,0.05355495261437562
618,1461.8525797390685,0.05485376867255842
619,1464.2737253630626,0.05652000940623004
620,1466.693966932981,0.056592202121334444
621,1469.1133048552567,0.05417722670504086
622,1471.5317395361033,0.05527255455049587
623,1473.9492713814936,0.054689044594207564
624,1476.3659007971776,0.05170598283270311
625,1478.7816281886835,0.049245794086556
626,1481.196453961308,0.044928708895041566
627,1483.6103785201108,0.040413782761935885
628,1486.0234022699485,0.04428740498127459
629,1488.4355256154215,0.045473189994421036
630,1490.846748960911,0.044934916234358115
631,1493.2570727105883,0.044803636250099456
632,1495.6664972683816,0.04846811925306148
633,1498.075023037993,0.049201700906675104
634,1500.482650422907,0.048968680319322375
635,1502.8893798263769,0.05009795311594722
636,1505.2952116514223,0.048737232142002984
637,1507.7001463008505,0.045234155992902425
638,1510.104184177237,0.048856259404465925
639,1512.5073256829262,0.047498372866558676
640,1514.9095712200426,0.04562327083971234
641,1517.3109211904894,0.044946535438598764
642,1519.7113759959393,0.04359148388903118
643,1522.1109360378355,0.04292323344061585
644,1524.5096017174,0.04219845948098303
645,1526.9073734356405,0.04054947889750167
646,1529.3042515933255,0.043072163982094326
647,1531.7002365910093,0.04642579324587613
648,1534.0953288290075,0.049807689159383634
649,1536.4895287074296,0.051033099031825825
650,1538.8828366261491,0.05266833018910132
651,1541.2752529848244,0.0531730330852832
652,1543.6667781828844,0.05269982959076996
653,1546.0574126195302,0.05315366591333094
654,1548.4471566937543,0.05054093843817498
655,1550.8360108043073,0.04627763835804574
656,1553.223975349733,0.044411069700828296
657,1555.6110507283413,0.045763694449830715
658,1557.9972373382338,0.04436913094950236
659,1560.3825355772651,0.04416163004659208
660,1562.7669458430946,0.04491225912422845
661,1565.150468533145,0.046502312419496254
662,1567.5331040446097,0.04892613735297915
663,1569.9148527744821,0.05084970644540675
664,1572.2957151195153,0.0510887876854195
665,1574.6756914762475,0.05008428856775835
666,1577.054782240996,0.048441043702885836
667,1579.4329878098565,0.050788581016592414
668,1581.8103085787016,0.05123117709715291
669,1584.1867449431804,0.05069869445706707
670,1586.5622972987321,0.04967726186577182
671,1588.9369660405657,0.049020430937673526
672,1591.3107515636689,0.04810358291955036
673,1593.6836542628191,0.045180046216987235
674,1596.0556745325664,0.047109322791968854
675,1598.426812767235,0.04946538061302512
676,1600.7970693609434,0.05082940231667221
677,1603.1664447075755,0.052481715283690104
678,1605.5349392008052,0.054004022820175204
679,1607.9025532340918,0.05283001775506096
680,1610.2692872006644,0.05055940271094398
681,1612.6351414935311,0.04824074604314615
682,1615.0001165054985,0.044751994993127944
683,1617.3642126291256,0.041322603008677045
684,1619.727430256792,0.04321802217065828
685,1622.0897697806208,0.04422032749589766
686,1624.4512315925363,0.04456975708012683
687,1626.8118160842428,0.04670825975779261
688,1629.171523647229,0.04735729330291238
689,1631.5303546727569,0.047198003223889715
690,1633.8883095518788,0.04601558855339472
691,1636.245388675424,0.04646962550156581
692,1638.601592434013,0.04612664438366286
693,1640.956921218036,0.045786496548391745
694,1643.3113754176745,0.04587030518084544
695,1645.6649554228939,0.04545386058777421
696,1648.0176616234387,0.044842406440504134
697,1650.369494408839,0.04555933445660408
698,1652.7204541684102,0.04434023405268475
699,1655.070541291253,0.04350269555554797
700,1657.4197561662402,0.0452653877561268
701,1659.7680991820387,0.04766118534380316
702,1662.1155707271032,0.04976870494995625
703,1664.4621711896602,0.050347187963138286
704,1666.8079009577286,0.052347322530962526
705,1669.152760419119,0.05272797810084829
706,1671.496749961409,0.0519526727924525
707,1673.8398699719785,0.04949005671401736
708,1676.1821208379738,0.046193681464604334
709,1678.523502946349,0.04332974276021405
710,1680.864016683826,0.04318191496283358
711,1683.203662436923,0.042904084254478454
712,1685.54244059193,0.04333001792286589
713,1687.8803515349362,0.04496562902383635
714,1690.2173956518134,0.04691779747234388
715,1692.5535733282206,0.049429587671322585
716,1694.8888849495966,0.050160798790772336
717,1697.2233309011774,0.05023065739937165
718,1699.5569115679657,0.04950067340353989
719,1701.8896273347773,0.04672726184446209
720,1704.2214785861916,0.04654560327822293
721,1706.5524657065976,0.047050751622617355
722,1708.8825890801472,0.048013774232044726
723,1711.2118490907958,0.04869982546546968
724,1713.5402461222834,0.049467849225917945
725,1715.8677805581383,0.052024948622206295
726,1718.194452781669,0.050758033161961515
727,1720.520263175985,0.049655053917939874
728,1722.8452121239636,0.04710500307290197
729,1725.1693000082932,0.047135400310329305
730,1727.4925272114267,0.04885595185125113
731,1729.8148941156444,0.04847089711171031
732,1732.1364011029634,0.048467406151504855
733,1734.4570485552306,0.04718642354189591
734,1736.7768368540658,0.0487798274587869
735,1739.095766380874,0.05050042558329494
736,1741.413837516861,0.04954732533270297
737,1743.731050643008,0.04989151978438582
738,1746.0474061400987,0.0494980516665784
739,1748.3629043887004,0.052100502368368676
740,1750.677545769169,0.051017428792424345
741,1752.9913306616536,0.04790788641557698
742,1755.3042594460935,0.04609281250273817
743,1757.6163325022198,0.04495606721851853
744,1759.927550209542,0.045260759558030106
745,1762.2379129473816,0.04626073852106264
746,1764.547421094821,0.045437744461563484
747,1766.856075030767,0.04518850486238182
748,1769.1638751338926,0.0455328040313799
749,1771.4708217826822,0.046586521479646543
750,1773.776915355383,0.04602641429256574
751,1776.082156230061,0.04418316302418316
752,1778.3865447845585,0.04431269933638689
753,1780.690081396518,0.044405502890124855
754,1782.9927664433724,0.045594931831408225
755,1785.2946003023394,0.04791490209899665
756,1787.5955833504347,0.046309110064270895
757,1789.8957159644667,0.04641890953792181
758,1792.1949985210306,0.04705158941533623
759,1794.4934313965268,0.04696073832732087
760,1796.7910149671302,0.04759908964625447
761,1799.087749608827,0.0480933075014597
762,1801.383635697386,0.0481070586387857
763,1803.6786736083643,0.048589989757987215
764,1805.9728637171302,0.051124845380835324
765,1808.2662063988284,0.052215455779730816
766,1810.5587020283997,0.05009253859460435
767,1812.8503509805878,0.04922734716437961
768,1815.141153629922,0.0478053778499287
769,1817.4311103507246,0.046414507148014386
770,1819.7202215171305,0.046860759599274694
771,1822.0084875030332,0.04764052780881922
772,1824.295908682157,0.04785221257818791
773,1826.5824854279965,0.047761488820346226
774,1828.8682181138538,0.049066980539715685
775,1831.1531071128197,0.04905258494118067
776,1833.4371527977821,0.048243999249105184
777,1835.7203555414287,0.04771240229261858
778,1838.0027157162328,0.04809937080216057
779,1840.2842336944707,0.04822632525848082
780,1842.5649098482143,0.04706448160647768
781,1844.8447445493211,0.04589134072099634
782,1847.1237381694623,0.045766776096197864
783,1849.4018910800853,0.047159958341608625
784,1851.6792036524491,0.04976847008927903
785,1853.9556762576008,0.050610533530532846
786,1856.231309266391,0.05088451229479495
787,1858.5061030494567,0.05330085633062855
788,1860.7800579772395,0.055697423395465746
789,1863.0531744199707,0.05456391203577232
790,1865.3254527476945,0.0511212965031374
791,1867.5968933302327,0.04870181923808803
792,1869.8674965372113,0.04933761107286492
793,1872.1372627380638,0.0478169201348747
794,1874.406192302004,0.04738154630697453
795,1876.67428559806,0.04625090181318105
796,1878.9415429950402,0.0452050534687336
797,1881.2079648615672,0.04626765309804743
798,1883.4735515660545,0.04874059714076247
799,1885.7383034767174,0.04792369935417326
800,1888.0022209615618,0.0472057287356376
801,1890.2653043883947,0.04699367657672785
802,1892.5275541248343,0.04693707783883235
803,1894.7889705382756,0.04524686572551468
804,1897.0495539959381,0.04643386205920939
805,1899.3093048648088,0.04650163663704092
806,1901.5682235117101,0.04645636259995146
807,1903.8263103032284,0.04812950132061428
808,1906.0835656057825,0.05034529949951412
809,1908.3399897855663,0.050478096760815765
810,1910.5955832085822,0.04663707841391349
811,1912.8503462406406,0.04485928422212499
812,1915.1042792473318,0.043706112218156304
813,1917.3573825940668,0.04366934353012906
814,1919.6096566460462,0.04517575370150045
815,1921.8611017682708,0.04569295120608946
816,1924.111718325553,0.04799073879617308
817,1926.3615066824887,0.049271049956472655
818,1928.6104672034842,0.04813767763641219
819,1930.8586002527513,0.047722194760188505
820,1933.1059061943001,0.04490433322716211
821,1935.3523853919328,0.04465560650565075
822,1937.5980382092578,0.04531978520557756
823,1939.8428650096998,0.04721341797558403
824,1942.0868661564602,0.04932185222966107
825,1944.3300420125604,0.05142746031719557
826,1946.5723929408236,0.0525184159721352
827,1948.8139193038576,0.05250427636506486
828,1951.0546214640892,0.052394040866407914
829,1953.2944997837503,0.05281515434902139
830,1955.5335546248627,0.052264009181153086
831,1957.7717863492485,0.05198984273224773
832,1960.0091953185517,0.0534227774595389
833,1962.2457818942044,0.053465155835836546
834,1964.4815464374453,0.05076316567672602
835,1966.7164893093118,0.04975979675128363
836,1968.9506108706519,0.046534929610602266
837,1971.1839114821194,0.04455647031000375
838,1973.4163915041615,0.04301043559326114
839,1975.6480512970304,0.04342869574626506
840,1977.8788912207897,0.04292556792368587
841,1980.1089116353055,0.045489002801617925
842,1982.3381129002466,0.04901903714596382
843,1984.5664953750784,0.05049149794617927
844,1986.7940594190857,0.049640709851645634
845,1989.0208053913454,0.050675077223746305
846,1991.2467336507439,0.048998987791835376
847,1993.4718445559695,0.04628280194784178
848,1995.6961384655228,0.04436928618223898
849,1997.9196157377041,0.04434092432421689
850,2000.1422767306128,0.04382359912696786
851,2002.3641218021673,0.044216343320857436
852,2004.5851513100852,0.044521462150865415
853,2006.8053656118846,0.0457168652292921
854,2009.0247650648962,0.04723728621467892
855,2011.2433500262505,0.0483704896218942
856,2013.4611208528943,0.04854555643876487
857,2015.678077901572,0.04804794550855392
858,2017.8942215288314,0.04872042326456227
859,2020.109552091035,0.04972356936738909
860,2022.32406994435,0.04836954392956526
861,2024.5377754447477,0.04464704116531691
862,2026.7506689480049,0.04340604215211479
863,2028.962750809714,0.04304967020051431
864,2031.1740213852588,0.04432407583280255
865,2033.3844810298458,0.04417399628661563
866,2035.5941300984884,0.045971242247331116
867,2037.8029689459872,0.04718624824128306
868,2040.0109979269741,0.049116299033355064
869,2042.2182173958813,0.05012212295364226
870,2044.4246277069458,0.049126887911439945
871,2046.6302292142095,0.047764211872315956
872,2048.835022271532,0.049671580464293964
873,2051.0390072325736,0.050897784399802026
874,2053.2421844508103,0.052697713462290574
875,2055.444554279512,0.0530646730990861
876,2057.6461170717816,0.051885609566410675
877,2059.846873180508,0.050330622741119685
878,2062.046822958394,0.047622471416286526
879,2064.245966757958,0.044238804709801675
880,2066.444304931526,0.042793976891783374
881,2068.6418378312324,0.03981160199131805
882,2070.838565809022,0.04137394065396772
883,2073.0344892166377,0.04360044176625855
884,2075.2296084056525,0.04498184472155124
885,2077.423923727438,0.0472959102023532
886,2079.6174355331677,0.04743650137856191
887,2081.8101441738436,0.047797518766489966
888,2084.00205000027,0.04747170993185246
889,2086.1931533630454,0.04781853875275672
890,2088.38345461261,0.04766507780108535
891,2090.572954099189,0.046643903570701785
892,2092.7616521728232,0.0474117651939015
893,2094.9495491833836,0.048380264774124174
894,2097.136645480514,0.047308122275921835
895,2099.3229414137154,0.04572720763959282
896,2101.508437332266,0.04455607728053484
897,2103.6931335852637,0.0440377948385596
898,2105.8770305216262,0.04387842132704211
899,2108.0601284900767,0.043738796478962325
900,2110.2424278391427,0.042070090961915704
901,2112.4239289171824,0.04287721305138643
902,2114.604632072344,0.04688652870840829
903,2116.784537652611,0.04908978117873716
904,2118.963646005759,0.050798386630782816
905,2121.1419574793913,0.051062697565457005
906,2123.319472420906,0.05302559170105153
907,2125.4961911775276,0.053465052545194895
908,2127.6721140963023,0.05396665020534077
909,2129.8472415240585,0.05201212423832506
910,2132.0215738074735,0.048576557548304776
911,2134.1951112930083,0.04897910158884219
912,2136.3678543269534,0.05021536720710323
913,2138.53980325541,0.04809108049147387
914,2140.710958424294,0.04824476811456621
915,2142.881320179326,0.04730461805574019
916,2145.0508888660556,0.048320239081325406
917,2147.219664829826,0.0503815522151063
918,2149.387648415816,0.05261804708711017
919,2151.554839969008,0.05237297302803552
920,2153.721239834198,0.05277224967143951
921,2155.8868483559977,0.05384696575819663
922,2158.051665878827,0.05306190276701721
923,2160.2156927469405,0.05185566155128457
924,2162.3789293043856,0.050166061951979965
925,2164.541375895034,0.04907558727997953
926,2166.7030328625783,0.04951409904103344
927,2168.863900550509,0.05098416229734609
928,2171.0239793021465,0.050150707209549894
929,2173.183269460631,0.048534298140198696
930,2175.341771368895,0.048167065096748056
931,2177.49948536972,0.04676250648761184
932,2179.656411805671,0.046095556312414306
933,2181.8125510191467,0.04479261741578023
934,2183.967903352361,0.044727545315840174
935,2186.1224691473385,0.047087397435605714
936,2188.276248745926,0.04779660552078839
937,2190.429242489777,0.05154970198032807
938,2192.5814507203745,0.051359999080661065
939,2194.73287377901,0.050554085699412554
940,2196.883512006792,0.04959547884607027
941,2199.0333657446536,0.04870745750768014
942,2201.1824353333286,0.046106606664352644
943,2203.3307211133847,0.04436205883329109
944,2205.4782234252,0.04458456046227524
945,2207.62494260897,0.045536178113460356
946,2209.7708790047077,0.04565395043914367
947,2211.9160329522488,0.047863127448192114
948,2214.060404791241,0.04660149142655091
949,2216.2039948611396,0.04560544895355518
950,2218.3468035012493,0.04664428121539708
951,2220.488831050657,0.04905097329562036
952,2222.630077848295,0.0507227348446869
953,2224.7705442328925,0.05269117500294254
954,2226.9102305430206,0.05193777262058362
955,2229.049137117045,0.05348491418006543
956,2231.1872642931667,0.05439038941206254
957,2233.324612409401,0.05437721682753087
958,2235.4611818035833,0.053730854513772484
959,2237.596972813364,0.052911992982609214
960,2239.7319857762172,0.05228805386071221
961,2241.866221029433,0.05136442824513185
962,2243.9996789101183,0.0509494451578211
963,2246.1323597552105,0.048872482239268926
964,2248.264263901459,0.0452550704061003
965,2250.395391685438,0.04654971881391635
966,2252.525743443525,0.0443678800099021
967,2254.6553195119404,0.04500378867468689
968,2256.784120226714,0.04817481055812301
969,2258.9121459237012,0.05071545523395879
970,2261.0393969385664,0.05189370203064096
971,2263.165873606801,0.05150040123848891
972,2265.291576263721,0.05290171005081139
973,2267.4165052444673,0.0534239193492541
974,2269.5406608839835,0.05257807276741937
975,2271.664043517051,0.05248391612710434
976,2273.786653478264,0.048605189090965756
977,2275.9084911020464,0.05002853986410358
978,2278.0295567226335,0.05118609779477172
979,2280.1498506740863,0.053202740655363644
980,2282.2693732902862,0.05214138993938076
981,2284.3881249049487,0.051679099005894236
982,2286.50610585159,0.05159258639039998
983,2288.62331646356,0.051893155973213236
984,2290.7397570740377,0.04981948231148927
985,2292.855428016006,0.04870380651639912
986,2294.97032962229,0.04803173513733636
987,2297.0844622255186,0.048481585794356165
988,2299.1978261581644,0.04883238262294151
989,2301.3104217525,0.05018074000007691
990,2303.422249340637,0.050268419086913915
991,2305.5333092545097,0.05108232805628483
992,2307.6436018258587,0.05091818864568271
993,2309.7531273862755,0.05163572417660828
994,2311.861886267143,0.050320987307880136
995,2313.969878799697,0.05011120230838131
996,2316.077105314978,0.04984757248244615
997,2318.1835661438554,0.04813671576930142
998,2320.289261617029,0.048107377417991225
999,2322.3941920650086,0.046608198351166884
1000,2324.4983578181423,0.04646268020285312
1001,2326.6017592065973,0.0459835025946534
1002,2328.7043965603602,0.04494738385755944
1003,2330.8062702092443,0.045858450352005455
1004,2332.9073804828886,0.047572036946324205
1005,2335.007727710763,0.04820015381995656
1006,2337.1073122221565,0.05102134160503277
1007,2339.2061343461764,0.05028401793042138
1008,2341.304194411764,0.050063748347018246
1009,2343.4014927476874,0.04835948980841199
1010,2345.49802968253,0.048780463464047595
1011,2347.5938055447136,0.049933287104550375
1012,2349.6888206624653,0.04760955425285045
1013,2351.783075363865,0.048369174102264184
1014,2353.87656997679,0.048498347829558364
1015,2355.9693048289755,0.048299490926816034
1016,2358.0612802479463,0.04914054512496013
1017,2360.1524965610806,0.048096257519258924
1018,2362.2429540955764,0.047325942099601906
1019,2364.3326531784483,0.04741182093069579
1020,2366.4215941365483,0.046970403852245095
1021,2368.509777296551,0.04559045808886479
1022,2370.597202984953,0.04286075086516989
1023,2372.6838715280865,0.03837004940577539
