pixel_index,raman_shift_cm-1,intensity
0,200.0,0.0
1,201.0,6.627159801443825e-07
2,202.0,1.3293475643043947e-06
3,203.0,1.9998947524800366e-06
4,204.0,2.673378643676095e-06
5,205.0,3.3517570398899516e-06
6,206.0,4.034051040126394e-06
7,207.0,4.720260644378466e-06
8,208.0,5.4103858526461665e-06
9,209.0,6.104426664936453e-06
10,210.0,6.802383081242369e-06
11,211.0,7.5042551015708705e-06
12,212.0,8.211021626924125e-06
13,213.0,8.920724855283887e-06
14,214.0,9.635322588675356e-06
15,215.0,1.0354814827084625e-05
16,216.0,1.1077243768507354e-05
17,217.0,1.1804567214954838e-05
18,218.0,1.2536785166427074e-05
19,219.0,1.3272918721914941e-05
20,220.0,1.4012967881425393e-05
21,221.0,1.4758890446962767e-05
22,222.0,1.5507749715506645e-05
23,223.0,1.6262482390084405e-05
24,224.0,1.7020151767675622e-05
25,225.0,1.7783694551293763e-05
26,226.0,1.8552131839936657e-05
27,227.0,1.9324484732602137e-05
28,228.0,2.0101732130285416e-05
29,229.0,2.088387403299345e-05
30,230.0,2.167091044071928e-05
31,231.0,2.2462841353476817e-05
32,232.0,2.3259666771252156e-05
33,233.0,2.4061386694052246e-05
34,234.0,2.486800112187709e-05
35,235.0,2.5679510054726688e-05
36,236.0,2.6496892393596256e-05
37,237.0,2.731916923749753e-05
38,238.0,2.8146340586416605e-05
39,239.0,2.897840644036043e-05
40,240.0,2.981634570033118e-05
41,241.0,3.065917946532668e-05
42,242.0,3.1507886636349106e-05
43,243.0,3.2362467213398455e-05
44,244.0,3.322194229547255e-05
45,245.0,3.408631188257141e-05
46,246.0,3.495753377669936e-05
47,247.0,3.5833650175852055e-05
48,248.0,3.671563998103863e-05
49,249.0,3.7603503192245174e-05
50,250.0,3.8497239809478645e-05
51,251.0,3.9396849832745984e-05
52,252.0,4.03023332620333e-05
53,253.0,4.1213690097354485e-05
54,254.0,4.21309203387026e-05
55,255.0,4.3055002887086756e-05
56,256.0,4.398495884149088e-05
57,257.0,4.492078820192888e-05
58,258.0,4.5862490968393805e-05
59,259.0,4.681202494288999e-05
60,260.0,4.776645342241788e-05
61,261.0,4.872871310997703e-05
62,262.0,4.9696846203570065e-05
63,263.0,5.067183160418523e-05
64,264.0,5.165269041083427e-05
65,265.0,5.264138042552153e-05
66,266.0,5.363594384623571e-05
67,267.0,5.46383384749881e-05
68,268.0,5.564758541077655e-05
69,269.0,5.6662705752584954e-05
70,270.0,5.76866362034407e-05
71,271.0,5.871644006032337e-05
72,272.0,5.97540751252373e-05
73,273.0,6.079856249718727e-05
74,274.0,6.185088107717546e-05
75,275.0,6.291103086520187e-05
76,276.0,6.397803296025737e-05
77,277.0,6.505286626335803e-05
78,278.0,6.613553077448996e-05
79,279.0,6.722602649365315e-05
80,280.0,6.832533232186367e-05
81,281.0,6.943149045711023e-05
82,282.0,7.054547980038807e-05
83,283.0,7.166827925271323e-05
84,284.0,7.279890991306966e-05
85,285.0,7.393835068247343e-05
86,286.0,7.508562265990846e-05
87,287.0,7.624170474639082e-05
88,288.0,7.740659694191357e-05
89,289.0,7.85802992464767e-05
90,290.0,7.976183275907804e-05
91,291.0,8.095315528172195e-05
92,292.0,8.215328791341319e-05
93,293.0,8.336223065414481e-05
94,294.0,8.458096240491898e-05
95,295.0,8.58085042647405e-05
96,296.0,8.704583513460456e-05
97,297.0,8.8291976113509e-05
98,298.0,8.954888500346513e-05
99,299.0,9.08146040024686e-05
100,300.0,9.20901120115146e-05
101,301.0,9.337540903060316e-05
102,302.0,9.467147396075037e-05
103,303.0,9.597732790094012e-05
104,304.0,9.729394975218154e-05
105,305.0,9.862036061346552e-05
106,306.0,9.995753938580813e-05
107,307.0,0.00010130548606919547
108,308.0,0.00010266420066363446
109,309.0,0.00010403368316912515
110,310.0,0.0001054139335856675
111,311.0,0.00010680593081426371
112,312.0,0.00010820869595391855
113,313.0,0.00010962320790562027
114,314.0,0.0001110494666693828
115,315.0,0.00011248747224519916
116,316.0,0.00011393722463306936
117,317.0,0.00011539872383299343
118,318.0,0.00011687294874598741
119,319.0,0.00011835892047102828
120,320.0,0.00011985761790913212
121,321.0,0.00012136904106029893
122,322.0,0.00012289318992452175
123,323.0,0.00012443006450180754
124,324.0,0.00012597966479214933
125,325.0,0.00012754296969656325
126,326.0,0.0001291199792150353
127,327.0,0.00013070971444657036
128,328.0,0.00013231413319317965
129,329.0,0.00013393225655384714
130,330.0,0.00013556408452857977
131,331.0,0.00013721059601838666
132,332.0,0.00013887179102326086
133,333.0,0.0001405466906422002
134,334.0,0.000142237252677209
135,335.0,0.00014394249822729206
136,336.0,0.00014566340619345155
137,337.0,0.00014739997657568053
138,338.0,0.00014915123047298375
139,339.0,0.00015091912568736558
140,340.0,0.00015270268331781688
141,341.0,0.00015450288226535373
142,342.0,0.00015631972252996224
143,343.0,0.00015815222521064717
144,344.0,0.0001600023481094198
145,345.0,0.00016187009122627325
146,346.0,0.00016375447566020524
147,347.0,0.00016565745921322717
148,348.0,0.00016757806298432984
149,349.0,0.00016951628697351327
150,350.0,0.00017147311008179356
151,351.0,0.00017344853230915678
152,352.0,0.00017544353255661207
153,353.0,0.00017745713192315725
154,354.0,0.00017948933040878536
155,355.0,0.00018154306471652377
156,356.0,0.00018361539814334513
157,357.0,0.00018570828849126766
158,358.0,0.00018782173576028442
159,359.0,0.00018995671885140453
160,360.0,0.0001921122588636189
161,361.0,0.00019428933469794354
162,362.0,0.00019648892525536674
163,363.0,0.00019871005163489333
164,364.0,0.00020095369273753235
165,365.0,0.00020321984856326998
166,366.0,0.0002055094980131222
167,367.0,0.00020782264108708913
168,368.0,0.0002101592777851637
169,369.0,0.0002125203870083551
170,370.0,0.00021490498985566117
171,371.0,0.00021731602303008837
172,372.0,0.00021975152872963236
173,373.0,0.00022221248585529535
174,374.0,0.00022469987330808646
175,375.0,0.00022721369108800565
176,376.0,0.00022975491809604817
177,377.0,0.0002323225754312188
178,378.0,0.00023491862089552881
179,379.0,0.00023754305448896434
180,380.0,0.0002401948973105371
181,381.0,0.0002428770860632466
182,382.0,0.00024558766294509554
183,383.0,0.0002483295646590973
184,384.0,0.0002511008334032267
185,385.0,0.000253903426979516
186,386.0,0.0002567373453879442
187,387.0,0.0002596035675295344
188,388.0,0.0002625020934042726
189,389.0,0.0002654339019131681
190,390.0,0.0002683989930562277
191,391.0,0.0002713983457344397
192,392.0,0.00027443293884882715
193,393.0,0.0002775027723993762
194,394.0,0.00028060784638609364
195,395.0,0.0002837501186109909
196,396.0,0.000286929589074061
197,397.0,0.0002901462577753039
198,398.0,0.0002934011036157357
199,399.0,0.00029669608439735384
200,400.0,0.00030003022121915607
201,401.0,0.00030340449298215153
202,402.0,0.0003068208574883446
203,403.0,0.0003102783358367331
204,404.0,0.00031377888582932826
205,405.0,0.00031732348636712534
206,406.0,0.00032091115854913606
207,407.0,0.00032454483907836003
208,408.0,0.00032822354905379504
209,409.0,0.0003319492462774524
210,410.0,0.00033572193074933896
211,411.0,0.00033954356027145226
212,412.0,0.00034341413484379916
213,413.0,0.00034733561226838404
214,414.0,0.00035130701364421166
215,415.0,0.0003553312756742886
216,416.0,0.00035940937725961687
217,417.0,0.0003635403394992014
218,418.0,0.0003677270990960417
219,419.0,0.00037196965605015164
220,420.0,0.00037626898926253346
221,421.0,0.00038062705653519143
222,422.0,0.00038504483676912775
223,423.0,0.0003895233088653585
224,424.0,0.00039406443062588105
225,425.0,0.0003986672231497002
226,426.0,0.0004033356020408316
227,427.0,0.0004080685883982661
228,428.0,0.0004128691189250171
229,429.0,0.0004177381725221008
230,430.0,0.00042267672809050534
231,431.0,0.0004276857645312469
232,432.0,0.0004327682185473389
233,433.0,0.00043792409013878133
234,434.0,0.00044315631600858074
235,435.0,0.0004484658750577462
236,436.0,0.0004538537461872868
237,437.0,0.0004593228661002092
238,438.0,0.00046487421369752235
239,439.0,0.0004705087678802355
240,440.0,0.0004762304442523572
241,441.0,0.00048203924281388756
242,442.0,0.00048793712136684477
243,443.0,0.0004939270166142354
244,444.0,0.0005000108863580776
245,445.0,0.0005061906884003688
246,446.0,0.0005124683805431203
247,447.0,0.0005188449416873483
248,448.0,0.0005253252663380634
249,449.0,0.0005319103333962818
250,450.0,0.0005386011217629918
251,451.0,0.000545402525943232
252,452.0,0.0005523165037390067
253,453.0,0.0005593450129523204
254,454.0,0.0005664900113851912
255,455.0,0.00057375639354263
256,456.0,0.0005811451383256528
257,457.0,0.0005886601613382754
258,458.0,0.0005963043992835111
259,459.0,0.0006040817677653756
260,460.0,0.000611993245684878
261,461.0,0.0006200447064480382
262,462.0,0.0006282381078568746
263,463.0,0.0006365763866144007
264,464.0,0.0006450654161266362
265,465.0,0.0006537071541955995
266,466.0,0.0006625064953263085
267,467.0,0.0006714663762217834
268,468.0,0.0006805926702880375
269,469.0,0.0006898883142280978
270,470.0,0.0006993572236459872
271,471.0,0.0007090062508487208
272,472.0,0.0007188383325393258
273,473.0,0.0007288583632228202
274,474.0,0.0007390722163052378
275,475.0,0.0007494847862915895
276,476.0,0.0007601019465879161
277,477.0,0.0007709285916992353
278,478.0,0.0007819705950315742
279,479.0,0.0007932338299909665
280,480.0,0.0008047261277854367
281,481.0,0.0008164523829200233
282,482.0,0.0008284194477017415
283,483.0,0.0008406341744376413
284,484.0,0.0008531053732367562
285,485.0,0.0008658379386041108
286,486.0,0.0008788416595497478
287,487.0,0.0008921233883807031
288,488.0,0.0009056919352060173
289,489.0,0.0009195561101347374
290,490.0,0.000933723744374895
291,491.0,0.0009482056058375345
292,492.0,0.0009630114835327197
293,493.0,0.0009781501875694768
294,494.0,0.0009936334647598665
295,495.0,0.0010094701252129296
296,496.0,0.0010256738735427377
297,497.0,0.001042255477660336
298,498.0,0.001059227663278787
299,499.0,0.001076602177210138
300,500.0,0.0010943937029694768
301,501.0,0.0011126139873688368
302,502.0,0.001131279671725317
303,503.0,0.0011504044606529692
304,504.0,0.0011700049954688715
305,505.0,0.0011900969385891143
306,506.0,0.0012106979102317578
307,507.0,0.0012318255306149031
308,508.0,0.0012534983988576338
309,509.0,0.0012757351140790392
310,510.0,0.0012985581910022253
311,511.0,0.0013219862287462748
312,512.0,0.0013460446787373135
313,513.0,0.0013707540978964358
314,514.0,0.0013961399376497608
315,515.0,0.0014222276494234212
316,516.0,0.0014490446424455334
317,517.0,0.0014766173470432324
318,518.0,0.0015049780669496595
319,519.0,0.001534155190293961
320,520.0,0.001564181999710287
321,521.0,0.001595092756733811
322,522.0,0.0016269227018006803
323,523.0,0.0016597109909511003
324,524.0,0.0016934958013242456
325,525.0,0.001728319225663307
326,526.0,0.0017642243356124983
327,527.0,0.0018012590973210437
328,528.0,0.0018394714769381748
329,529.0,0.0018789133562171318
330,530.0,0.0019196385747131661
331,531.0,0.0019617039086845633
332,532.0,0.0020051700499935906
333,533.0,0.002050102585007573
334,534.0,0.002096567100093817
335,535.0,0.002144637012827672
336,536.0,0.0021943867196854844
337,537.0,0.002245898448351652
338,538.0,0.002299256384312576
339,539.0,0.002354551565361675
340,540.0,0.0024118799237974105
341,541.0,0.0024713442442252757
342,542.0,0.002533054163557784
343,543.0,0.002597123234311473
344,544.0,0.002663676755814939
345,545.0,0.002732845900802807
346,546.0,0.0028047706521187356
347,547.0,0.002879601760517433
348,548.0,0.002957498786862671
349,549.0,0.003038634017731256
350,550.0,0.00312319148651206
351,551.0,0.0032113669734060188
352,552.0,0.003303372899931131
353,553.0,0.003399435392219469
354,554.0,0.00349979819662119
355,555.0,0.0036047256164075557
356,556.0,0.0037144985961668833
357,557.0,0.0038294225530126286
358,558.0,0.00394982737658335
359,559.0,0.004076069386844742
360,560.0,0.00420853427079263
361,561.0,0.0043476390402549915
362,562.0,0.004493836926396977
363,563.0,0.004647621295324924
364,564.0,0.004809527605888367
365,565.0,0.004980140261987078
366,566.0,0.005160095549274071
367,567.0,0.005350090445264658
368,568.0,0.005550888492742449
369,569.0,0.00576332273646239
370,570.0,0.005988313343368858
371,571.0,0.006226868581496617
372,572.0,0.006480101461287958
373,573.0,0.006749241482404691
374,574.0,0.007035645401639259
375,575.0,0.00734082268434081
376,576.0,0.007666444314524268
377,577.0,0.008014375098603473
378,578.0,0.008386692264510278
379,579.0,0.008785721681031691
380,580.0,0.009214069182642073
381,581.0,0.009674663641147314
382,582.0,0.01017080786853706
383,583.0,0.010706232456539995
384,584.0,0.011285165278595162
385,585.0,0.011912414696437348
386,586.0,0.012593463534593544
387,587.0,0.01333458459070149
388,588.0,0.01414298159725433
389,589.0,0.015026955634771405
390,590.0,0.015996109722108236
391,591.0,0.017061595499509682
392,592.0,0.018236420603525403
393,593.0,0.01953582358609462
394,594.0,0.020977733019117335
395,595.0,0.022583355813958057
396,596.0,0.024377889861377216
397,597.0,0.026391445177376554
398,598.0,0.028660195090780525
399,599.0,0.031227842636941283
400,600.0,0.03414751179447965
401,601.0,0.03748416341296452
402,602.0,0.04131773259063279
403,603.0,0.0457471891557566
404,604.0,0.050895825689870354
405,605.0,0.05691811375040725
406,606.0,0.06400855803028625
407,607.0,0.07241299874891165
408,608.0,0.08244264224027259
409,609.0,0.09449062689464453
410,610.0,0.10904951220393826
411,611.0,0.12672480130017788
412,612.0,0.14823243496892896
413,613.0,0.17435376318198614
414,614.0,0.20579571985677136
415,615.0,0.2428675515674624
416,616.0,0.28486476283903994
417,617.0,0.3291432108852366
418,618.0,0.37025907059508856
419,619.0,0.40026309609053384
420,620.0,0.41137699187045623
421,621.0,0.40026720453805037
422,622.0,0.37026728944792353
423,623.0,0.3291555401433901
424,624.0,0.28488120250251187
425,625.0,0.24288810359405483
426,626.0,0.20582038522538526
427,627.0,0.17438254385042357
428,628.0,0.1482653338738929
429,629.0,0.12676182039947034
430,630.0,0.10909065443426229
431,631.0,0.09453589519270311
432,632.0,0.08249203954276874
433,633.0,0.07246652799254838
434,634.0,0.0640662241095686
435,635.0,0.05697992058093921
436,636.0,0.05096177914505798
437,637.0,0.04581729217230289
438,638.0,0.04139199104194377
439,639.0,0.03756258317244622
440,640.0,0.03423009873553811
441,641.0,0.03131460263298254
442,642.0,0.028751134015210584
443,643.0,0.02648657086140346
444,644.0,0.024477208178406994
445,645.0,0.02268687459519874
446,646.0,0.021085461074677972
447,647.0,0.019647766789381238
448,648.0,0.018352589722449044
449,649.0,0.01718199738637739
450,650.0,0.016120753187029054
451,651.0,0.015155851445656374
452,652.0,0.014276138564212499
453,653.0,0.013472012502742907
454,654.0,0.012735173159629257
455,655.0,0.012058416802378406
456,656.0,0.01143547063335261
457,657.0,0.010860851828024898
458,658.0,0.01032975398246247
459,659.0,0.009837948244325288
460,660.0,0.009381703042983667
461,661.0,0.008957719482051969
462,662.0,0.008563066731922296
463,663.0,0.008195138958120303
464,664.0,0.007851612249660975
465,665.0,0.007530407420810452
466,666.0,0.007229663580758913
467,667.0,0.006947705829887421
468,668.0,0.0066830286184508345
469,669.0,0.00643427323185473
470,670.0,0.006200212128239271
471,671.0,0.005979732297162182
472,672.0,0.005771823512786686
473,673.0,0.00557557050267344
474,674.0,0.005390137285364477
475,675.0,0.005214761296977189
476,676.0,0.005048746538897273
477,677.0,0.004891456725471714
478,678.0,0.0047423084317017436
479,679.0,0.004600765219836825
480,680.0,0.004466335681572617
481,681.0,0.004338566585743989
482,682.0,0.004217040920522954
483,683.0,0.004101373977814684
484,684.0,0.0039912084587525
485,685.0,0.003886216431499831
486,686.0,0.003786093457844246
487,687.0,0.003690556635395395
488,688.0,0.0035993445975850444
489,689.0,0.00351221261916204
490,690.0,0.0034289355528952996
491,691.0,0.0033493019561678327
492,692.0,0.003273115069877702
493,693.0,0.003200190860636042
494,694.0,0.0031303609574700408
495,695.0,0.0030634628628129416
496,696.0,0.002999347783712033
497,697.0,0.0029378757373236565
498,698.0,0.0028789165298141904
499,699.0,0.002822346819657041
500,700.0,0.002768050117632672
501,701.0,0.002715919723531576
502,702.0,0.002665852852748254
503,703.0,0.0026177535729842646
504,704.0,0.002571532804248173
505,705.0,0.002527105382152589
506,706.0,0.002484390057914117
507,707.0,0.002443313413957407
508,708.0,0.0024038030116081315
509,709.0,0.0023657922855979544
510,710.0,0.00232921760736159
511,711.0,0.002294019263937752
512,712.0,0.0022601404790681618
513,713.0,0.002227526434296573
514,714.0,0.002196128184572738
515,715.0,0.0021658967848464444
516,716.0,0.0021367862267704573
517,717.0,0.0021087544176015866
518,718.0,0.0020817582856956255
519,719.0,0.002055760632814394
520,720.0,0.0020307242607197195
521,721.0,0.002006613928975434
522,722.0,0.001983395376046377
523,723.0,0.001961038256001406
524,724.0,0.0019395112440083668
525,725.0,0.001918785951938128
526,726.0,0.0018988349705625592
527,727.0,0.001879631869554539
528,728.0,0.0018611531552899458
529,729.0,0.001843375334144679
530,730.0,0.0018262739335936147
531,731.0,0.0018098283967156656
532,732.0,0.001794019145490726
533,733.0,0.0017788256229977085
534,734.0,0.0017642292301175229
535,735.0,0.001750213325533084
536,736.0,0.0017367593101253159
537,737.0,0.001723852500379137
538,738.0,0.001711476254977469
539,739.0,0.0016996158904052515
540,740.0,0.0016882586809494214
541,741.0,0.0016773899430948976
542,742.0,0.001666996951128638
543,743.0,0.0016570669793375657
544,744.0,0.001647589259810643
545,745.0,0.0016385530246368109
546,746.0,0.001629945548103014
547,747.0,0.0016217580201002045
548,748.0,0.0016139796727173308
549,749.0,0.0016066026747463687
550,750.0,0.0015996172371772548
551,751.0,0.0015930145499009557
552,752.0,0.00158678678170944
553,753.0,0.0015809261013946556
554,754.0,0.0015754256566495872
555,755.0,0.0015702776162661832
556,756.0,0.0015654751279374208
557,757.0,0.0015610113393562642
558,758.0,0.001556882334918691
559,759.0,0.0015530793045156607
560,760.0,0.0015495993114441667
561,761.0,0.001546435503397173
562,762.0,0.001543582985869648
563,763.0,0.0015410368643565806
564,764.0,0.0015387932232539486
565,765.0,0.0015368481469577291
566,766.0,0.0015351957620618954
567,767.0,0.001533834110764443
568,768.0,0.00153275829856034
569,769.0,0.0015319653887465804
570,770.0,0.0015314524446201504
571,771.0,0.0015312155505770274
572,772.0,0.0015312527488152072
573,773.0,0.0015315611026316624
574,774.0,0.0015321376753234
575,775.0,0.0015329805090883958
576,776.0,0.0015340876461246444
577,777.0,0.001535456149729126
578,778.0,0.0015370860199018543
579,779.0,0.0015389733410387998
580,780.0,0.0015411181131399694
581,781.0,0.001543519357304347
582,782.0,0.0015461751157299355
583,783.0,0.0015490834306147233
584,784.0,0.0015522452808597125
585,785.0,0.0015556587086628922
586,786.0,0.001559323714024262
587,787.0,0.0015632383391418177
588,788.0,0.0015674045418175638
589,789.0,0.0015718203642494958
590,790.0,0.001576486785338616
591,791.0,0.0015814038050849242
592,792.0,0.0015865704445874112
593,793.0,0.0015919886616480956
594,794.0,0.001597657477365968
595,795.0,0.0016035778706420308
596,796.0,0.001609750820377286
597,797.0,0.001616178284373752
598,798.0,0.0016228592837304262
599,799.0,0.0016297957762492995
600,800.0,0.001636988740831395
601,801.0,0.0016444401352787164
602,802.0,0.0016521509384922666
603,803.0,0.0016601231082740565
604,804.0,0.0016683586024260906
605,805.0,0.0016768583998493776
606,806.0,0.0016856254372469386
607,807.0,0.0016946616724207704
608,808.0,0.0017039700420738938
609,809.0,0.0017135515251073107
610,810.0,0.001723409058224035
611,811.0,0.0017335465570280887
612,812.0,0.0017439659793214762
613,813.0,0.0017546712407082137
614,814.0,0.0017656633200893168
615,815.0,0.0017769480908708124
616,816.0,0.0017885275108546982
617,817.0,0.0018004064745460056
618,818.0,0.0018125869397467391
619,819.0,0.0018250747798629326
620,820.0,0.0018378729315975994
621,821.0,0.0018509862894557575
622,822.0,0.0018644177901404203
623,823.0,0.0018781742859586236
624,824.0,0.0018922596925143903
625,825.0,0.0019066789043127382
626,826.0,0.0019214377947597008
627,827.0,0.0019365402794592874
628,828.0,0.0019519932107185333
629,829.0,0.001967802461943466
630,830.0,0.0019839739065401194
631,831.0,0.0020005124390135177
632,832.0,0.0020174258905716856
633,833.0,0.002034721113521666
634,834.0,0.0020524049601704886
635,835.0,0.002070483303924179
636,836.0,0.002088964954891786
637,837.0,0.0021078577442813326
638,838.0,0.0021271685243998695
639,839.0,0.0021469061053564303
640,840.0,0.002167079297260048
641,841.0,0.0021876969102197765
642,842.0,0.002208766775443648
643,843.0,0.002230299660842714
644,844.0,0.0022523053554270233
645,845.0,0.0022747936482066192
646,846.0,0.002297774328191551
647,847.0,0.002321259142193865
648,848.0,0.0023452588581246276
649,849.0,0.0023697852227958856
650,850.0,0.0023948509619206946
651,851.0,0.002420465864509111
652,852.0,0.002446645592977205
653,853.0,0.0024734018941370297
654,854.0,0.0025007494515036596
655,855.0,0.002528701969691153
656,856.0,0.002557273153313582
657,857.0,0.002586480622589027
658,858.0,0.0026163371032305515
659,859.0,0.0026468621732582405
660,860.0,0.0026780705161871675
661,861.0,0.0027099797522354215
662,862.0,0.0027426094594230864
663,863.0,0.0027759772579682507
664,864.0,0.0028101037047920086
665,865.0,0.0028450073990134565
666,866.0,0.0028807108553556933
667,867.0,0.002917234630739813
668,868.0,0.0029546031976909466
669,869.0,0.0029928380920311833
670,870.0,0.00303196378628564
671,871.0,0.0030720067107814445
672,872.0,0.0031129923169447168
673,873.0,0.003154948014003586
674,874.0,0.0031979012111861896
675,875.0,0.003241883233324667
676,876.0,0.0032869224685481506
677,877.0,0.003333051220589802
678,878.0,0.0033803037509847807
679,879.0,0.003428713342367244
680,880.0,0.00347831523517336
681,881.0,0.0035291476065423114
682,882.0,0.0035812486336132725
683,883.0,0.003634658451327437
684,884.0,0.0036894201313290116
685,885.0,0.0037455757663611864
686,886.0,0.003803172343672198
687,887.0,0.0038622568505102617
688,888.0,0.003922879210826614
689,889.0,0.003985090327473498
690,890.0,0.004048945997808178
691,891.0,0.004114500061385906
692,892.0,0.004181813210068975
693,893.0,0.004250947114620668
694,894.0,0.004321965403606299
695,895.0,0.0043949356211951795
696,896.0,0.004469928248259652
697,897.0,0.004547017681276057
698,898.0,0.004626280274522763
699,899.0,0.004707796297882151
700,900.0,0.0047916518946426335
701,901.0,0.004877936144795624
702,902.0,0.004966741065035563
703,903.0,0.0050581645454629105
704,904.0,0.005152309370683166
705,905.0,0.005249284198707827
706,906.0,0.005349201603152442
707,907.0,0.005452181988840577
708,908.0,0.00555834869729881
709,909.0,0.005667835837964781
710,910.0,0.00578078143588015
711,911.0,0.0058973323261956034
712,912.0,0.006017642196368878
713,913.0,0.006141875501768749
714,914.0,0.006270203550071026
715,915.0,0.00640280841686258
716,916.0,0.0065398809878393135
717,917.0,0.006681625853311187
718,918.0,0.006828256413697223
719,919.0,0.006980001731832505
720,920.0,0.007137102617364166
721,921.0,0.007299814563454432
722,922.0,0.007468409704582575
723,923.0,0.007643175837643975
724,924.0,0.007824419358653077
725,925.0,0.008012465262743422
726,926.0,0.008207662038672665
727,927.0,0.008410377753218545
728,928.0,0.008621007882386941
729,929.0,0.008839970416906836
730,930.0,0.009067716630141357
731,931.0,0.009304725204681787
732,932.0,0.009551511042456563
733,933.0,0.009808622328028281
734,934.0,0.01007664933870274
735,935.0,0.010356225423429946
736,936.0,0.01064802993950711
737,937.0,0.010952794125984704
738,938.0,0.011271305019270464
739,939.0,0.011604411326535401
740,940.0,0.011953027341317856
741,941.0,0.012318142732533517
742,942.0,0.012700827438980456
743,943.0,0.013102239500547164
744,944.0,0.013523636805024608
745,945.0,0.013966382961512244
746,946.0,0.01443196296283411
747,947.0,0.01492199395344988
748,948.0,0.015438239912969906
749,949.0,0.01598262633967032
750,950.0,0.016557263744117128
751,951.0,0.01716446135378027
752,952.0,0.017806758437865784
753,953.0,0.018486946822038903
754,954.0,0.019208104171058223
755,955.0,0.019973626292508827
756,956.0,0.02078727510295156
757,957.0,0.02165321778396316
758,958.0,0.022576086495097597
759,959.0,0.023561042981352334
760,960.0,0.024613845138436664
761,961.0,0.025740940008367137
762,962.0,0.026949560690667056
763,963.0,0.028247844789387966
764,964.0,0.02964497243815142
765,965.0,0.03115133467112163
766,966.0,0.03277871941419651
767,967.0,0.03454055229465467
768,968.0,0.03645216975453582
769,969.0,0.0385311548136853
770,970.0,0.040797739398067
771,971.0,0.0432752908535627
772,972.0,0.04599091201228786
773,973.0,0.04897616655823609
774,974.0,0.05226797863730241
775,975.0,0.05590974293102253
776,976.0,0.05995271175929637
777,977.0,0.0644577208828593
778,978.0,0.06949737147362145
779,979.0,0.0751587857209958
780,980.0,0.08154711912870277
781,981.0,0.08879005660708458
782,982.0,0.0970435899468347
783,983.0,0.10649949662267309
784,984.0,0.1173950338499954
785,985.0,0.13002553410409948
786,986.0,0.14476075570366606
787,987.0,0.16206600455773565
788,988.0,0.18252905100663336
789,989.0,0.20689358670050528
790,990.0,0.23609869976123177
791,991.0,0.27132056519731385
792,992.0,0.31400469479747145
793,993.0,0.36586003435758496
794,994.0,0.42875182688134167
795,995.0,0.5043687891753612
796,996.0,0.5934535174995655
797,997.0,0.694335824664452
798,998.0,0.8007283479642391
799,999.0,0.8996790318694124
800,1000.0,0.9722719731798978
801,1001.0,1.0
802,1002.0,0.9749406844235798
803,1003.0,0.90504809635285
804,1004.0,0.8088619395005935
805,1005.0,0.7053324745343456
806,1006.0,0.6074489591374005
807,1007.0,0.5215399765579444
808,1008.0,0.4493223263146177
809,1009.0,0.39010708039507797
810,1010.0,0.3422682949985291
811,1011.0,0.30401518331059774
812,1012.0,0.2737281976696521
813,1013.0,0.2500703394211389
814,1014.0,0.23199845837187943
815,1015.0,0.21873796777712012
816,1016.0,0.20975018624521571
817,1017.0,0.2047044968141559
818,1018.0,0.20345972335995263
819,1019.0,0.2060556170946023
820,1020.0,0.2127134536956987
821,1021.0,0.22384260858448138
822,1022.0,0.24004568832490167
823,1023.0,0.2621055680165194
824,1024.0,0.2909189660090311
825,1025.0,0.32730757670023664
826,1026.0,0.37159024380976335
827,1027.0,0.4227727328276345
828,1028.0,0.477332477298762
829,1029.0,0.5280901810357785
830,1030.0,0.5645934278869345
831,1031.0,0.5766200842462175
832,1032.0,0.5597738176006983
833,1033.0,0.5183934480714817
834,1034.0,0.46264198364389947
835,1035.0,0.4029093924590115
836,1036.0,0.3463073492016854
837,1037.0,0.2962834962230152
838,1038.0,0.25374733827762
839,1039.0,0.21828247437175008
840,1040.0,0.18895309570189062
841,1041.0,0.16472713323423555
842,1042.0,0.14465919472443464
843,1043.0,0.1279493937312695
844,1044.0,0.11394651734030427
845,1045.0,0.1021302170179085
846,1046.0,0.0920880240156681
847,1047.0,0.08349358154874509
848,1048.0,0.0760882062165543
849,1049.0,0.06966604199012696
850,1050.0,0.06406241324795754
851,1051.0,0.05914480322434485
852,1052.0,0.05480590283335829
853,1053.0,0.050958254122540264
854,1054.0,0.0475301251840728
855,1055.0,0.04446230914849222
856,1056.0,0.0417056416917415
857,1057.0,0.039219055958873976
858,1058.0,0.03696805254178313
859,1059.0,0.034923496409867846
860,1060.0,0.033060651713641885
861,1061.0,0.0313584153052472
862,1062.0,0.029798700030821086
863,1063.0,0.0283659305964787
864,1064.0,0.027046644176703237
865,1065.0,0.025829148777895248
866,1066.0,0.024703257956200486
867,1067.0,0.0236600627335757
868,1068.0,0.022691743648795816
869,1069.0,0.021791415112194224
870,1070.0,0.020952996190730083
871,1071.0,0.020171101949976872
872,1072.0,0.019440948500724912
873,1073.0,0.018758274686901014
874,1074.0,0.018119278457003146
875,1075.0,0.01752055715113918
876,1076.0,0.01695906051377866
877,1077.0,0.016432050558811608
878,1078.0,0.015937061434607342
879,1079.0,0.01547187103588532
880,1080.0,0.015034476531190055
881,1081.0,0.014623065974761948
882,1082.0,0.014236001665220249
883,1083.0,0.013871803504245933
884,1084.0,0.013529128439660636
885,1085.0,0.013206765570921626
886,1086.0,0.012903614613299676
887,1087.0,0.012618683940077093
888,1088.0,0.012351076877933622
889,1089.0,0.012099986812441448
890,1090.0,0.011864686420154112
891,1091.0,0.011644529626408561
892,1092.0,0.011438935942909036
893,1093.0,0.011247396341133132
894,1094.0,0.011069462484420716
895,1095.0,0.010904748685775964
896,1096.0,0.010752926034461324
897,1097.0,0.010613722395997493
898,1098.0,0.010486920454361443
899,1099.0,0.010372359669788419
900,1100.0,0.010269931384266906
901,1101.0,0.01017958175824165
902,1102.0,0.010101315686217662
903,1103.0,0.010035192881156235
904,1104.0,0.00998133276897994
905,1105.0,0.009939919383077634
906,1106.0,0.00991120038540351
907,1107.0,0.009895495876586067
908,1108.0,0.009893202311532198
909,1109.0,0.009904798372833163
910,1110.0,0.009930852801972659
911,1111.0,0.00997203614613887
912,1112.0,0.010029129568333494
913,1113.0,0.010103035615282812
914,1114.0,0.010194798774358775
915,1115.0,0.010305619178193066
916,1116.0,0.010436875119400231
917,1117.0,0.010590149480904754
918,1118.0,0.01076725420846624
919,1119.0,0.01097027436122456
920,1120.0,0.011201601394334062
921,1121.0,0.011463986019617775
922,1122.0,0.011760603791934754
923,1123.0,0.01209511775884437
924,1124.0,0.012471774392904736
925,1125.0,0.012895506376278244
926,1126.0,0.013372062794565143
927,1127.0,0.013908167718766304
928,1128.0,0.014511718922187162
929,1129.0,0.015192028690084855
930,1130.0,0.015960127278979674
931,1131.0,0.016829140772442838
932,1132.0,0.017814772700390773
933,1133.0,0.018935902147598972
934,1134.0,0.020215360022198654
935,1135.0,0.021680910893384434
936,1136.0,0.023366522626017298
937,1137.0,0.025314011913213474
938,1138.0,0.02757516653372245
939,1139.0,0.03021451759957208
940,1140.0,0.033312928207151676
941,1141.0,0.03697223636467695
942,1142.0,0.04132117049096109
943,1143.0,0.04652270096195956
944,1144.0,0.05278271513147329
945,1145.0,0.06035917984455204
946,1146.0,0.06956922770186706
947,1147.0,0.08078783750115676
948,1148.0,0.09442425153312392
949,1149.0,0.11084873714497166
950,1150.0,0.13022324665561066
951,1151.0,0.15217872851288555
952,1152.0,0.17533012393851916
953,1153.0,0.19682587864357892
954,1154.0,0.21250207177055874
955,1155.0,0.21828433428365893
956,1156.0,0.2124264908239905
957,1157.0,0.1966746658475902
958,1158.0,0.17510317944520742
959,1159.0,0.15187589961369413
960,1160.0,0.12984433169693257
961,1161.0,0.11039348161254574
962,1162.0,0.0938923509887377
963,1163.0,0.08017893366704253
964,1164.0,0.06888291139740489
965,1165.0,0.059594987070665746
966,1166.0,0.05194012707063039
967,1167.0,0.04560114495707235
968,1168.0,0.040320017108683576
969,1169.0,0.0358907984165039
970,1170.0,0.03215046074941853
971,1171.0,0.02897021499675204
972,1172.0,0.026248163437327405
973,1173.0,0.02390337836728902
974,1174.0,0.02187126602494472
975,1175.0,0.0200999691295737
976,1176.0,0.01854760735949444
977,1177.0,0.01718013845336958
978,1178.0,0.01596972736113218
979,1179.0,0.01489346682037266
980,1180.0,0.013932400413136167
981,1181.0,0.01307074531852488
982,1182.0,0.012295291267481199
983,1183.0,0.011594920881295415
984,1184.0,0.01096023181581796
985,1185.0,0.01038323428104897
986,1186.0,0.009857104358085093
987,1187.0,0.009375993113423605
988,1188.0,0.008934861164692621
989,1189.0,0.008529352402421487
990,1190.0,0.008155684353128289
991,1191.0,0.007810564972734407
992,1192.0,0.00749111335558319
993,1193.0,0.007194805894884686
994,1194.0,0.006919418527556337
995,1195.0,0.006662990514885858
996,1196.0,0.006423787244293021
997,1197.0,0.006200265967794522
998,1198.0,0.005991056223983862
999,1199.0,0.005794934386605234
1000,1200.0,0.005610805065434456
1001,1201.0,0.005437687401664867
1002,1202.0,0.005274698426590291
1003,1203.0,0.005121045230396969
1004,1204.0,0.004976009299747493
1005,1205.0,0.004838942602176794
1006,1206.0,0.0047092568181810795
1007,1207.0,0.0045864204045148295
1008,1208.0,0.004469945868477734
1009,1209.0,0.0043593917257167
1010,1210.0,0.0042543546690178196
1011,1211.0,0.004154465652702345
1012,1212.0,0.004059387934824672
1013,1213.0,0.003968809245964324
1014,1214.0,0.003882447662631967
1015,1215.0,0.00380003986045735
1016,1216.0,0.0037213450297933345
1017,1217.0,0.003646141939012867
1018,1218.0,0.003574225018904977
1019,1219.0,0.0035054033837737617
1020,1220.0,0.00343950278924039
1021,1221.0,0.0033763607377380925
1022,1222.0,0.003315824520710147
1023,1223.0,0.0032577541553128965
1024,1224.0,0.0032020204266137134
1025,1225.0,0.003148500971987028
1026,1226.0,0.003097082238916303
1027,1227.0,0.0030476594849940357
1028,1228.0,0.0030001348201197657
1029,1229.0,0.0029544142697970482
1030,1230.0,0.0029104126696384786
1031,1231.0,0.0028680497497616778
1032,1232.0,0.002827249155888282
1033,1233.0,0.0027879404071459533
1034,1234.0,0.0027500579171673947
1035,1235.0,0.0027135370784862815
1036,1236.0,0.002678322093745358
1037,1237.0,0.002644355207785357
1038,1238.0,0.002611585517754027
1039,1239.0,0.0025799640786011413
1040,1240.0,0.0025494458608804815
1041,1241.0,0.0025199858351458372
1042,1242.0,0.0024915428875550193
1043,1243.0,0.0024640798198698414
1044,1244.0,0.002437559433852137
1045,1245.0,0.002411946489065732
1046,1246.0,0.00238720868177747
1047,1247.0,0.0023633156660562153
1048,1248.0,0.0023402380748718254
1049,1249.0,0.0023179475200951686
1050,1250.0,0.0022964185503001255
1051,1251.0,0.002275625714060563
1052,1252.0,0.00225554649665339
1053,1253.0,0.002236157404454485
1054,1254.0,0.002217437880542753
1055,1255.0,0.002199368346898103
1056,1256.0,0.002181928246599433
1057,1257.0,0.002165100938329671
1058,1258.0,0.0021488688018707304
1059,1259.0,0.002133216174806534
1060,1260.0,0.002118126415820011
1061,1261.0,0.002103585820297088
1062,1262.0,0.002089580683623701
1063,1263.0,0.002076096322284789
1064,1264.0,0.0020631219683692865
1065,1265.0,0.002050644896164145
1066,1266.0,0.0020386543377583118
1067,1267.0,0.0020271395252407292
1068,1268.0,0.0020160896907003524
1069,1269.0,0.0020054960240281404
1070,1270.0,0.001995348736214037
1071,1271.0,0.0019856409749510204
1072,1272.0,0.0019763619723280387
1073,1273.0,0.001967506833840067
1074,1274.0,0.0019590657704770557
1075,1275.0,0.0019510338877339877
1076,1276.0,0.0019434043333038194
1077,1277.0,0.0019361712337805377
1078,1278.0,0.001929327736857093
1079,1279.0,0.0019228709058304926
1080,1280.0,0.0019167938883936863
1081,1281.0,0.0019110927689426588
1082,1282.0,0.001905762652972399
1083,1283.0,0.001900801582680882
1084,1284.0,0.0018962036846620876
1085,1285.0,0.0018919670011140045
1086,1286.0,0.0018880885953336194
1087,1287.0,0.001884565530617919
1088,1288.0,0.0018813948702638892
1089,1289.0,0.001878574656469526
1090,1290.0,0.0018761039103338136
1091,1291.0,0.0018739806740547473
1092,1292.0,0.001872203968731325
1093,1293.0,0.0018707718365615356
1094,1294.0,0.0018696832986443768
1095,1295.0,0.0018689393338808507
1096,1296.0,0.001868538963369955
1097,1297.0,0.0018684821871116834
1098,1298.0,0.0018687699840070511
1099,1299.0,0.0018694013751550428
1100,1300.0,0.0018703783183576762
1101,1301.0,0.0018717027714169488
1102,1302.0,0.0018733737554318724
1103,1303.0,0.0018753942071054468
1104,1304.0,0.00187776608423969
1105,1305.0,0.0018804923235376152
1106,1306.0,0.001883573903900218
1107,1307.0,0.0018870137620305258
1108,1308.0,0.0018908148346315449
1109,1309.0,0.001894981037307291
1110,1310.0,0.0018995162856617865
1111,1311.0,0.001904423516398052
1112,1312.0,0.0019097076240210985
1113,1313.0,0.0019153715452339464
1114,1314.0,0.0019214221323436244
1115,1315.0,0.0019278633009541554
1116,1316.0,0.0019347009244715663
1117,1317.0,0.001941940876301884
1118,1318.0,0.0019495890298511353
1119,1319.0,0.001957652237426356
1120,1320.0,0.001966137351334576
1121,1321.0,0.0019750522027838333
1122,1322.0,0.0019844036440811565
1123,1323.0,0.001994200485335593
1124,1324.0,0.002004450557755181
1125,1325.0,0.002015163650349964
1126,1326.0,0.002026348573228981
1127,1327.0,0.0020380160943032845
1128,1328.0,0.0020501769814839257
1129,1329.0,0.002062841023780955
1130,1330.0,0.002076020946907427
1131,1331.0,0.002089728497675404
1132,1332.0,0.002103976401797941
1133,1333.0,0.0021187793427901057
1134,1334.0,0.002134150046364961
1135,1335.0,0.002150103196037581
1136,1336.0,0.0021666554331250375
1137,1337.0,0.002183821441142405
1138,1338.0,0.0022016207981097754
1139,1339.0,0.0022200691664432245
1140,1340.0,0.0022391861241628386
1141,1341.0,0.0022589912492887157
1142,1342.0,0.0022795060776429595
1143,1343.0,0.0023007521450476667
1144,1344.0,0.002322751966225942
1145,1345.0,0.0023455290348019077
1146,1346.0,0.002369109781102678
1147,1347.0,0.0023935196565543857
1148,1348.0,0.0024187870492861563
1149,1349.0,0.002444940347427122
1150,1350.0,0.002472011854710445
1151,1351.0,0.0025000328959682637
1152,1352.0,0.0025290377327357454
1153,1353.0,0.002559061605449058
1154,1354.0,0.0025901436701483926
1155,1355.0,0.0026223230828739267
1156,1356.0,0.002655640957467848
1157,1357.0,0.0026901423233763894
1158,1358.0,0.0027258731889467564
1159,1359.0,0.002762883478130185
1160,1360.0,0.0028012250726799294
1161,1361.0,0.0028409527910522358
1162,1362.0,0.0028821234095053904
1163,1363.0,0.0029248005566046803
1164,1364.0,0.002969046882014411
1165,1365.0,0.0030149328666069126
1166,1366.0,0.003062529970155524
1167,1367.0,0.0031119165047406136
1168,1368.0,0.003163172740244575
1169,1369.0,0.0032163877566588144
1170,1370.0,0.0032716535706777783
1171,1371.0,0.0033290661145999162
1172,1372.0,0.0033887320886347356
1173,1373.0,0.00345076210859576
1174,1374.0,0.003515274621504551
1175,1375.0,0.0035823949266897055
1176,1376.0,0.003652258112489857
1177,1377.0,0.0037250090562537023
1178,1378.0,0.003800800466537955
1179,1379.0,0.0038797967987114035
1180,1380.0,0.003962175233855879
1181,1381.0,0.004048122742063275
1182,1382.0,0.004137842934742551
1183,1383.0,0.004231553127916744
1184,1384.0,0.004329487278925951
1185,1385.0,0.004431895986427372
1186,1386.0,0.004539050405999292
1187,1387.0,0.004651243229042087
1188,1388.0,0.004768788682778261
1189,1389.0,0.00489202840365842
1190,1390.0,0.0050213304584603175
1191,1391.0,0.0051570952176948496
1192,1392.0,0.005299755355606067
1193,1393.0,0.0054497827024782034
1194,1394.0,0.005607689223536687
1195,1395.0,0.0057740328923541594
1196,1396.0,0.0059494225853555125
1197,1397.0,0.006134524934124908
1198,1398.0,0.006330066283207783
1199,1399.0,0.006536845415823924
1200,1400.0,0.006755739427273487
1201,1401.0,0.0069877115561450456
1202,1402.0,0.007233824888929635
1203,1403.0,0.007495250191228802
1204,1404.0,0.007773286464675702
1205,1405.0,0.008069370735945157
1206,1406.0,0.008385098613674721
1207,1407.0,0.008722248760989827
1208,1408.0,0.009082803452424874
1209,1409.0,0.009468978919854357
1210,1410.0,0.009883262550731084
1211,1411.0,0.010328445191819266
1212,1412.0,0.010807676946551846
1213,1413.0,0.011324513183377667
1214,1414.0,0.011882985995534856
1215,1415.0,0.012487676639725111
1216,1416.0,0.013143811468412217
1217,1417.0,0.013857369608932512
1218,1418.0,0.014635214136229533
1219,1419.0,0.01548525652822277
1220,1420.0,0.01641664559370159
1221,1421.0,0.01744000828197237
1222,1422.0,0.018567736500852854
1223,1423.0,0.01981434735224184
1224,1424.0,0.021196922658670302
1225,1425.0,0.022735663021269996
1226,1426.0,0.024454573050476706
1227,1427.0,0.026382333566825376
1228,1428.0,0.028553400906778322
1229,1429.0,0.03100940479335988
1230,1430.0,0.03380094266169789
1231,1431.0,0.03698989084429563
1232,1432.0,0.040652382387888
1233,1433.0,0.04488268350141981
1234,1434.0,0.04979822217050666
1235,1435.0,0.05554611840603694
1236,1436.0,0.06231162628643572
1237,1437.0,0.07032888424849786
1238,1438.0,0.07989428883291327
1239,1439.0,0.09138226575835279
1240,1440.0,0.10526192592206196
1241,1441.0,0.1221099496948843
1242,1442.0,0.14260819350830484
1243,1443.0,0.16750081007484288
1244,1444.0,0.1974610806531828
1245,1445.0,0.23278353501979876
1246,1446.0,0.27279723540501133
1247,1447.0,0.3149839609321862
1248,1448.0,0.35415912786451714
1249,1449.0,0.38275203819474374
1250,1450.0,0.39335480375179627
1251,1451.0,0.38279262245149515
1252,1452.0,0.354240323787248
1253,1453.0,0.3151058184448478
1254,1454.0,0.27295983184078304
1255,1455.0,0.232986975121088
1256,1456.0,0.19770549363492235
1257,1457.0,0.16778635256119337
1258,1458.0,0.14293504757485315
1259,1459.0,0.1224783238475444
1260,1460.0,0.105672058033778
1261,1461.0,0.091834420132396
1262,1462.0,0.08038875816068408
1263,1463.0,0.07086598863062477
1264,1464.0,0.06289171519057737
1265,1465.0,0.05616957164578314
1266,1466.0,0.05046544794757634
1267,1467.0,0.04559412232126506
1268,1468.0,0.04140850510189205
1269,1469.0,0.03779120060757488
1270,1470.0,0.03464797689090387
1271,1471.0,0.03190273222997629
1272,1472.0,0.029493627490527037
1273,1473.0,0.02737010047786443
1274,1474.0,0.02549055670940031
1275,1475.0,0.023820579983613546
1276,1476.0,0.022331528636009384
1277,1477.0,0.02099943623329121
1278,1478.0,0.019804146224872487
1279,1479.0,0.018728619859866444
1280,1480.0,0.017758385065820493
1281,1481.0,0.0168810949643631
1282,1482.0,0.016086173509040142
1283,1483.0,0.015364520836112474
1284,1484.0,0.014708278328314858
1285,1485.0,0.01411063577135801
1286,1486.0,0.013565671793064855
1287,1487.0,0.013068220732833917
1288,1488.0,0.012613760068023755
1289,1489.0,0.01219832427066457
1290,1490.0,0.011818423558674823
1291,1491.0,0.011470981246196933
1292,1492.0,0.011153275988438
1293,1493.0,0.010862901646728615
1294,1494.0,0.010597721280175647
1295,1495.0,0.010355835820830096
1296,1496.0,0.010135558622260976
1297,1497.0,0.009935387071426152
1298,1498.0,0.009753980073949278
1299,1499.0,0.009590146307307696
1300,1500.0,0.009442821706109376
1301,1501.0,0.009311059673082819
1302,1502.0,0.009194016395562022
1303,1503.0,0.009090944972080463
1304,1504.0,0.00900118170775698
1305,1505.0,0.008924142198691812
1306,1506.0,0.00885931154295651
1307,1507.0,0.008806243361692964
1308,1508.0,0.008764548052301325
1309,1509.0,0.008733893767341024
1310,1510.0,0.00871400249892674
1311,1511.0,0.00870464224752037
1312,1512.0,0.008705630937535057
1313,1513.0,0.008716830543929141
1314,1514.0,0.008738145134404175
1315,1515.0,0.008769522827206909
1316,1516.0,0.008810948938822269
1317,1517.0,0.008862453815181408
1318,1518.0,0.00892410402155263
1319,1519.0,0.008996009194848466
1320,1520.0,0.009078318128021614
1321,1521.0,0.009171221706767976
1322,1522.0,0.009274955846229678
1323,1523.0,0.009389797575391034
1324,1524.0,0.009516072868286589
1325,1525.0,0.009654156644001108
1326,1526.0,0.009804474724471626
1327,1527.0,0.009967508728992411
1328,1528.0,0.010143798032017034
1329,1529.0,0.010333948573267355
1330,1530.0,0.010538633836634571
1331,1531.0,0.010758601702486225
1332,1532.0,0.010994682278874256
1333,1533.0,0.011247794753842024
1334,1534.0,0.011518959142236353
1335,1535.0,0.011809303138014596
1336,1536.0,0.012120074839957667
1337,1537.0,0.012452656456284114
1338,1538.0,0.012808582903769223
1339,1539.0,0.013189552575656035
1340,1540.0,0.013597455729784512
1341,1541.0,0.014034393087710617
1342,1542.0,0.014502705201736436
1343,1543.0,0.015005004758643357
1344,1544.0,0.015544214756831234
1345,1545.0,0.016123608641259585
1346,1546.0,0.01674686414300284
1347,1547.0,0.017418124950013644
1348,1548.0,0.01814206923019317
1349,1549.0,0.018923994795778533
1350,1550.0,0.01976991993014625
1351,1551.0,0.02068670281373484
1352,1552.0,0.021682189338096493
1353,1553.0,0.02276538245577087
1354,1554.0,0.023946658517407172
1355,1555.0,0.02523802276492629
1356,1556.0,0.02665342649544636
1357,1557.0,0.02820915666388259
1358,1558.0,0.029924319460043525
1359,1559.0,0.031821441353847964
1360,1560.0,0.03392722676470247
1361,1561.0,0.03627350563767394
1362,1562.0,0.038898446301834276
1363,1563.0,0.04184809038703571
1364,1564.0,0.04517833607734622
1365,1565.0,0.04895747738025551
1366,1566.0,0.053269503023060674
1367,1567.0,0.058218365440147496
1368,1568.0,0.06393351156366653
1369,1569.0,0.07057701411735201
1370,1570.0,0.07835265092333984
1371,1571.0,0.0875171818417411
1372,1572.0,0.0983936628032061
1373,1573.0,0.11138555470910422
1374,1574.0,0.1269878006752925
1375,1575.0,0.14578540564675793
1376,1576.0,0.1684187461038149
1377,1577.0,0.1954745586673276
1378,1578.0,0.22723301557273504
1379,1579.0,0.26318501879565304
1380,1580.0,0.30130641543780606
1381,1581.0,0.3373844218191403
1382,1582.0,0.365251611163864
1383,1583.0,0.3788923538960736
1384,1584.0,0.37580541698716946
1385,1585.0,0.358756116484278
1386,1586.0,0.33403796259148993
1387,1587.0,0.3081248113816835
1388,1588.0,0.28558107658588827
1389,1589.0,0.268847196585811
1390,1590.0,0.258936098985013
1391,1591.0,0.2561851424367233
1392,1592.0,0.2607659850633137
1393,1593.0,0.2729585416492589
1394,1594.0,0.2932571464339912
1395,1595.0,0.3223394612581906
1396,1596.0,0.36086203992017424
1397,1597.0,0.40897248992353075
1398,1598.0,0.46538631792689267
1399,1599.0,0.5260070992759247
1400,1600.0,0.5826458797090539
1401,1601.0,0.6234466840461665
1402,1602.0,0.6368303928259839
1403,1603.0,0.6177982764564408
1404,1604.0,0.5712084855352273
1405,1605.0,0.5084922207295135
1406,1606.0,0.4413423409872082
1407,1607.0,0.3777606249087872
1408,1608.0,0.3216219082226704
1409,1609.0,0.27394249867758796
1410,1610.0,0.23424608653830625
1411,1611.0,0.20147243978911583
1412,1612.0,0.1744540447376045
1413,1613.0,0.15212206189152896
1414,1614.0,0.13357243016475692
1415,1615.0,0.11806927247386233
1416,1616.0,0.10502469513699347
1417,1617.0,0.0939727716218729
1418,1618.0,0.08454493689014456
1419,1619.0,0.07644912799586608
1420,1620.0,0.06945300865899218
1421,1621.0,0.06337079717345624
1422,1622.0,0.05805306723760297
1423,1623.0,0.053378888358022174
1424,1624.0,0.04924976743123096
1425,1625.0,0.045584984280386744
1426,1626.0,0.042317969721569954
1427,1627.0,0.03939350003350485
1428,1628.0,0.03676549247249698
1429,1629.0,0.034395281427764074
1430,1630.0,0.03225024893893053
1431,1631.0,0.03030274007371426
1432,1632.0,0.02852919268493357
1433,1633.0,0.02690943749628886
1434,1634.0,0.025426137192086955
1435,1635.0,0.024064321439263896
1436,1636.0,0.022811011968300154
1437,1637.0,0.021654919113909227
1438,1638.0,0.020586181427370363
1439,1639.0,0.019596156191713603
1440,1640.0,0.01867724517734093
1441,1641.0,0.017822746827974568
1442,1642.0,0.017026729982427418
1443,1643.0,0.016283933047799532
1444,1644.0,0.015589674919486714
1445,1645.0,0.014939778626902177
1446,1646.0,0.014330507704911209
1447,1647.0,0.013758513333176932
1448,1648.0,0.013220786370011083
1449,1649.0,0.01271461428072981
1450,1650.0,0.012237549812821505
1451,1651.0,0.011787381628916682
1452,1652.0,0.011362101024153836
1453,1653.0,0.01095988822156533
1454,1654.0,0.01057908496284931
1455,1655.0,0.010218180803755611
1456,1656.0,0.009875797451669697
1457,1657.0,0.009550675060998604
1458,1658.0,0.00924165657075484
1459,1659.0,0.008947683788952398
1460,1660.0,0.008667784666893661
1461,1661.0,0.008401062531258392
1462,1662.0,0.008146692168499666
1463,1663.0,0.007903913951437889
1464,1664.0,0.0076720250291517226
1465,1665.0,0.007450374432473091
1466,1666.0,0.007238361116185139
1467,1667.0,0.007035426127814217
1468,1668.0,0.006841051628728876
1469,1669.0,0.006654756978535827
1470,1670.0,0.006476092861673957
1471,1671.0,0.006304643245216278
1472,1672.0,0.006140019505463949
1473,1673.0,0.005981858470144262
1474,1674.0,0.005829822418410605
1475,1675.0,0.005683593207436474
1476,1676.0,0.005542874230217461
1477,1677.0,0.0054073894366702515
1478,1678.0,0.00527687746022662
1479,1679.0,0.005151095533437409
1480,1680.0,0.005029812635665524
1481,1681.0,0.004912813408689944
1482,1682.0,0.004799897177804717
1483,1683.0,0.004690871099511928
1484,1684.0,0.004585557992729742
1485,1685.0,0.004483785570881337
1486,1686.0,0.0043853972098059696
1487,1687.0,0.0042902402009469195
1488,1688.0,0.004198172603658517
1489,1689.0,0.004109060308503118
1490,1690.0,0.004022775079449125
1491,1691.0,0.00393919846947497
1492,1692.0,0.003858213989361095
1493,1693.0,0.003779715917799016
1494,1694.0,0.003703600491282225
1495,1695.0,0.0036297707986112705
1496,1696.0,0.0035581338441907032
1497,1697.0,0.0034886034847321306
1498,1698.0,0.0034210965136501456
1499,1699.0,0.0033555326610623685
1500,1700.0,0.0032918365515914455
1501,1701.0,0.0032299377043650455
1502,1702.0,0.0031697675963128363
1503,1703.0,0.0031112606410675053
1504,1704.0,0.0030543551678657707
1505,1705.0,0.0029989934215483576
1506,1706.0,0.002945116668054976
1507,1707.0,0.0028926730256323935
1508,1708.0,0.0028416106125273557
1509,1709.0,0.0027918804836896353
1510,1710.0,0.0027434356518710036
1511,1711.0,0.0026962310876252494
1512,1712.0,0.0026502237193081726
1513,1713.0,0.002605374390879583
1514,1714.0,0.0025616419884972918
1515,1715.0,0.0025189893139231185
1516,1716.0,0.0024773801478198865
1517,1717.0,0.0024367812075534448
1518,1718.0,0.0023971582315886345
1519,1719.0,0.0023584798950932956
1520,1720.0,0.0023207148732352894
1521,1721.0,0.0022838357567864782
1522,1722.0,0.002247814157617737
1523,1723.0,0.0022126216875999185
1524,1724.0,0.0021782338742079212
1525,1725.0,0.0021446252660156182
1526,1726.0,0.0021117713904978863
1527,1727.0,0.0020796507118326355
1528,1728.0,0.0020482407152967465
1529,1729.0,0.0020175188861671282
1530,1730.0,0.0019874666253246764
1531,1731.0,0.0019580623969473014
1532,1732.0,0.0019292885808169088
1533,1733.0,0.0019011265778144228
1534,1734.0,0.0018735587677217484
1535,1735.0,0.001846567530320812
1536,1736.0,0.0018201372031955302
1537,1737.0,0.0017942511450288242
1538,1738.0,0.001768895651206643
1539,1739.0,0.0017440550593128962
1540,1740.0,0.0017197146858325234
1541,1741.0,0.0016958618050524547
1542,1742.0,0.001672482712358639
1543,1743.0,0.001649564682038006
1544,1744.0,0.0016270959672785024
1545,1745.0,0.0016050628634660695
1546,1746.0,0.0015834555815906442
1547,1747.0,0.0015622633537411956
1548,1748.0,0.0015414734542046537
1549,1749.0,0.0015210760939709694
1550,1750.0,0.0015010624629311015
1551,1751.0,0.001481421793174006
1552,1752.0,0.0014621442956896263
1553,1753.0,0.0014432211603689288
1554,1754.0,0.0014246445560038752
1555,1755.0,0.001406403714683414
1556,1756.0,0.0013884927630015186
1557,1757.0,0.0013709009330471298
1558,1758.0,0.00135362333031523
1559,1759.0,0.0013366501657957766
1560,1760.0,0.0013199755660827429
1561,1761.0,0.0013035907210670744
1562,1762.0,0.0012874907362437605
1563,1763.0,0.0012716677804047627
1564,1764.0,0.001256115001243038
1565,1765.0,0.0012408265253525735
1566,1766.0,0.0012257964793273284
1567,1767.0,0.0012110189897612828
1568,1768.0,0.0011964881832484025
1569,1769.0,0.001182198186382668
1570,1770.0,0.001168143125758052
1571,1771.0,0.001154319085770525
1572,1772.0,0.001140719214113058
1573,1773.0,0.0011273395951816355
1574,1774.0,0.0011141753344712394
1575,1775.0,0.0011012215374768383
1576,1776.0,0.001088473309693414
1577,1777.0,0.0010759267355169376
1578,1778.0,0.0010635778993434068
1579,1779.0,0.001051420927766781
1580,1780.0,0.0010394528840840535
1581,1781.0,0.001027669852691202
1582,1782.0,0.0010160669390832018
1583,1783.0,0.0010046421854580483
1584,1784.0,0.0009933897184097075
1585,1785.0,0.0009823075801361823
1586,1786.0,0.0009713908761324341
1587,1787.0,0.0009606376485964652
1588,1788.0,0.0009500439819242533
1589,1789.0,0.0009396069394127779
1590,1790.0,0.0009293226054580303
1591,1791.0,0.00091918804335699
1592,1792.0,0.0009092003164066505
1593,1793.0,0.0008993574668049938
1594,1794.0,0.0008896555789480041
1595,1795.0,0.0008800917161326748
1596,1796.0,0.0008706639205569879
1597,1797.0,0.0008613702344189318
1598,1798.0,0.0008522057632134959
1599,1799.0,0.0008431705069406661
1600,1800.0,0.0008342595710954248
1601,1801.0,0.0008254729556777788
1602,1802.0,0.0008168067450836986
1603,1803.0,0.0008082589815111799
1604,1804.0,0.0007998286860592205
1605,1805.0,0.0007915119431238049
1606,1806.0,0.0007833067949029077
1607,1807.0,0.0007752122624955408
1608,1808.0,0.0007672254091986836
1609,1809.0,0.0007593442772103249
1610,1810.0,0.0007515678876294625
1611,1811.0,0.0007438933037530901
1612,1812.0,0.0007363195466801844
1613,1813.0,0.0007288436797077529
1614,1814.0,0.0007214647239347726
1615,1815.0,0.0007141807215592461
1616,1816.0,0.0007069906936801643
1617,1817.0,0.0006998926824955228
1618,1818.0,0.0006928837513023011
1619,1819.0,0.0006859639001004995
1620,1820.0,0.0006791311710881134
1621,1821.0,0.0006723836064631316
1622,1822.0,0.000665721206225547
1623,1823.0,0.0006591400547713512
1624,1824.0,0.0006526411310015462
1625,1825.0,0.0006462214982131185
1626,1826.0,0.0006398801775050592
1627,1827.0,0.0006336161899763658
1628,1828.0,0.0006274285567260363
1629,1829.0,0.0006213153199520595
1630,1830.0,0.0006152755007534332
1631,1831.0,0.0006093071413281459
1632,1832.0,0.0006034102416761909
1633,1833.0,0.0005975828439955705
1634,1834.0,0.0005918249482862782
1635,1835.0,0.0005861336178453002
1636,1836.0,0.0005805098315736457
1637,1837.0,0.0005749506527682943
1638,1838.0,0.000569456081429246
1639,1839.0,0.0005640251386555056
1640,1840.0,0.0005586558666450549
1641,1841.0,0.0005533482653978937
1642,1842.0,0.0005481013560130271
1643,1843.0,0.0005429131806884296
1644,1844.0,0.0005377837394241222
1645,1845.0,0.0005327120533190819
1646,1846.0,0.0005276971434723064
1647,1847.0,0.0005227380309828007
1648,1848.0,0.0005178337369495555
1649,1849.0,0.0005129842613725708
1650,1850.0,0.0005081876464498354
1651,1851.0,0.0005034429132803401
1652,1852.0,0.0004987500618640989
1653,1853.0,0.0004941090922010978
1654,1854.0,0.0004895170675883303
1655,1855.0,0.0004849749669268056
1656,1856.0,0.00048048181131550756
1657,1857.0,0.000476036621853434
1658,1858.0,0.0004716384196395897
1659,1859.0,0.0004672872046739608
1660,1860.0,0.00046298101915454997
1661,1861.0,0.00045872084198235924
1662,1862.0,0.0004545047153553704
1663,1863.0,0.0004503336181745996
1664,1864.0,0.0004462046137370333
1665,1865.0,0.00044211868094365983
1666,1866.0,0.00043807484089349784
1667,1867.0,0.00043407211468552434
1668,1868.0,0.0004301105023197462
1669,1869.0,0.00042618902489515435
1670,1870.0,0.00042230768241175576
1671,1871.0,0.00041846549596854827
1672,1872.0,0.00041466148666451574
1673,1873.0,0.0004108956544996652
1674,1874.0,0.00040716799947399657
1675,1875.0,0.0004034765637854986
1676,1876.0,0.00039982232633517344
1677,1877.0,0.0003962043082220259
1678,1878.0,0.00039262055164403773
1679,1879.0,0.00038907301440322723
1680,1880.0,0.0003855597386975691
1681,1881.0,0.00038208072452707725
1682,1882.0,0.0003786349929907496
1683,1883.0,0.0003752225440885722
1684,1884.0,0.00037184337782055193
1685,1885.0,0.00036849651528569373
1686,1886.0,0.0003651809775829744
1687,1887.0,0.00036189774361341013
1688,1888.0,0.00035864485557499657
1689,1889.0,0.00035542231346771976
1690,1890.0,0.0003522310961925889
1691,1891.0,0.0003490692459476065
1692,1892.0,0.00034593676273275876
1693,1893.0,0.0003428336465480456
1694,1894.0,0.00033975891849247187
1695,1895.0,0.00033671257856603056
1696,1896.0,0.00033369462676872865
1697,1897.0,0.0003307040841995501
1698,1898.0,0.0003277409508585087
1699,1899.0,0.0003248042478445885
1700,1900.0,0.0003218949540587986
1701,1901.0,0.0003190111116991276
1702,1902.0,0.00031615369966658477
1703,1903.0,0.0003133217390601609
1704,1904.0,0.000310515229879856
1705,1905.0,0.0003077341721256771
1706,1906.0,0.000304977586896608
1707,1907.0,0.00030224449529165357
1708,1908.0,0.0002995368551128181
1709,1909.0,0.00029685172965708816
1710,1910.0,0.000294191076726482
1711,1911.0,0.0002915529385189744
1712,1912.0,0.0002889382939355814
1713,1913.0,0.00028634518517429183
1714,1914.0,0.0002837755700371099
1715,1915.0,0.0002812274907220313
1716,1916.0,0.0002787019261300583
1717,1917.0,0.0002761978973601886
1718,1918.0,0.0002737144255114201
1719,1919.0,0.00027125248948474797
1720,1920.0,0.00026881208928017917
1721,1921.0,0.0002663912670957094
1722,1922.0,0.000263991001832327
1723,1923.0,0.00026161129349005265
1724,1924.0,0.0002592511631678634
1725,1925.0,0.00025691061086576623
1726,1926.0,0.0002545886576827659
1727,1927.0,0.00025228726142085287
1728,1928.0,0.00025000446427803666
1729,1929.0,0.00024774026625430336
1730,1930.0,0.00024549466734966
1731,1931.0,0.00024326766756409954
1732,1932.0,0.0002410582879966268
1733,1933.0,0.0002388665286472418
1734,1934.0,0.00023669336841693976
1735,1935.0,0.0002345368495037163
1736,1936.0,0.0002323989297095827
1737,1937.0,0.00023027667233152557
1738,1938.0,0.00022817203517154917
1739,1939.0,0.00022608501822965357
1740,1940.0,0.0002240136637038344
1741,1941.0,0.00022195895049509378
1742,1942.0,0.00021991989970242964
1743,1943.0,0.00021789749022684408
1744,1944.0,0.00021589074316733496
1745,1945.0,0.0002138996585238953
1746,1946.0,0.0002119232573955299
1747,1947.0,0.00020996349758423615
1748,1948.0,0.00020801842128801668
1749,1949.0,0.00020608802850686448
1750,1950.0,0.00020417329814178875
1751,1951.0,0.00020227227239077812
1752,1952.0,0.00020038690905584394
1753,1953.0,0.00019851525033497488
1754,1954.0,0.00019665729622816403
1755,1955.0,0.0001948140256364274
1756,1956.0,0.00019298445965875596
1757,1957.0,0.00019116957719615178
1758,1958.0,0.0001893674204466106
1759,1959.0,0.00018757896831113455
1760,1960.0,0.0001858042207897236
1761,1961.0,0.00018404219898136872
1762,1962.0,0.00018229290288607677
1763,1963.0,0.00018055731140484999
1764,1964.0,0.00017883444563668614
1765,1965.0,0.00017712430558157832
1766,1966.0,0.0001754259123385313
1767,1967.0,0.00017374122370954247
1768,1968.0,0.00017206828189261444
1769,1969.0,0.00017040708688774024
1770,1970.0,0.00016875763869491988
1771,1971.0,0.0001671209162151625
1772,1972.0,0.00016549594054745897
1773,1973.0,0.00016388271169180929
1774,1974.0,0.0001622812296482204
1775,1975.0,0.00016069051551568318
1776,1976.0,0.00015911154819519982
1777,1977.0,0.00015754334878576116
1778,1978.0,0.00015598689618838332
1779,1979.0,0.00015444121150205714
1780,1980.0,0.00015290629472678265
1781,1981.0,0.00015138214586255983
1782,1982.0,0.00014986876490938867
1783,1983.0,0.00014836615186726226
1784,1984.0,0.00014687430673619446
1785,1985.0,0.00014539225061516924
1786,1986.0,0.00014392096240519565
1787,1987.0,0.00014245946320526464
1788,1988.0,0.00014100775301538313
1789,1989.0,0.00013956681073655332
1790,1990.0,0.00013813467856676386
1791,1991.0,0.0001367133143080261
1792,1992.0,0.00013530173905933784
1793,1993.0,0.00013389897391968996
1794,1994.0,0.00013250599779008463
1795,1995.0,0.00013112281067052882
1796,1996.0,0.0001297494125610225
1797,1997.0,0.00012838384565954744
1798,1998.0,0.0001270280677681219
1799,1999.0,0.00012568207888673892
1800,2000.0,0.00012434392121339413
