pixel_index,raman_shift_cm-1,intensity
0,200.0,0.043443909503840174
1,201.0,0.03781454817991398
2,202.0,0.0337222201275616
3,203.0,0.030919958766681716
4,204.0,0.029160797517173043
5,205.0,0.02819776979893428
6,206.0,0.028155990655943472
7,207.0,0.026121478299627188
8,208.0,0.028590543616479905
9,209.0,0.028914554262840196
10,210.0,0.029086923931752082
11,211.0,0.03728898900815638
12,212.0,0.03337789100374301
13,213.0,0.04141266126026157
14,214.0,0.043662434389045775
15,215.0,0.04346826050204025
16,216.0,0.04509289240819729
17,217.0,0.04206798255828902
18,218.0,0.046405955352407685
19,219.0,0.04078853545066711
20,220.0,0.03389967493601886
21,221.0,0.030055161023492996
22,222.0,0.024337281352085162
23,223.0,0.029995431664265073
24,224.0,0.02933399987984722
25,225.0,0.02505204555123041
26,226.0,0.028760908905727186
27,227.0,0.027917432196131325
28,228.0,0.03466568377187162
29,229.0,0.033489011855668646
30,230.0,0.03531104992383944
31,231.0,0.033091869856610806
32,232.0,0.03605647123950386
33,233.0,0.04149698581254982
34,234.0,0.04147951231588865
35,235.0,0.0403393452904439
36,236.0,0.046881149009003614
37,237.0,0.045611996647578444
38,238.0,0.04683743788791563
39,239.0,0.045176909217763295
40,240.0,0.04600303847159695
41,241.0,0.03877922816286935
42,242.0,0.03470491466375961
43,243.0,0.03501656371844518
44,244.0,0.035918541136965305
45,245.0,0.03782881721829442
46,246.0,0.03969501109374072
47,247.0,0.03409373142784025
48,248.0,0.03621548456447949
49,249.0,0.03478258214291729
50,250.0,0.03387439608041525
51,251.0,0.030024620559515748
52,252.0,0.028259123401243046
53,253.0,0.03269267275681049
54,254.0,0.035640706188095776
55,255.0,0.03614730530554307
56,256.0,0.0345836775273579
57,257.0,0.03414824336331497
58,258.0,0.04137657433492362
59,259.0,0.037920585765946216
60,260.0,0.03404669596349224
61,261.0,0.03246491544460605
62,262.0,0.028657417196268072
63,263.0,0.027922294756355652
64,264.0,0.025408434337396455
65,265.0,0.02393594075913366
66,266.0,0.024499219662871226
67,267.0,0.030167405826612422
68,268.0,0.03845480567504524
69,269.0,0.04267834449767991
70,270.0,0.04248864762472448
71,271.0,0.04234710482476197
72,272.0,0.036544903836164495
73,273.0,0.031369372735637696
74,274.0,0.026989268519163116
75,275.0,0.03081427484846754
76,276.0,0.029801176170834227
77,277.0,0.03053801932393268
78,278.0,0.032161353151910974
79,279.0,0.0393262290464368
80,280.0,0.03729892264527435
81,281.0,0.03444385098171546
82,282.0,0.03147031120822713
83,283.0,0.03053296856788722
84,284.0,0.029404644756768458
85,285.0,0.03589846865996127
86,286.0,0.03528439386436532
87,287.0,0.031560891623507725
88,288.0,0.0314313325185042
89,289.0,0.029972159596242578
90,290.0,0.02658287693664395
91,291.0,0.02581299114569287
92,292.0,0.028196976955950446
93,293.0,0.02817676774566254
94,294.0,0.028602152812718086
95,295.0,0.03280166588989548
96,296.0,0.03251176094426793
97,297.0,0.0311771720870236
98,298.0,0.032944928870618326
99,299.0,0.025925437713677914
100,300.0,0.027337935619850023
101,301.0,0.030697455913593144
102,302.0,0.03314762926951607
103,303.0,0.02801457423611259
104,304.0,0.026236577979404235
105,305.0,0.02320312808496176
106,306.0,0.02315977284375433
107,307.0,0.02708766502630576
108,308.0,0.029100360000680624
109,309.0,0.027090218712728382
110,310.0,0.03282914289084724
111,311.0,0.03581176250236162
112,312.0,0.03752253081288742
113,313.0,0.03652122754078789
114,314.0,0.03278476166425363
115,315.0,0.02877971142485773
116,316.0,0.026075811817536168
117,317.0,0.025778149800802595
118,318.0,0.0208327984469269
119,319.0,0.01980242000602817
120,320.0,0.02493529286479963
121,321.0,0.027678669816322433
122,322.0,0.03212709897806692
123,323.0,0.034312490191463665
124,324.0,0.03127867311432047
125,325.0,0.028228845761570316
126,326.0,0.02670800265670553
127,327.0,0.026606004337844488
128,328.0,0.02575328819766436
129,329.0,0.029857113813144247
130,330.0,0.03236217746323661
131,331.0,0.03329937409968245
132,332.0,0.034003129722811595
133,333.0,0.0322949670423677
134,334.0,0.030029565393993148
135,335.0,0.027900488689428418
136,336.0,0.02751506694464199
137,337.0,0.030461748976004597
138,338.0,0.03148475398623275
139,339.0,0.03194858080375999
140,340.0,0.03013920231724693
141,341.0,0.030727390556696897
142,342.0,0.03288449395317283
143,343.0,0.032999081483041134
144,344.0,0.03368599575005823
145,345.0,0.03320013021002582
146,346.0,0.030294163604251124
147,347.0,0.030663147265740563
148,348.0,0.028195424228696652
149,349.0,0.03046918553051869
150,350.0,0.029940584796784457
151,351.0,0.02754856971243403
152,352.0,0.027972843665290077
153,353.0,0.029489933913337225
154,354.0,0.02947994245118557
155,355.0,0.02903342962295584
156,356.0,0.02666891592478986
157,357.0,0.023424275279820952
158,358.0,0.024947637170131067
159,359.0,0.030267393335919622
160,360.0,0.03184510535127685
161,361.0,0.030540637674085318
162,362.0,0.032914387263342886
163,363.0,0.03460247132478714
164,364.0,0.033346943390544975
165,365.0,0.035484771217622356
166,366.0,0.036929078970290796
167,367.0,0.0334337315488374
168,368.0,0.03595488896038261
169,369.0,0.04075914934043585
170,370.0,0.038888115881304225
171,371.0,0.036961892107191446
172,372.0,0.03567602133433449
173,373.0,0.0305302179337944
174,374.0,0.026210279856500852
175,375.0,0.02163377312290856
176,376.0,0.02002077297261363
177,377.0,0.01970918956912113
178,378.0,0.02327778543757983
179,379.0,0.02598072168258357
180,380.0,0.024761169253122287
181,381.0,0.027075160188865372
182,382.0,0.03038538503382691
183,383.0,0.030953085059058052
184,384.0,0.03265683943057251
185,385.0,0.02890189228232258
186,386.0,0.030557072083723217
187,387.0,0.030026370280479452
188,388.0,0.028639504599168662
189,389.0,0.02251638443941546
190,390.0,0.022499723764308185
191,391.0,0.024454919993139902
192,392.0,0.02975937490712018
193,393.0,0.03716100130921407
194,394.0,0.041180554932850694
195,395.0,0.04320317154546696
196,396.0,0.04247525086846328
197,397.0,0.03990439824633856
198,398.0,0.03818257202836881
199,399.0,0.03209382057133462
200,400.0,0.030750920883245807
201,401.0,0.02707061435115353
202,402.0,0.02384996510586511
203,403.0,0.02722294401426556
204,404.0,0.02447993720490921
205,405.0,0.027768523374059807
206,406.0,0.024540482895464722
207,407.0,0.02785999606081828
208,408.0,0.030294847586172513
209,409.0,0.0312730111320084
210,410.0,0.029730047797575314
211,411.0,0.028362604749562436
212,412.0,0.025231475009827038
213,413.0,0.028080809810004638
214,414.0,0.027246924482639066
215,415.0,0.030379495167534715
216,416.0,0.02718791049851564
217,417.0,0.026724651237139848
218,418.0,0.02213732231131195
219,419.0,0.02275817814066768
220,420.0,0.02102715923323923
221,421.0,0.023740888595298795
222,422.0,0.02589137761619121
223,423.0,0.028881531687561884
224,424.0,0.02895594367607006
225,425.0,0.02634905691002788
226,426.0,0.022770884235073403
227,427.0,0.023566759658060127
228,428.0,0.01842603991401502
229,429.0,0.01966215651712526
230,430.0,0.020095071640147576
231,431.0,0.01922772138417715
232,432.0,0.020490814364039715
233,433.0,0.017751527250176823
234,434.0,0.01659625197467334
235,435.0,0.015869029595804208
236,436.0,0.02227242651076923
237,437.0,0.0311406692912109
238,438.0,0.03326971188301958
239,439.0,0.03775664549567254
240,440.0,0.0419918528233484
241,441.0,0.038637356779598384
242,442.0,0.039404350933313396
243,443.0,0.036526551268307436
244,444.0,0.034617003230285354
245,445.0,0.0317989621160465
246,446.0,0.031691803924354195
247,447.0,0.02735686635098046
248,448.0,0.026865899999181788
249,449.0,0.02368469434476354
250,450.0,0.02701270021394493
251,451.0,0.02709403583408799
252,452.0,0.03106579061744355
253,453.0,0.03344749452752075
254,454.0,0.03786509483979249
255,455.0,0.0384438011890274
256,456.0,0.038139268143951084
257,457.0,0.03696839398251316
258,458.0,0.03384737961067957
259,459.0,0.028759044270492872
260,460.0,0.02783202188418749
261,461.0,0.02298462517462975
262,462.0,0.02008560999295528
263,463.0,0.024064383728565255
264,464.0,0.026391140923538746
265,465.0,0.023671705388353354
266,466.0,0.027176963671059352
267,467.0,0.029248480597815433
268,468.0,0.027255388401473835
269,469.0,0.0292399093816196
270,470.0,0.02974936844131311
271,471.0,0.027594591366402833
272,472.0,0.027695063139914683
273,473.0,0.03395829649051718
274,474.0,0.028818571628022507
275,475.0,0.022798292298205302
276,476.0,0.02361256275398291
277,477.0,0.025036141529862135
278,478.0,0.02553018405144372
279,479.0,0.026773611763535685
280,480.0,0.030182956721892827
281,481.0,0.028603375557293184
282,482.0,0.03176283451126482
283,483.0,0.03197123851274682
284,484.0,0.029214852550426565
285,485.0,0.026351448825834976
286,486.0,0.02624908311767482
287,487.0,0.022984404180556417
288,488.0,0.020400915740592544
289,489.0,0.01819638324858405
290,490.0,0.021566511346478783
291,491.0,0.020022409728694533
292,492.0,0.022793462797476943
293,493.0,0.02230323608625587
294,494.0,0.0298068946109838
295,495.0,0.03165911827096142
296,496.0,0.033791572302652145
297,497.0,0.031289784525874095
298,498.0,0.03285319565394248
299,499.0,0.035341140491242665
300,500.0,0.03881462519928057
301,501.0,0.03652933388173844
302,502.0,0.03461531521019307
303,503.0,0.03394096333888971
304,504.0,0.03605217494175943
305,505.0,0.03135816831812615
306,506.0,0.029065175552575206
307,507.0,0.025152238114849235
308,508.0,0.02320671267416394
309,509.0,0.023540294780598933
310,510.0,0.025045959259664824
311,511.0,0.026233510549878537
312,512.0,0.027073271141526432
313,513.0,0.029929541113831955
314,514.0,0.03560850282617354
315,515.0,0.030746859401592417
316,516.0,0.028307056623139277
317,517.0,0.027329856196106478
318,518.0,0.025364090915207582
319,519.0,0.024581836553097352
320,520.0,0.028890050332044885
321,521.0,0.029668733687807276
322,522.0,0.030356987586783134
323,523.0,0.03036235053366822
324,524.0,0.03522914230367723
325,525.0,0.033446807143143784
326,526.0,0.03354541977604118
327,527.0,0.0327027307856715
328,528.0,0.0335359055975885
329,529.0,0.02869553344986812
330,530.0,0.030733478880586633
331,531.0,0.03123383176497038
332,532.0,0.030331462330462862
333,533.0,0.03025961360827222
334,534.0,0.035121284781134354
335,535.0,0.039488967896554976
336,536.0,0.03652570162944556
337,537.0,0.03289583976011115
338,538.0,0.028492525639319113
339,539.0,0.02163942874787181
340,540.0,0.024792000886486063
341,541.0,0.025022984637298233
342,542.0,0.023261897548704964
343,543.0,0.026901489872660715
344,544.0,0.031344137185278606
345,545.0,0.032558829203234184
346,546.0,0.034747965012925736
347,547.0,0.03509327506327389
348,548.0,0.03225205896911136
349,549.0,0.032327540223818445
350,550.0,0.034268150761571255
351,551.0,0.03300095586253748
352,552.0,0.03665358386001053
353,553.0,0.03978028713350027
354,554.0,0.038827986304354
355,555.0,0.03622803392070603
356,556.0,0.03600267117995011
357,557.0,0.03552111669615646
358,558.0,0.029811347576687307
359,559.0,0.0252365012383004
360,560.0,0.024018632117621532
361,561.0,0.02546565942473129
362,562.0,0.0276394632860041
363,563.0,0.02779820756450955
364,564.0,0.028501820450185116
365,565.0,0.03047547666232118
366,566.0,0.032072711294056255
367,567.0,0.03302798147821178
368,568.0,0.029521903248452323
369,569.0,0.027791238852741585
370,570.0,0.02992309612480748
371,571.0,0.028905651746213828
372,572.0,0.028689938907158874
373,573.0,0.03070996436566984
374,574.0,0.03335110251700817
375,575.0,0.03517282146080369
376,576.0,0.03878313211696869
377,577.0,0.03352016685108991
378,578.0,0.032755429923013085
379,579.0,0.0318044728451837
380,580.0,0.03230930260238422
381,581.0,0.030676420096863506
382,582.0,0.03496159139804887
383,583.0,0.03596863696945499
384,584.0,0.0373746417787096
385,585.0,0.03979283898771918
386,586.0,0.03800542265359239
387,587.0,0.036519434836345316
388,588.0,0.03617284694891273
389,589.0,0.03453231009097599
390,590.0,0.035307669471030055
391,591.0,0.038999908919008425
392,592.0,0.04199962519048966
393,593.0,0.04384551947057651
394,594.0,0.049287255002369655
395,595.0,0.055861928770775206
396,596.0,0.058847719966077384
397,597.0,0.06232253528012031
398,598.0,0.0611879109221967
399,599.0,0.059685799086751166
400,600.0,0.06265662700815784
401,601.0,0.06779620471505106
402,602.0,0.06942138611677942
403,603.0,0.07428876014997801
404,604.0,0.08287357420419773
405,605.0,0.09107142290648661
406,606.0,0.09957608596903703
407,607.0,0.10215863086518888
408,608.0,0.10807408953759852
409,609.0,0.12032655772009537
410,610.0,0.13291940850352155
411,611.0,0.15043305958986375
412,612.0,0.1724114940799419
413,613.0,0.20068192312366492
414,614.0,0.2353852265954448
415,615.0,0.2733690961208687
416,616.0,0.32022876154900914
417,617.0,0.35980868674623423
418,618.0,0.39346274497371536
419,619.0,0.4221272799132081
420,620.0,0.4244142909914703
421,621.0,0.4158733270381944
422,622.0,0.3895702698859167
423,623.0,0.3524940996794747
424,624.0,0.3105780243731406
425,625.0,0.2707512426803035
426,626.0,0.23684157610192208
427,627.0,0.20394179201616874
428,628.0,0.17566544414228438
429,629.0,0.15688007818574923
430,630.0,0.1322177653025378
431,631.0,0.11602724476866812
432,632.0,0.10530342589765314
433,633.0,0.09558143125429575
434,634.0,0.08487386365881257
435,635.0,0.08090063526251776
436,636.0,0.07782402518549816
437,637.0,0.07980225223764371
438,638.0,0.0764254076269556
439,639.0,0.07057851938054438
440,640.0,0.06411927022756576
441,641.0,0.05936989779863141
442,642.0,0.05834759357106681
443,643.0,0.05177721259623161
444,644.0,0.04549988730899272
445,645.0,0.04672151618017493
446,646.0,0.04621174103717098
447,647.0,0.04568687171123379
448,648.0,0.04172743771876439
449,649.0,0.03779165120432998
450,650.0,0.03906185095456412
451,651.0,0.03752846266997491
452,652.0,0.03642129257406404
453,653.0,0.03749491326335928
454,654.0,0.03577610125824878
455,655.0,0.03703636621788042
456,656.0,0.0369100087322456
457,657.0,0.036636996333006946
458,658.0,0.03410342312348099
459,659.0,0.032043154066934795
460,660.0,0.03378394001048418
461,661.0,0.030983490599166313
462,662.0,0.029322437847293614
463,663.0,0.02841971536661067
464,664.0,0.027121946541229663
465,665.0,0.023992714827988
466,666.0,0.024870300179916
467,667.0,0.02616336476665497
468,668.0,0.024666679793912252
469,669.0,0.02609345156682249
470,670.0,0.026232695790434565
471,671.0,0.02617039461278559
472,672.0,0.02823940259507146
473,673.0,0.02943800407176554
474,674.0,0.031359545042401814
475,675.0,0.030383220791513177
476,676.0,0.034776972573238384
477,677.0,0.03691575784013857
478,678.0,0.03489508583007598
479,679.0,0.03398269159457232
480,680.0,0.02874911788967006
481,681.0,0.024981306713381026
482,682.0,0.022901015987345116
483,683.0,0.024105202677558852
484,684.0,0.022270897371504585
485,685.0,0.02517854299712801
486,686.0,0.029987760987179646
487,687.0,0.030913693269472006
488,688.0,0.029376467172249822
489,689.0,0.030480078023314483
490,690.0,0.02539686962319625
491,691.0,0.02464567609366388
492,692.0,0.026469105602564554
493,693.0,0.030151483889149205
494,694.0,0.025285369561381676
495,695.0,0.02460067118553744
496,696.0,0.02565810640549003
497,697.0,0.02627556835950166
498,698.0,0.026704398997695476
499,699.0,0.029762876215691635
500,700.0,0.030850834657644172
501,701.0,0.0337197941420464
502,702.0,0.03455702491397105
503,703.0,0.03691904052824402
504,704.0,0.030088499716771973
505,705.0,0.024436210761401535
506,706.0,0.01842705797926576
507,707.0,0.019521522015132856
508,708.0,0.020648210086405102
509,709.0,0.02219881878552796
510,710.0,0.025091758100976826
511,711.0,0.026161346525901512
512,712.0,0.02847376471503819
513,713.0,0.030770761492625663
514,714.0,0.02735030385214365
515,715.0,0.026489108198919316
516,716.0,0.020976957339909383
517,717.0,0.02481909069289687
518,718.0,0.023379478475095607
519,719.0,0.02452001598920632
520,720.0,0.025123387551797494
521,721.0,0.023988897110152795
522,722.0,0.02319001237750856
523,723.0,0.026698651007936374
524,724.0,0.02708544399698249
525,725.0,0.02619832576685625
526,726.0,0.02003046225037013
527,727.0,0.0201197688972145
528,728.0,0.021190936884596386
529,729.0,0.024530106190787215
530,730.0,0.021336204485102504
531,731.0,0.02245271447417495
532,732.0,0.022104567107506325
533,733.0,0.024453165661056542
534,734.0,0.023355806865037
535,735.0,0.020512303721753274
536,736.0,0.015347153252761236
537,737.0,0.018100502027481764
538,738.0,0.02246665089532685
539,739.0,0.020652255961687294
540,740.0,0.0199414536208475
541,741.0,0.02739560683807027
542,742.0,0.028836903943933054
543,743.0,0.0308690857722324
544,744.0,0.033382705077950485
545,745.0,0.030485193959647175
546,746.0,0.026992875528063807
547,747.0,0.02514788618479962
548,748.0,0.021282127573868503
549,749.0,0.01985875840155271
550,750.0,0.01784832871480233
551,751.0,0.023002854866093374
552,752.0,0.022661634315575614
553,753.0,0.024274166456892957
554,754.0,0.025361679588175205
555,755.0,0.02375686845507158
556,756.0,0.021843384319985313
557,757.0,0.019289629891491883
558,758.0,0.01833357508804117
559,759.0,0.022514467532911264
560,760.0,0.021193020279046963
561,761.0,0.020787332868832793
562,762.0,0.0209354659187576
563,763.0,0.01830128625694889
564,764.0,0.01710448574362897
565,765.0,0.01622320379009136
566,766.0,0.01439573811976144
567,767.0,0.016974458779421865
568,768.0,0.01942547212826341
569,769.0,0.025392897647494226
570,770.0,0.02786522594410918
571,771.0,0.02753924761888679
572,772.0,0.030439572398418057
573,773.0,0.026639356572111278
574,774.0,0.025057095029478605
575,775.0,0.025972741640004366
576,776.0,0.02724677888910714
577,777.0,0.027026757378058954
578,778.0,0.024613300027040434
579,779.0,0.02439619452485388
580,780.0,0.020582891049069872
581,781.0,0.019371547031233692
582,782.0,0.01952768706501942
583,783.0,0.019231630306840577
584,784.0,0.022348357860952833
585,785.0,0.025448880595393526
586,786.0,0.02589507500322796
587,787.0,0.023041966943795174
588,788.0,0.02269230529692164
589,789.0,0.02289839541943504
590,790.0,0.02085542206134669
591,791.0,0.024616539473406963
592,792.0,0.02839333027309121
593,793.0,0.027554024380257076
594,794.0,0.02579241581764663
595,795.0,0.02190656679995044
596,796.0,0.01938180146506262
597,797.0,0.01705931294821019
598,798.0,0.016354035106652592
599,799.0,0.015382249582704165
600,800.0,0.013750811427020525
601,801.0,0.014811995811129318
602,802.0,0.016605880596613023
603,803.0,0.017579994606275243
604,804.0,0.01883611782195419
605,805.0,0.021649501271980818
606,806.0,0.025036335326874153
607,807.0,0.02434477396182315
608,808.0,0.022123731954597332
609,809.0,0.020341152987772924
610,810.0,0.018465446837321122
611,811.0,0.01936047284297969
612,812.0,0.02155295248501627
613,813.0,0.02405900927240474
614,814.0,0.02557037637667522
615,815.0,0.025869863347598724
616,816.0,0.02839643609971604
617,817.0,0.02215797219195877
618,818.0,0.017810234797739737
619,819.0,0.014988090855491413
620,820.0,0.014057382351711513
621,821.0,0.011217191712155484
622,822.0,0.011629265665041251
623,823.0,0.01643199302870056
624,824.0,0.02026844888551606
625,825.0,0.02293448003278624
626,826.0,0.03097697097714465
627,827.0,0.03141585078194026
628,828.0,0.032579609173970736
629,829.0,0.03138281760889337
630,830.0,0.02490874673156588
631,831.0,0.02069590314073468
632,832.0,0.021279122857691093
633,833.0,0.023352659563042444
634,834.0,0.021899891762327803
635,835.0,0.02050158720492809
636,836.0,0.024754459765099344
637,837.0,0.023406416168277693
638,838.0,0.02088400328469182
639,839.0,0.015850388517695265
640,840.0,0.012844629719598948
641,841.0,0.01623286284587116
642,842.0,0.01676894893478036
643,843.0,0.0175827074041675
644,844.0,0.01853722594429622
645,845.0,0.018376417033271347
646,846.0,0.02267485396204922
647,847.0,0.024102824070518183
648,848.0,0.020773831338033052
649,849.0,0.019255680521489058
650,850.0,0.02006325506444415
651,851.0,0.020247490861681136
652,852.0,0.016192228065519697
653,853.0,0.011298391144488745
654,854.0,0.008125342188526188
655,855.0,0.005605408774427806
656,856.0,0.008366844345859829
657,857.0,0.014922529875438283
658,858.0,0.01543850511580723
659,859.0,0.025513327664269576
660,860.0,0.03130523141331535
661,861.0,0.03520642314059662
662,862.0,0.03430460283779265
663,863.0,0.031612452211327975
664,864.0,0.030722474875885787
665,865.0,0.027951902405179738
666,866.0,0.025365127447302956
667,867.0,0.02483900830464539
668,868.0,0.024934505639530084
669,869.0,0.027599867678071044
670,870.0,0.02687999589412973
671,871.0,0.027297040797470556
672,872.0,0.026623880693838604
673,873.0,0.024536889346809847
674,874.0,0.026796358215444786
675,875.0,0.026057307426909374
676,876.0,0.024937378411376034
677,877.0,0.025312266347425633
678,878.0,0.02724578371975686
679,879.0,0.025129723195811658
680,880.0,0.026644883838905054
681,881.0,0.026995803189518636
682,882.0,0.025152274710952514
683,883.0,0.0232481080515688
684,884.0,0.024347509579535548
685,885.0,0.024164406452032765
686,886.0,0.02359369232381728
687,887.0,0.02610444221371587
688,888.0,0.02802060922716879
689,889.0,0.028558408943854596
690,890.0,0.02832959248715774
691,891.0,0.02881884900928662
692,892.0,0.02824430679148757
693,893.0,0.030038635760721216
694,894.0,0.030211364614000535
695,895.0,0.025857186901947413
696,896.0,0.02278943164119102
697,897.0,0.020870085093127388
698,898.0,0.016516273485306942
699,899.0,0.014624022600387365
700,900.0,0.012817826882824648
701,901.0,0.013715997950012722
702,902.0,0.016570376160603376
703,903.0,0.020214507284718138
704,904.0,0.024949166603224854
705,905.0,0.02423152131868049
706,906.0,0.026513253417120086
707,907.0,0.028058049627188147
708,908.0,0.02494691410786218
709,909.0,0.023859891121828736
710,910.0,0.01821197651267397
711,911.0,0.01674309577617753
712,912.0,0.019527413676231682
713,913.0,0.01882715991298742
714,914.0,0.0172483648807333
715,915.0,0.01802785999275887
716,916.0,0.021747468575538408
717,917.0,0.02458713033809545
718,918.0,0.0224375156106063
719,919.0,0.018731717422258664
720,920.0,0.017113743626903936
721,921.0,0.02116829070927574
722,922.0,0.023228756634301326
723,923.0,0.021823041850087727
724,924.0,0.019387558273594726
725,925.0,0.020576066319861353
726,926.0,0.021937665171736294
727,927.0,0.024509441021400933
728,928.0,0.025829748338661668
729,929.0,0.02628532983148676
730,930.0,0.030599543535472486
731,931.0,0.035009173057590944
732,932.0,0.03531371495545383
733,933.0,0.031637802888167844
734,934.0,0.02765624346655038
735,935.0,0.023516682616553635
736,936.0,0.01972902817896483
737,937.0,0.020465712563520432
738,938.0,0.02271876876770557
739,939.0,0.02343768000820051
740,940.0,0.02929898942687202
741,941.0,0.03294813480907046
742,942.0,0.03304811083924418
743,943.0,0.03356960988338108
744,944.0,0.03497948596346306
745,945.0,0.036670209236283786
746,946.0,0.030621487688797463
747,947.0,0.02843353583853881
748,948.0,0.03193907959669215
749,949.0,0.032776915951681126
750,950.0,0.033592370689728
751,951.0,0.03207018849500326
752,952.0,0.03413536970565684
753,953.0,0.038957446228919314
754,954.0,0.04570756941117998
755,955.0,0.049206517216364785
756,956.0,0.04574264569315094
757,957.0,0.044290865322781744
758,958.0,0.04758548072398888
759,959.0,0.0467536482848827
760,960.0,0.03970197969265965
761,961.0,0.03750051217652413
762,962.0,0.034490386669966504
763,963.0,0.03522210771511017
764,964.0,0.04045064017953205
765,965.0,0.043212572485726346
766,966.0,0.04484098809408114
767,967.0,0.04797687578921991
768,968.0,0.05025164099306303
769,969.0,0.05388674107820971
770,970.0,0.057288978391891655
771,971.0,0.06253441993182923
772,972.0,0.0609566621436924
773,973.0,0.06537228179882079
774,974.0,0.06915221207638458
775,975.0,0.07191979900007739
776,976.0,0.0755364457917834
777,977.0,0.0822197444886535
778,978.0,0.08352984074537445
779,979.0,0.08528042319327607
780,980.0,0.09345737098687
781,981.0,0.09942562083092164
782,982.0,0.10603819855473295
783,983.0,0.11737237498183736
784,984.0,0.12907132011756395
785,985.0,0.14545200080065124
786,986.0,0.16344294249879276
787,987.0,0.1826792510930318
788,988.0,0.19733070331525915
789,989.0,0.21698486142907308
790,990.0,0.24638684186606946
791,991.0,0.27977989626814576
792,992.0,0.32245435282850143
793,993.0,0.376962001639255
794,994.0,0.4485732978749326
795,995.0,0.5321690117855107
796,996.0,0.6277250279381265
797,997.0,0.7303709182400393
798,998.0,0.8326195883028037
799,999.0,0.9191974593189199
800,1000.0,0.9762498279239645
801,1001.0,1.0
802,1002.0,0.9826350581965294
803,1003.0,0.9287211739485933
804,1004.0,0.8488010326298485
805,1005.0,0.751237562574514
806,1006.0,0.6555048053656284
807,1007.0,0.5638528932547942
808,1008.0,0.4851222677194516
809,1009.0,0.4141023357543247
810,1010.0,0.36219903504938195
811,1011.0,0.3203908875036935
812,1012.0,0.2862186395001604
813,1013.0,0.25909989136083833
814,1014.0,0.2389690042080136
815,1015.0,0.22504029597667732
816,1016.0,0.2189839632249583
817,1017.0,0.21492228715793124
818,1018.0,0.2130013011923775
819,1019.0,0.21774974709916675
820,1020.0,0.22824426164787778
821,1021.0,0.2408460544107338
822,1022.0,0.2590413932625886
823,1023.0,0.28134715650176506
824,1024.0,0.3095759300076407
825,1025.0,0.34874155947906643
826,1026.0,0.39992508857007025
827,1027.0,0.4520891211444639
828,1028.0,0.5033182149091928
829,1029.0,0.5490440411646733
830,1030.0,0.5781289449605358
831,1031.0,0.5888882982005609
832,1032.0,0.5742512842969513
833,1033.0,0.5388626956029714
834,1034.0,0.48501408182811645
835,1035.0,0.42854303332435106
836,1036.0,0.36902496594633855
837,1037.0,0.31440799905594125
838,1038.0,0.26799231797213685
839,1039.0,0.22708628213248477
840,1040.0,0.1941238281736146
841,1041.0,0.16931058563043067
842,1042.0,0.1557145802328691
843,1043.0,0.14052522588678107
844,1044.0,0.12324092419835211
845,1045.0,0.1149093562591341
846,1046.0,0.10619073842718214
847,1047.0,0.09841608880069579
848,1048.0,0.08696513555429262
849,1049.0,0.07474204833572809
850,1050.0,0.06640625051434135
851,1051.0,0.06301435284393214
852,1052.0,0.05948914545678816
853,1053.0,0.055127061930974136
854,1054.0,0.052678018387224246
855,1055.0,0.05790414695166588
856,1056.0,0.05536701103357549
857,1057.0,0.0487063279535768
858,1058.0,0.0419763235337636
859,1059.0,0.037499815186669415
860,1060.0,0.03417071882270865
861,1061.0,0.03125739659035421
862,1062.0,0.027497881598102715
863,1063.0,0.02845628950428999
864,1064.0,0.03296429780937002
865,1065.0,0.03865068852510111
866,1066.0,0.038625691418335294
867,1067.0,0.038311255368144295
868,1068.0,0.03786313692969983
869,1069.0,0.03632271684324701
870,1070.0,0.036999289941358225
871,1071.0,0.03585555289033838
872,1072.0,0.034947656579794484
873,1073.0,0.03298796210683813
874,1074.0,0.03257328825623708
875,1075.0,0.0293866744885744
876,1076.0,0.02702540767855073
877,1077.0,0.02303517436020129
878,1078.0,0.021958563444404233
879,1079.0,0.025281151303893398
880,1080.0,0.0289148113553593
881,1081.0,0.027996462617477444
882,1082.0,0.026760386744299654
883,1083.0,0.02725736825212081
884,1084.0,0.024959793411823184
885,1085.0,0.024087288818809643
886,1086.0,0.018655898106455016
887,1087.0,0.02186486852984435
888,1088.0,0.02569658206785107
889,1089.0,0.027210252690235567
890,1090.0,0.02516085187765878
891,1091.0,0.021722582929806056
892,1092.0,0.020083977618497825
893,1093.0,0.018302096253668198
894,1094.0,0.020166522890496058
895,1095.0,0.02268112198016484
896,1096.0,0.023422843921118645
897,1097.0,0.031197764247493202
898,1098.0,0.03304977554145059
899,1099.0,0.03172415077699363
900,1100.0,0.03128318807607978
901,1101.0,0.025971735436674113
902,1102.0,0.026712851849594564
903,1103.0,0.0212884693469488
904,1104.0,0.021670526562446255
905,1105.0,0.020071542662314798
906,1106.0,0.016252564688699723
907,1107.0,0.014610664296416451
908,1108.0,0.013101137702350699
909,1109.0,0.01525256278953307
910,1110.0,0.013472188528632469
911,1111.0,0.011691023372633329
912,1112.0,0.019026980613277466
913,1113.0,0.0161530492710815
914,1114.0,0.020233765840311318
915,1115.0,0.02663531863098793
916,1116.0,0.02714426536681044
917,1117.0,0.02564055451886056
918,1118.0,0.026065815477175232
919,1119.0,0.0256085197616046
920,1120.0,0.021472198048544812
921,1121.0,0.020817672471791823
922,1122.0,0.021340212372374136
923,1123.0,0.014127174664401899
924,1124.0,0.015147736253389199
925,1125.0,0.018149438781430296
926,1126.0,0.017366712592930107
927,1127.0,0.01987937228602615
928,1128.0,0.02840555354855557
929,1129.0,0.02900515427553254
930,1130.0,0.03177278475447878
931,1131.0,0.0386044254617415
932,1132.0,0.039181822603525054
933,1133.0,0.03866337455646112
934,1134.0,0.03776106510338093
935,1135.0,0.03828300228023437
936,1136.0,0.036561902528247675
937,1137.0,0.037522078734531124
938,1138.0,0.03872425455190459
939,1139.0,0.035917067899643204
940,1140.0,0.034947878959865966
941,1141.0,0.03986810158650175
942,1142.0,0.0431340320837704
943,1143.0,0.04905475039195267
944,1144.0,0.05664658239984156
945,1145.0,0.06883235405981393
946,1146.0,0.077909702823583
947,1147.0,0.09051118139347089
948,1148.0,0.10319480976668731
949,1149.0,0.12097233745233534
950,1150.0,0.14463879412966593
951,1151.0,0.17121887659576931
952,1152.0,0.1946497330041447
953,1153.0,0.21095917828159325
954,1154.0,0.221656283419423
955,1155.0,0.22643817639395278
956,1156.0,0.21779350531533398
957,1157.0,0.20334512747464936
958,1158.0,0.1816820903447486
959,1159.0,0.16003173219512995
960,1160.0,0.1405722048209218
961,1161.0,0.12256814036532725
962,1162.0,0.10660729333593186
963,1163.0,0.09284051517739178
964,1164.0,0.08187575619040688
965,1165.0,0.07529429294444571
966,1166.0,0.06429409247711433
967,1167.0,0.05583439908319786
968,1168.0,0.05055905798268721
969,1169.0,0.043970886709342676
970,1170.0,0.03528704085450958
971,1171.0,0.03155510692795662
972,1172.0,0.030374473109996757
973,1173.0,0.027738520102744635
974,1174.0,0.02758258836145156
975,1175.0,0.026219555149216422
976,1176.0,0.024842793376059505
977,1177.0,0.02530165616466988
978,1178.0,0.02680507376112254
979,1179.0,0.026685431408465344
980,1180.0,0.02548241545341612
981,1181.0,0.028803535629308086
982,1182.0,0.028192453437864546
983,1183.0,0.024835303333834362
984,1184.0,0.024095271695639787
985,1185.0,0.02276772955371147
986,1186.0,0.022574363586873945
987,1187.0,0.01711867483939059
988,1188.0,0.012998019773415742
989,1189.0,0.009550603646811531
990,1190.0,0.007616197840031579
991,1191.0,0.009107154773374244
992,1192.0,0.007437282628472907
993,1193.0,0.012046727595754862
994,1194.0,0.016059932160451713
995,1195.0,0.017279697127207394
996,1196.0,0.025154587766941846
997,1197.0,0.025548390302541087
998,1198.0,0.028554440267637198
999,1199.0,0.02824323984283093
1000,1200.0,0.0269653560336834
1001,1201.0,0.026999244476817105
1002,1202.0,0.021603936964549774
1003,1203.0,0.022167696116882532
1004,1204.0,0.018905826728406665
1005,1205.0,0.01576229115517483
1006,1206.0,0.018595235941145125
1007,1207.0,0.015527053358228585
1008,1208.0,0.011983054121773522
1009,1209.0,0.01096313837404835
1010,1210.0,0.009039403514673153
1011,1211.0,0.005630798633317816
1012,1212.0,0.002195408245462837
1013,1213.0,0.0054398810115581595
1014,1214.0,0.00832458597949663
1015,1215.0,0.005419612944889269
1016,1216.0,0.006242648997931212
1017,1217.0,0.007648127767219519
1018,1218.0,0.006737340767663977
1019,1219.0,0.006838811784921473
1020,1220.0,0.005952967191641683
1021,1221.0,0.006082148347120364
1022,1222.0,0.01026342520528448
1023,1223.0,0.014661959752606885
1024,1224.0,0.01580506711420528
1025,1225.0,0.009525188086453407
1026,1226.0,0.010800636949663853
1027,1227.0,0.011355437283910997
1028,1228.0,0.00861921579841698
1029,1229.0,0.007710161531252048
1030,1230.0,0.008408522697197354
1031,1231.0,0.010216590480221025
1032,1232.0,0.01155998164743254
1033,1233.0,0.01554826919724702
1034,1234.0,0.015386944533209768
1035,1235.0,0.01617812575763918
1036,1236.0,0.018422313749527134
1037,1237.0,0.015469211231375474
1038,1238.0,0.013542654491612308
1039,1239.0,0.01181250400084213
1040,1240.0,0.010340388427265602
1041,1241.0,0.008048039276667694
1042,1242.0,0.004394232203809319
1043,1243.0,0.004353391844343629
1044,1244.0,0.006313174339713833
1045,1245.0,0.010203211223866552
1046,1246.0,0.013622355927497732
1047,1247.0,0.016761017685468713
1048,1248.0,0.01875597092186755
1049,1249.0,0.015606551299651852
1050,1250.0,0.014936626379567634
1051,1251.0,0.010140839217050503
1052,1252.0,0.005966088139857916
1053,1253.0,0.00485148053503661
1054,1254.0,0.006238063751075071
1055,1255.0,0.007805302695758796
1056,1256.0,0.013728918741839107
1057,1257.0,0.018299787084650493
1058,1258.0,0.017268199136386247
1059,1259.0,0.01623541005399114
1060,1260.0,0.016640946789170795
1061,1261.0,0.014852278083511774
1062,1262.0,0.01666851538922727
1063,1263.0,0.017368639991594582
1064,1264.0,0.01777213712179393
1065,1265.0,0.018018938856326664
1066,1266.0,0.019121722791205834
1067,1267.0,0.01745075476071561
1068,1268.0,0.01462721096668304
1069,1269.0,0.01293063181942386
1070,1270.0,0.012669051264069999
1071,1271.0,0.012042401625097775
1072,1272.0,0.010753138022332511
1073,1273.0,0.012311405217114286
1074,1274.0,0.015326928074708885
1075,1275.0,0.017011392835984043
1076,1276.0,0.015507605372684726
1077,1277.0,0.01294621603745783
1078,1278.0,0.010528542247092963
1079,1279.0,0.009059663549829702
1080,1280.0,0.011123900489131384
1081,1281.0,0.011428273154478545
1082,1282.0,0.012771250180940278
1083,1283.0,0.018876945428816495
1084,1284.0,0.01988482421629471
1085,1285.0,0.019357775539079823
1086,1286.0,0.013250770421551783
1087,1287.0,0.009432155997970036
1088,1288.0,0.005163244211926214
1089,1289.0,0.0003141091394626308
1090,1290.0,0.0020439342822930334
1091,1291.0,0.0
1092,1292.0,0.0003115304775152464
1093,1293.0,0.001533113499610297
1094,1294.0,0.003785518115349932
1095,1295.0,0.010198571950634
1096,1296.0,0.012296036358460357
1097,1297.0,0.017675846206876573
1098,1298.0,0.018628129200657362
1099,1299.0,0.0157157520198827
1100,1300.0,0.014282927495693938
1101,1301.0,0.011320230540992458
1102,1302.0,0.00956803313475634
1103,1303.0,0.005255189753486221
1104,1304.0,0.005797240426522407
1105,1305.0,0.007801189950837836
1106,1306.0,0.008982469694185494
1107,1307.0,0.01265247664278411
1108,1308.0,0.014371329766626183
1109,1309.0,0.012414210979619431
1110,1310.0,0.015742029910566505
1111,1311.0,0.021017960509241478
1112,1312.0,0.02040571105781099
1113,1313.0,0.01703779062929838
1114,1314.0,0.014697412442491294
1115,1315.0,0.013219025803750917
1116,1316.0,0.008589771168173875
1117,1317.0,0.005773187605670909
1118,1318.0,0.0022672260843181625
1119,1319.0,0.0018846684517331213
1120,1320.0,0.004117990360107302
1121,1321.0,0.008039376249321105
1122,1322.0,0.00879817335596295
1123,1323.0,0.014042652875680368
1124,1324.0,0.01450012911899173
1125,1325.0,0.0176033286626127
1126,1326.0,0.016986039365563782
1127,1327.0,0.01535407541550049
1128,1328.0,0.012824574103094361
1129,1329.0,0.01304267993173984
1130,1330.0,0.006087663581449401
1131,1331.0,0.003772405989210404
1132,1332.0,0.0033253515988277784
1133,1333.0,0.0055148569672657105
1134,1334.0,0.0025824253772173188
1135,1335.0,0.005203893750889347
1136,1336.0,0.011104593267244507
1137,1337.0,0.013462393081720684
1138,1338.0,0.01373218940140554
1139,1339.0,0.012664964057446711
1140,1340.0,0.009061535552758087
1141,1341.0,0.005396269823241175
1142,1342.0,0.006377294648867865
1143,1343.0,0.004340124285667925
1144,1344.0,0.00035878884207258383
1145,1345.0,0.002331787135033013
1146,1346.0,0.008917865358393564
1147,1347.0,0.011423063715317924
1148,1348.0,0.00867270092553379
1149,1349.0,0.011011368712405727
1150,1350.0,0.006939684593815762
1151,1351.0,0.006743153518589115
1152,1352.0,0.010832975030384485
1153,1353.0,0.008676001226626436
1154,1354.0,0.008713985823899793
1155,1355.0,0.010812932435188818
1156,1356.0,0.016680471803210025
1157,1357.0,0.01765271520492576
1158,1358.0,0.01405365581413716
1159,1359.0,0.013723089357178322
1160,1360.0,0.008047377911388582
1161,1361.0,0.013036164481849428
1162,1362.0,0.014270449975271365
1163,1363.0,0.01230783574121979
1164,1364.0,0.013620792912413252
1165,1365.0,0.019012950390239623
1166,1366.0,0.021259434243409203
1167,1367.0,0.018559616016671804
1168,1368.0,0.0132170345514367
1169,1369.0,0.010499785793162767
1170,1370.0,0.006258645031995817
1171,1371.0,0.0055865844158397605
1172,1372.0,0.007069453718719258
1173,1373.0,0.00580385927851523
1174,1374.0,0.009644542811975234
1175,1375.0,0.013131588516909468
1176,1376.0,0.009992427410509484
1177,1377.0,0.011227159729175542
1178,1378.0,0.007864773533837436
1179,1379.0,0.008371341093498323
1180,1380.0,0.008715002668423606
1181,1381.0,0.007619388251845645
1182,1382.0,0.007522607305732933
1183,1383.0,0.005377242858516814
1184,1384.0,0.006886842095083612
1185,1385.0,0.00518862339433674
1186,1386.0,0.004942682379011005
1187,1387.0,0.012053906702102537
1188,1388.0,0.011817372096532124
1189,1389.0,0.018729870419198272
1190,1390.0,0.01959463318302143
1191,1391.0,0.018772671952924046
1192,1392.0,0.015835781051884754
1193,1393.0,0.014671309676108968
1194,1394.0,0.010351866622134808
1195,1395.0,0.009246465026745124
1196,1396.0,0.007873497329925028
1197,1397.0,0.008221076349556933
1198,1398.0,0.004974417876294007
1199,1399.0,0.005935168488352808
1200,1400.0,0.0037582653607218
1201,1401.0,0.0018757414563315884
1202,1402.0,0.0034759897931556654
1203,1403.0,0.0069312413096513995
1204,1404.0,0.009224986905222676
1205,1405.0,0.01582084991062103
1206,1406.0,0.01814094329392944
1207,1407.0,0.020782706748407143
1208,1408.0,0.023419174062041387
1209,1409.0,0.021755788938554635
1210,1410.0,0.01943254785899248
1211,1411.0,0.0156554334545043
1212,1412.0,0.01929181318325149
1213,1413.0,0.016867243000698556
1214,1414.0,0.018492667180980644
1215,1415.0,0.01877001209082836
1216,1416.0,0.022489913738838803
1217,1417.0,0.023978656193480916
1218,1418.0,0.02815585408941057
1219,1419.0,0.029563053675821394
1220,1420.0,0.030675971994716278
1221,1421.0,0.033029034863735755
1222,1422.0,0.03329949299878866
1223,1423.0,0.030411916402160476
1224,1424.0,0.03177281309629771
1225,1425.0,0.02868338347963492
1226,1426.0,0.030362026215179458
1227,1427.0,0.02958202801023063
1228,1428.0,0.033017296864722497
1229,1429.0,0.03548833024055114
1230,1430.0,0.041877021989643166
1231,1431.0,0.04700810361985729
1232,1432.0,0.05536455262923933
1233,1433.0,0.062335488477838104
1234,1434.0,0.07150440644274218
1235,1435.0,0.07844125230252172
1236,1436.0,0.08267660974005608
1237,1437.0,0.08702289700761823
1238,1438.0,0.0921241541424183
1239,1439.0,0.10046949937676244
1240,1440.0,0.11300212548688016
1241,1441.0,0.12797489398881176
1242,1442.0,0.1555640656126412
1243,1443.0,0.1828583578616844
1244,1444.0,0.21897693651885503
1245,1445.0,0.25539240723208556
1246,1446.0,0.2931181081569699
1247,1447.0,0.33081172658215285
1248,1448.0,0.36087846040514737
1249,1449.0,0.38014489592314926
1250,1450.0,0.3850147832102599
1251,1451.0,0.3790281240662255
1252,1452.0,0.36134597580770417
1253,1453.0,0.33087644375514447
1254,1454.0,0.2946532212221125
1255,1455.0,0.2562131403083273
1256,1456.0,0.2209931920432686
1257,1457.0,0.1873981030406962
1258,1458.0,0.15821822528090076
1259,1459.0,0.13481225790022636
1260,1460.0,0.11356006670685155
1261,1461.0,0.09735260458057293
1262,1462.0,0.08309038283829824
1263,1463.0,0.07346675700207456
1264,1464.0,0.06603753208746722
1265,1465.0,0.0591672662191012
1266,1466.0,0.05119030600078614
1267,1467.0,0.048425684471356145
1268,1468.0,0.0493789087322363
1269,1469.0,0.04984308376156916
1270,1470.0,0.048102361782881804
1271,1471.0,0.03996603618728856
1272,1472.0,0.034860125127844255
1273,1473.0,0.03168582952878837
1274,1474.0,0.030399898000664134
1275,1475.0,0.027774576064504806
1276,1476.0,0.02576229169602863
1277,1477.0,0.030094154919178176
1278,1478.0,0.03068143157572243
1279,1479.0,0.032488441855376575
1280,1480.0,0.031108603276023102
1281,1481.0,0.02426886244762711
1282,1482.0,0.026554355447790234
1283,1483.0,0.025765372962398423
1284,1484.0,0.02981247529763963
1285,1485.0,0.026636325344388485
1286,1486.0,0.02708792537809048
1287,1487.0,0.02975703774708745
1288,1488.0,0.025159809848757923
1289,1489.0,0.021307173491798125
1290,1490.0,0.020552980763103003
1291,1491.0,0.019671459377222995
1292,1492.0,0.024607147060806737
1293,1493.0,0.024974851553777405
1294,1494.0,0.027821723870922365
1295,1495.0,0.026930697359331273
1296,1496.0,0.03139340123894816
1297,1497.0,0.029553983958635354
1298,1498.0,0.025778928475709464
1299,1499.0,0.018506690327069843
1300,1500.0,0.015602123470915007
1301,1501.0,0.011876605253361388
1302,1502.0,0.012664472967093299
1303,1503.0,0.013423719398248936
1304,1504.0,0.015554392656558617
1305,1505.0,0.017906024532832722
1306,1506.0,0.023322431784167243
1307,1507.0,0.01901630474467691
1308,1508.0,0.019816853092787048
1309,1509.0,0.013845934042579357
1310,1510.0,0.011935450448295198
1311,1511.0,0.009771312170034437
1312,1512.0,0.012565613733367864
1313,1513.0,0.01235459662766712
1314,1514.0,0.013408460305886771
1315,1515.0,0.013171169724107427
1316,1516.0,0.018849960540367274
1317,1517.0,0.01927601110387766
1318,1518.0,0.023025038226961975
1319,1519.0,0.02221608398369409
1320,1520.0,0.02423965204703436
1321,1521.0,0.022781897119449845
1322,1522.0,0.025895135281633827
1323,1523.0,0.023699351006272053
1324,1524.0,0.023783970294081407
1325,1525.0,0.02259975622567052
1326,1526.0,0.022516547335903064
1327,1527.0,0.022502555895580877
1328,1528.0,0.022748601564339103
1329,1529.0,0.01596949612407846
1330,1530.0,0.013128208693507613
1331,1531.0,0.011383115717589544
1332,1532.0,0.014169068870549107
1333,1533.0,0.01458003816213908
1334,1534.0,0.016799896565957487
1335,1535.0,0.01785845602283111
1336,1536.0,0.01660358528427029
1337,1537.0,0.020612236452234065
1338,1538.0,0.01971623325863223
1339,1539.0,0.018616640741323978
1340,1540.0,0.022069934106204375
1341,1541.0,0.02510763237432151
1342,1542.0,0.024850848530014263
1343,1543.0,0.02441266862496422
1344,1544.0,0.024721312753333197
1345,1545.0,0.02362470653065817
1346,1546.0,0.023493952420699633
1347,1547.0,0.02383291016946567
1348,1548.0,0.02186978390168645
1349,1549.0,0.025636027083465646
1350,1550.0,0.028210671726771157
1351,1551.0,0.03026122225029035
1352,1552.0,0.02882859596807332
1353,1553.0,0.03157822623763981
1354,1554.0,0.03567550981528979
1355,1555.0,0.037335017641763564
1356,1556.0,0.03851240318930062
1357,1557.0,0.0384535501967961
1358,1558.0,0.040869496653697664
1359,1559.0,0.040191816594845144
1360,1560.0,0.040095531215847
1361,1561.0,0.04192509827820224
1362,1562.0,0.04667787248573683
1363,1563.0,0.053407935625673
1364,1564.0,0.06121855722795567
1365,1565.0,0.06345934869773719
1366,1566.0,0.06723091675402061
1367,1567.0,0.07427704658122439
1368,1568.0,0.08081523670891813
1369,1569.0,0.08404964002315476
1370,1570.0,0.09034163315057658
1371,1571.0,0.098028425162699
1372,1572.0,0.10726702521685023
1373,1573.0,0.11925450222574797
1374,1574.0,0.13489157959457407
1375,1575.0,0.15315990307179703
1376,1576.0,0.17745722223375568
1377,1577.0,0.20535946906802405
1378,1578.0,0.243098967438674
1379,1579.0,0.2807201677654419
1380,1580.0,0.32131116331315385
1381,1581.0,0.3490836287377211
1382,1582.0,0.36801387435002864
1383,1583.0,0.37852772911074484
1384,1584.0,0.3795430453794378
1385,1585.0,0.3662653830192594
1386,1586.0,0.3426751394523728
1387,1587.0,0.3171007928157795
1388,1588.0,0.30100028327580514
1389,1589.0,0.281819651434736
1390,1590.0,0.2728483772088123
1391,1591.0,0.2670493080546169
1392,1592.0,0.27265880734998493
1393,1593.0,0.2887118705813598
1394,1594.0,0.3118488416110959
1395,1595.0,0.3398152593598728
1396,1596.0,0.3795256270095971
1397,1597.0,0.4305300131260504
1398,1598.0,0.4892727800596684
1399,1599.0,0.546573938719995
1400,1600.0,0.5949900528299557
1401,1601.0,0.6297958093016787
1402,1602.0,0.6426700048949429
1403,1603.0,0.6342915279390134
1404,1604.0,0.5975211623768412
1405,1605.0,0.5404740385409654
1406,1606.0,0.47394923426919233
1407,1607.0,0.4061935814938249
1408,1608.0,0.34412711296744897
1409,1609.0,0.29121047507534775
1410,1610.0,0.24579152436500354
1411,1611.0,0.21382823041631524
1412,1612.0,0.18813065033568785
1413,1613.0,0.17024225387618983
1414,1614.0,0.1529372607025092
1415,1615.0,0.1402795033800591
1416,1616.0,0.1278171220780425
1417,1617.0,0.11912237328745412
1418,1618.0,0.11095877896569468
1419,1619.0,0.09853667591991219
1420,1620.0,0.09340663409297321
1421,1621.0,0.08712916468088497
1422,1622.0,0.07921995170040629
1423,1623.0,0.06971379987185085
1424,1624.0,0.06350121401705533
1425,1625.0,0.05927593258006713
1426,1626.0,0.05167099445559825
1427,1627.0,0.04706628747850461
1428,1628.0,0.04048597103959015
1429,1629.0,0.03398562744007654
1430,1630.0,0.03228660154022025
1431,1631.0,0.03175028930906274
1432,1632.0,0.03154154676360773
1433,1633.0,0.0281454111387879
1434,1634.0,0.03310670107510538
1435,1635.0,0.034944078532310005
1436,1636.0,0.034347952004508416
1437,1637.0,0.032637020314904314
1438,1638.0,0.03113673396555236
1439,1639.0,0.03344258818223745
1440,1640.0,0.02808170365110332
1441,1641.0,0.03055975921894441
1442,1642.0,0.02738601530961162
1443,1643.0,0.026931434229233775
1444,1644.0,0.032430530433832004
1445,1645.0,0.03149027110027839
1446,1646.0,0.03051180963155474
1447,1647.0,0.03186367011349196
1448,1648.0,0.033067321216418734
1449,1649.0,0.02915119264350005
1450,1650.0,0.026459907224270718
1451,1651.0,0.026472122893747774
1452,1652.0,0.020516941387080774
1453,1653.0,0.0213558845106949
1454,1654.0,0.023252021560472156
1455,1655.0,0.02401105191445512
1456,1656.0,0.027543907294751025
1457,1657.0,0.030504031883894098
1458,1658.0,0.03078879675210756
1459,1659.0,0.02825152584752766
1460,1660.0,0.031235693583673715
1461,1661.0,0.03055909641191681
1462,1662.0,0.02755441731429101
1463,1663.0,0.025410925168988702
1464,1664.0,0.0254847015578236
1465,1665.0,0.022298771064879475
1466,1666.0,0.01846216173997522
1467,1667.0,0.013852692045188774
1468,1668.0,0.011570571991031826
1469,1669.0,0.009410518380062124
1470,1670.0,0.011579712995922493
1471,1671.0,0.01633656220931582
1472,1672.0,0.019912203519304898
1473,1673.0,0.023493141489958156
1474,1674.0,0.022213993938858943
1475,1675.0,0.01851498684878546
1476,1676.0,0.014847589792238004
1477,1677.0,0.014376742224447455
1478,1678.0,0.01458205760099806
1479,1679.0,0.015071008101359609
1480,1680.0,0.016202872264872163
1481,1681.0,0.018562625622317475
1482,1682.0,0.018896665649891047
1483,1683.0,0.02083428253069578
1484,1684.0,0.015660086141697956
1485,1685.0,0.013889191371845253
1486,1686.0,0.009878096959559074
1487,1687.0,0.013163625148152175
1488,1688.0,0.01658521908606774
1489,1689.0,0.018827374244628124
1490,1690.0,0.01567387213467017
1491,1691.0,0.0169304333721306
1492,1692.0,0.01934054061326237
1493,1693.0,0.0216832820617964
1494,1694.0,0.02155519103839887
1495,1695.0,0.024181579339167474
1496,1696.0,0.023462472183374737
1497,1697.0,0.029956516050650858
1498,1698.0,0.034735268386166016
1499,1699.0,0.032951110926760986
1500,1700.0,0.029108790510424552
1501,1701.0,0.029799848128623515
1502,1702.0,0.028213092859040802
1503,1703.0,0.022334512231994008
1504,1704.0,0.017001356362451404
1505,1705.0,0.017419772154570686
1506,1706.0,0.0167451372085679
1507,1707.0,0.02133187212849334
1508,1708.0,0.024417648744811286
1509,1709.0,0.024415727923321473
1510,1710.0,0.024688821825957632
1511,1711.0,0.02453883318483983
1512,1712.0,0.021736490963690798
1513,1713.0,0.01549354724739489
1514,1714.0,0.013085234580852778
1515,1715.0,0.012321958643251332
1516,1716.0,0.012991361789530233
1517,1717.0,0.014283720259344306
1518,1718.0,0.013634142910162338
1519,1719.0,0.01657050847545224
1520,1720.0,0.017487089813761923
1521,1721.0,0.016703856540843068
1522,1722.0,0.015938226562662663
1523,1723.0,0.016750542822010512
1524,1724.0,0.0169634974998751
1525,1725.0,0.018119628054390904
1526,1726.0,0.020181393015476327
1527,1727.0,0.018032360596491277
1528,1728.0,0.01325678083937746
1529,1729.0,0.015248727980921577
1530,1730.0,0.017573154611260054
1531,1731.0,0.013789829221006522
1532,1732.0,0.012743849061068006
1533,1733.0,0.01919957057286746
1534,1734.0,0.01891438974826764
1535,1735.0,0.019351518405064373
1536,1736.0,0.021227019589389978
1537,1737.0,0.016742951249893098
1538,1738.0,0.012743126964797692
1539,1739.0,0.01556881301016053
1540,1740.0,0.017373838396104464
1541,1741.0,0.01787355986899537
1542,1742.0,0.023246642357922145
1543,1743.0,0.02907026578524862
1544,1744.0,0.025231429111295656
1545,1745.0,0.02330930605386126
1546,1746.0,0.02178874758048864
1547,1747.0,0.016840829087866147
1548,1748.0,0.013463196624835003
1549,1749.0,0.01464030502779991
1550,1750.0,0.016913160595471648
1551,1751.0,0.01674244926678282
1552,1752.0,0.020114585321548802
1553,1753.0,0.023325347094104148
1554,1754.0,0.02447155820699536
1555,1755.0,0.02686936185167191
1556,1756.0,0.027828581496449054
1557,1757.0,0.03047177185285656
1558,1758.0,0.031177288270423358
1559,1759.0,0.029783817039038922
1560,1760.0,0.027490598794465908
1561,1761.0,0.01944579721489122
1562,1762.0,0.019274978573542996
1563,1763.0,0.016268214720325993
1564,1764.0,0.016828787607244353
1565,1765.0,0.015202665958197057
1566,1766.0,0.017166072109873073
1567,1767.0,0.019994069648705735
1568,1768.0,0.020385719264878015
1569,1769.0,0.0191902446097792
1570,1770.0,0.020945322967150293
1571,1771.0,0.020976282332946777
1572,1772.0,0.02328488492991269
1573,1773.0,0.023595009027941687
1574,1774.0,0.026085034107064725
1575,1775.0,0.02379491570656466
1576,1776.0,0.024637755797987524
1577,1777.0,0.02266902916154454
1578,1778.0,0.021618907738248174
1579,1779.0,0.01913203713031564
1580,1780.0,0.01856722155508235
1581,1781.0,0.018770005876335972
1582,1782.0,0.020703236445784978
1583,1783.0,0.026149668311318573
1584,1784.0,0.025427075099355073
1585,1785.0,0.023739982724223386
1586,1786.0,0.019639192682427684
1587,1787.0,0.017700604103416603
1588,1788.0,0.020226021438588416
1589,1789.0,0.015404747445617099
1590,1790.0,0.015706548651666038
1591,1791.0,0.015660626701096223
1592,1792.0,0.01707246849313083
1593,1793.0,0.02369858151661003
1594,1794.0,0.027368235343429637
1595,1795.0,0.02541221657580434
1596,1796.0,0.024219021390499765
1597,1797.0,0.029419397960671764
1598,1798.0,0.030370171637411056
1599,1799.0,0.034133967951714014
1600,1800.0,0.03363477575747921
1601,1801.0,0.028568275386546764
1602,1802.0,0.026799746452474554
1603,1803.0,0.02518486931028963
1604,1804.0,0.029427115625754466
1605,1805.0,0.027410981922215843
1606,1806.0,0.02708908972098362
1607,1807.0,0.026260675902626828
1608,1808.0,0.021215949425996847
1609,1809.0,0.024121707044749696
1610,1810.0,0.020376929370709767
1611,1811.0,0.015558056139913307
1612,1812.0,0.016845311188721256
1613,1813.0,0.01985435320597427
1614,1814.0,0.02530160960056588
1615,1815.0,0.03173590112551869
1616,1816.0,0.03241873231107406
1617,1817.0,0.030864402716050923
1618,1818.0,0.025062587460682507
1619,1819.0,0.023139895955631522
1620,1820.0,0.01774541477933136
1621,1821.0,0.014904355913939465
1622,1822.0,0.01606413192758676
1623,1823.0,0.019208871754622124
1624,1824.0,0.019222956532625953
1625,1825.0,0.020119062132649898
1626,1826.0,0.020445474031004843
1627,1827.0,0.01925929112369441
1628,1828.0,0.019969975927572943
1629,1829.0,0.01983509234025476
1630,1830.0,0.02033375847070411
1631,1831.0,0.024267169829122217
1632,1832.0,0.025013394292595154
1633,1833.0,0.028172213936231382
1634,1834.0,0.029156554368153304
1635,1835.0,0.02744430981499576
1636,1836.0,0.026766674705824993
1637,1837.0,0.023541583354017025
1638,1838.0,0.021699945102512223
1639,1839.0,0.02474844226477491
1640,1840.0,0.025127589605696995
1641,1841.0,0.024318783476454196
1642,1842.0,0.024295646037278656
1643,1843.0,0.025004840544629203
1644,1844.0,0.024289750243204292
1645,1845.0,0.026704917827604573
1646,1846.0,0.019458457272471797
1647,1847.0,0.016130593054702047
1648,1848.0,0.015302099037118067
1649,1849.0,0.021211237678672338
1650,1850.0,0.01980406903256736
1651,1851.0,0.023092374337605494
1652,1852.0,0.026512877766701748
1653,1853.0,0.030502239622954667
1654,1854.0,0.031653222193455136
1655,1855.0,0.03221926679522176
1656,1856.0,0.023566418402772956
1657,1857.0,0.0226778591664968
1658,1858.0,0.019591109251351876
1659,1859.0,0.01655599162868217
1660,1860.0,0.01222398380237997
1661,1861.0,0.014528711409214542
1662,1862.0,0.01819079787326087
1663,1863.0,0.022778970500944604
1664,1864.0,0.023546377437054334
1665,1865.0,0.02449744742937112
1666,1866.0,0.025268254699529147
1667,1867.0,0.026431668113349523
1668,1868.0,0.022189226086541704
1669,1869.0,0.020058798162349793
1670,1870.0,0.018529612632182973
1671,1871.0,0.02378273207707466
1672,1872.0,0.024334467344674586
1673,1873.0,0.023355919132770814
1674,1874.0,0.023092333961572252
1675,1875.0,0.022992306959510676
1676,1876.0,0.02473950349167908
1677,1877.0,0.021019102841001336
1678,1878.0,0.0199258060869656
1679,1879.0,0.01763124768550863
1680,1880.0,0.02078985616464652
1681,1881.0,0.03035479498837906
1682,1882.0,0.02669052031039962
1683,1883.0,0.028625717259887815
1684,1884.0,0.02940219709337701
1685,1885.0,0.025949161253373546
1686,1886.0,0.02634350669385642
1687,1887.0,0.020651197752499177
1688,1888.0,0.018939690306184108
1689,1889.0,0.01941145339842465
1690,1890.0,0.025615834366266067
1691,1891.0,0.033246922100186274
1692,1892.0,0.032153769296328426
1693,1893.0,0.03386776700961501
1694,1894.0,0.030224847883817758
1695,1895.0,0.02405374278963437
1696,1896.0,0.020877499990279456
1697,1897.0,0.019709899136937842
1698,1898.0,0.015684053805914838
1699,1899.0,0.018359255883162166
1700,1900.0,0.020343283274014315
1701,1901.0,0.025400281074447747
1702,1902.0,0.03031534516588585
1703,1903.0,0.03071740701001558
1704,1904.0,0.03182100786942865
1705,1905.0,0.03599991084510353
1706,1906.0,0.035487679380945644
1707,1907.0,0.03583412252926532
1708,1908.0,0.03403256699111751
1709,1909.0,0.03377617753118156
1710,1910.0,0.03409324828248632
1711,1911.0,0.03618914325958739
1712,1912.0,0.03870378583094498
1713,1913.0,0.03711860097935238
1714,1914.0,0.036441561738500036
1715,1915.0,0.03910122887262299
1716,1916.0,0.035588434032363725
1717,1917.0,0.03202339000022356
1718,1918.0,0.032162157175294255
1719,1919.0,0.03146376702617802
1720,1920.0,0.027337196752693537
1721,1921.0,0.021341044316569437
1722,1922.0,0.02236126340376389
1723,1923.0,0.01891832111574159
1724,1924.0,0.023235666114863014
1725,1925.0,0.02679021918761788
1726,1926.0,0.03143448403514815
1727,1927.0,0.03308181779496056
1728,1928.0,0.03636300599912276
1729,1929.0,0.03639311844286406
1730,1930.0,0.03330187399189055
1731,1931.0,0.02857895008926644
1732,1932.0,0.024635478628750068
1733,1933.0,0.021867921606086988
1734,1934.0,0.02206394070628742
1735,1935.0,0.02049577366754138
1736,1936.0,0.022294523953578595
1737,1937.0,0.02179239891908013
1738,1938.0,0.022774756403016853
1739,1939.0,0.02514135792096719
1740,1940.0,0.03030737860104521
1741,1941.0,0.02921592757744582
1742,1942.0,0.027040007951819406
1743,1943.0,0.03284838402756942
1744,1944.0,0.029876690787203616
1745,1945.0,0.034766037982546585
1746,1946.0,0.03693400012615232
1747,1947.0,0.03607117211550984
1748,1948.0,0.03503028190482652
1749,1949.0,0.03438055551570058
1750,1950.0,0.03257121171471517
1751,1951.0,0.025114942912252986
1752,1952.0,0.025458873367303625
1753,1953.0,0.03036633619622525
1754,1954.0,0.03251234805951557
1755,1955.0,0.04005826072177037
1756,1956.0,0.04221699146506686
1757,1957.0,0.03951968392372254
1758,1958.0,0.04061941889868151
1759,1959.0,0.03696846681446272
1760,1960.0,0.037396689445509675
1761,1961.0,0.03240564905120176
1762,1962.0,0.034545790851698614
1763,1963.0,0.034181350449856075
1764,1964.0,0.03503547746530166
1765,1965.0,0.03160073153499001
1766,1966.0,0.02917045098180203
1767,1967.0,0.02570066532495956
1768,1968.0,0.02710272750631988
1769,1969.0,0.02571030251537311
1770,1970.0,0.03232192433166599
1771,1971.0,0.034726178953964425
1772,1972.0,0.035263150800894774
1773,1973.0,0.037448231264372515
1774,1974.0,0.03920122555645074
1775,1975.0,0.039786405105358066
1776,1976.0,0.041261749974682405
1777,1977.0,0.03811439414490879
1778,1978.0,0.03863115334364916
1779,1979.0,0.03465968935375317
1780,1980.0,0.035677882204796056
1781,1981.0,0.03269165666376856
1782,1982.0,0.03216020523980722
1783,1983.0,0.03810850048610444
1784,1984.0,0.037367253968746954
1785,1985.0,0.04059310159893794
1786,1986.0,0.04026169634839928
1787,1987.0,0.04120766018903919
1788,1988.0,0.04373855716758759
1789,1989.0,0.04575329445355628
1790,1990.0,0.04822290768599278
1791,1991.0,0.045360016903213694
1792,1992.0,0.046824029131079324
1793,1993.0,0.050032159974131296
1794,1994.0,0.04574436049677128
1795,1995.0,0.0436489162183438
1796,1996.0,0.040659758251792875
1797,1997.0,0.03737182212298296
1798,1998.0,0.033952273243892814
1799,1999.0,0.03056827702650114
1800,2000.0,0.027386998882786704
