pixel_index,raman_shift_cm-1,intensity
0,200.0,0.007173930168106612
1,201.0,0.007174050964952149
2,202.0,0.0071741724755161225
3,203.0,0.007174294699798533
4,204.0,0.007174417459369772
5,205.0,0.007174541111089058
6,206.0,0.007174665476526781
7,207.0,0.007174790555682942
8,208.0,0.007174916348557539
9,209.0,0.007175042855150575
10,210.0,0.007175170075462047
11,211.0,0.007175298009491958
12,212.0,0.007175426835669916
13,213.0,0.0071755561971367
14,214.0,0.007175686450751532
15,215.0,0.007175817596514411
16,216.0,0.007175949277566118
17,217.0,0.007176081850765871
18,218.0,0.007176215316113672
19,219.0,0.0071763494951799095
20,220.0,0.007176484387964585
21,221.0,0.007176620351326917
22,222.0,0.007176756849978076
23,223.0,0.007176894419206891
24,224.0,0.007177032523724535
25,225.0,0.007177171698819835
26,226.0,0.007177311766063182
27,227.0,0.007177452547024967
28,228.0,0.007177594220134797
29,229.0,0.007177736785392675
30,230.0,0.007177880242798599
31,231.0,0.007178024592352571
32,232.0,0.007178169834054589
33,233.0,0.007178315967904653
34,234.0,0.007178462993902766
35,235.0,0.007178610912048924
36,236.0,0.007178759900772738
37,237.0,0.0071789097816446
38,238.0,0.007179060554664509
39,239.0,0.007179212219832464
40,240.0,0.007179364955578075
41,241.0,0.007179518583471733
42,242.0,0.007179673281943047
43,243.0,0.007179829050992017
44,244.0,0.007179985712189034
45,245.0,0.007180143265534098
46,246.0,0.007180302067886427
47,247.0,0.007180461762386804
48,248.0,0.007180622527464837
49,249.0,0.007180784363120525
50,250.0,0.007180947269353869
51,251.0,0.00718111124616487
52,252.0,0.007181276293553526
53,253.0,0.00718144241151984
54,254.0,0.00718160960006381
55,255.0,0.0071817780376150445
56,256.0,0.0071819475457439354
57,257.0,0.007182118124450482
58,258.0,0.007182289773734686
59,259.0,0.007182462850455764
60,260.0,0.007182636819324889
61,261.0,0.007182812215630888
62,262.0,0.007182988682514545
63,263.0,0.007183166398405465
64,264.0,0.007183345184874043
65,265.0,0.007183525398779495
66,266.0,0.007183706683262604
67,267.0,0.007183889395182588
68,268.0,0.007184073356109838
69,269.0,0.007184258387614742
70,270.0,0.007184445024986132
71,271.0,0.007184632732935178
72,272.0,0.007184821868321097
73,273.0,0.007185012252714283
74,274.0,0.0071852040645443436
75,275.0,0.00718539730381128
76,276.0,0.00718559179208548
77,277.0,0.007185787707796557
78,278.0,0.007185985050944509
79,279.0,0.007186183821529334
80,280.0,0.007186384197980644
81,281.0,0.007186585823439219
82,282.0,0.007186788876334669
83,283.0,0.007186993535096605
84,284.0,0.007187199621295414
85,285.0,0.007187407313360708
86,286.0,0.007187616432862876
87,287.0,0.007187827158231529
88,288.0,0.007188039489466666
89,289.0,0.007188253426568288
90,290.0,0.007188468791106784
91,291.0,0.007188685939941373
92,292.0,0.007188904694642448
93,293.0,0.007189125055210006
94,294.0,0.007189347200073658
95,295.0,0.007189570950803794
96,296.0,0.007189796485830024
97,297.0,0.007190023626722737
98,298.0,0.007190252730341153
99,299.0,0.007190483439826055
100,300.0,0.00719071593360705
101,301.0,0.007190950211684137
102,302.0,0.0071911864524869295
103,303.0,0.007191424477585814
104,304.0,0.007191664465410402
105,305.0,0.007191906237531082
106,306.0,0.007192149972377468
107,307.0,0.007192395669949554
108,308.0,0.0071926433302473445
109,309.0,0.0071928929532708375
110,310.0,0.007193144539020033
111,311.0,0.007193398265924541
112,312.0,0.007193653955554754
113,313.0,0.007193911786340277
114,314.0,0.0071941717582811125
115,315.0,0.007194433871377261
116,316.0,0.007194698125628721
117,317.0,0.007194964521035493
118,318.0,0.007195233236027189
119,319.0,0.0071955040921741955
120,320.0,0.007195777267906124
121,321.0,0.007196052763222974
122,322.0,0.007196330578124746
123,323.0,0.0071966107126114395
124,324.0,0.007196893166683054
125,325.0,0.0071971781187692005
126,326.0,0.0071974655688698775
127,327.0,0.0071977553385554754
128,328.0,0.007198047784685216
129,329.0,0.007198342728829485
130,330.0,0.007198640170988286
131,331.0,0.007198940289591229
132,332.0,0.00719924308463831
133,333.0,0.0071995483776999235
134,334.0,0.0071998565256352854
135,335.0,0.007200167350014789
136,336.0,0.007200481029268042
137,337.0,0.007200797563395044
138,338.0,0.007201116773966188
139,339.0,0.00720143901784069
140,340.0,0.007201764116588942
141,341.0,0.007202092248640554
142,342.0,0.007202423413995523
143,343.0,0.007202757434224242
144,344.0,0.007203094666185931
145,345.0,0.007203435109880588
146,346.0,0.007203778586878604
147,347.0,0.007204125454039198
148,348.0,0.00720447553293276
149,349.0,0.007204828823559289
150,350.0,0.007205185504348399
151,351.0,0.007205545575300085
152,352.0,0.0072059092148439585
153,353.0,0.00720627624455041
154,354.0,0.007206646664419438
155,355.0,0.007207021009739873
156,356.0,0.007207398745222886
157,357.0,0.007207780227727696
158,358.0,0.007208165457254301
159,359.0,0.007208554612232313
160,360.0,0.007208947514232121
161,361.0,0.007209344341683336
162,362.0,0.007209745273015565
163,363.0,0.007210150129799199
164,364.0,0.007210559090463851
165,365.0,0.007210972155009516
166,366.0,0.007211389501865806
167,367.0,0.007211811131032721
168,368.0,0.007212237042510262
169,369.0,0.007212667414728035
170,370.0,0.007213102069256434
171,371.0,0.007213541541384284
172,372.0,0.007213985474252369
173,373.0,0.007214434046290297
174,374.0,0.007214887435927678
175,375.0,0.007215345643164512
176,376.0,0.007215808846430407
177,377.0,0.007216276867295756
178,378.0,0.007216750062619777
179,379.0,0.007217228432402466
180,380.0,0.00721771179821422
181,381.0,0.007218200695343863
182,382.0,0.007218694766932178
183,383.0,0.007219194548267993
184,384.0,0.007219699682492087
185,385.0,0.007220210526463682
186,386.0,0.007220727080182775
187,387.0,0.007221249522078979
188,388.0,0.00722177785215229
189,389.0,0.00722231224883232
190,390.0,0.007222852712119069
191,391.0,0.007223399420442144
192,392.0,0.007223952552231156
193,393.0,0.007224512107486106
194,394.0,0.007225078086206992
195,395.0,0.007225650845253034
196,396.0,0.007226230384624232
197,397.0,0.007226816704320584
198,398.0,0.007227409982771703
199,399.0,0.007228010576836806
200,400.0,0.007228618308086281
201,401.0,0.007229233354949741
202,402.0,0.007229856074286404
203,403.0,0.00723048628766666
204,404.0,0.007231124351949727
205,405.0,0.007231770445565215
206,406.0,0.007232424390083516
207,407.0,0.007233086720793457
208,408.0,0.007233757259265427
209,409.0,0.007234436362358646
210,410.0,0.007235124030073116
211,411.0,0.007235820619268053
212,412.0,0.007236526129943458
213,413.0,0.007237240918958549
214,414.0,0.007237964807883719
215,415.0,0.007238698332007794
216,416.0,0.007239441669760382
217,417.0,0.007240194642711877
218,418.0,0.007240957786151104
219,419.0,0.007241731100078065
220,420.0,0.0072425147629223705
221,421.0,0.007243309131543236
222,422.0,0.007244114384370272
223,423.0,0.007244930699833089
224,424.0,0.007245758434790904
225,425.0,0.007246597410814111
226,426.0,0.007247448341621144
227,427.0,0.007248311048782393
228,428.0,0.007249186067586689
229,429.0,0.007250073576463641
230,430.0,0.007250973753842855
231,431.0,0.007251886778153945
232,432.0,0.007252813184685737
233,433.0,0.00725375297343823
234,434.0,0.007254706679700253
235,435.0,0.007255674481901415
236,436.0,0.007256656558471327
237,437.0,0.007257653444698814
238,438.0,0.0072586653190134885
239,439.0,0.007259692359844959
240,440.0,0.007260735280911662
241,441.0,0.007261794082213597
242,442.0,0.007262869120609985
243,443.0,0.007263960931389651
244,444.0,0.007265069871411818
245,445.0,0.0072661962975357
246,446.0,0.007267340566620518
247,447.0,0.007268502857095882
248,448.0,0.007269684061109837
249,449.0,0.007270884357091995
250,450.0,0.007272103923471962
251,451.0,0.007273343652397788
252,452.0,0.0072746039007286906
253,453.0,0.007275885025323886
254,454.0,0.007277187383042598
255,455.0,0.007278511866032868
256,456.0,0.007279858652724309
257,457.0,0.007281228456835357
258,458.0,0.007282621813654841
259,459.0,0.0072840394369011975
260,460.0,0.007285481505004036
261,461.0,0.007286949088541012
262,462.0,0.007288442544371346
263,463.0,0.007289962407783865
264,464.0,0.0072915097493562245
265,465.0,0.007293084925947645
266,466.0,0.007294688829706172
267,467.0,0.007296321995920635
268,468.0,0.007297985495168686
269,469.0,0.007299679862739159
270,470.0,0.007301405812350488
271,471.0,0.007303164593009938
272,472.0,0.007304956740006339
273,473.0,0.007306783145487736
274,474.0,0.0073086448800317875
275,475.0,0.007310542835786537
276,476.0,0.007312478083329643
277,477.0,0.007314451514809152
278,478.0,0.007316464200802721
279,479.0,0.007318517211888005
280,480.0,0.0073206119755018775
281,481.0,0.007322749383792388
282,482.0,0.0073249306857668
283,483.0,0.007327157130432379
284,484.0,0.007329430323655612
285,485.0,0.007331751157584544
286,486.0,0.007334121416515267
287,487.0,0.007336542349455048
288,488.0,0.007339015562270371
289,489.0,0.007341542660827721
290,490.0,0.007344125072563973
291,491.0,0.0073467647602048275
292,492.0,0.007349463508046381
293,493.0,0.007352222921955116
294,494.0,0.007355045143086345
295,495.0,0.007357931777306552
296,496.0,0.00736088532263027
297,497.0,0.0073639077417832
298,498.0,0.007367001354350265
299,499.0,0.0073701683014867755
300,500.0,0.0073734112596368735
301,501.0,0.00737673236995587
302,502.0,0.007380134665747126
303,503.0,0.00738362064502517
304,504.0,0.007387193341093362
305,505.0,0.0073908556088254545
306,506.0,0.007394610659954411
307,507.0,0.007398461706213204
308,508.0,0.007402412137764409
309,509.0,0.007406465344770606
310,510.0,0.007410625431112809
311,511.0,0.007414895786953595
312,512.0,0.007419281051462809
313,513.0,0.007423784971662245
314,514.0,0.007428412186721748
315,515.0,0.007433167335811163
316,516.0,0.007438055414959549
317,517.0,0.007443081241766361
318,518.0,0.007448250704408706
319,519.0,0.007453568977345257
320,520.0,0.007459042127182731
321,521.0,0.007464676398957457
322,522.0,0.007470478216135369
323,523.0,0.007476454715900846
324,524.0,0.007482612857008649
325,525.0,0.007488960311931981
326,526.0,0.007495504931573656
327,527.0,0.00750225545898453
328,528.0,0.007509220637215464
329,529.0,0.007516409923035753
330,530.0,0.007523833130073909
331,531.0,0.00753150060724728
332,532.0,0.0075394234171916414
333,533.0,0.007547613514690824
334,534.0,0.007556082854528652
335,535.0,0.00756484481892583
336,536.0,0.007573912968532667
337,537.0,0.007583302291436349
338,538.0,0.0075930281325832846
339,539.0,0.007603107085927139
340,540.0,0.007613556637569632
341,541.0,0.007624395522619747
342,542.0,0.007635643725193731
343,543.0,0.007647321943126269
344,544.0,0.00765945301540736
345,545.0,0.00767206085160466
346,546.0,0.007685170967152304
347,547.0,0.007698810840210134
348,548.0,0.0077130095548044765
349,549.0,0.007727798514546578
350,550.0,0.007743211264202998
351,551.0,0.007759283489695609
352,552.0,0.007776053910249641
353,553.0,0.007793563743104855
354,554.0,0.007811857417233984
355,555.0,0.007830983108631553
356,556.0,0.00785099202659545
357,557.0,0.007871939841163791
358,558.0,0.007893886683114934
359,559.0,0.007916897500826683
360,560.0,0.007941042595565126
361,561.0,0.00796639797834385
362,562.0,0.007993046262071991
363,563.0,0.008021077375272662
364,564.0,0.008050588918942184
365,565.0,0.008081687415557343
366,566.0,0.008114488844364222
367,567.0,0.00814912024724469
368,568.0,0.00818572079929404
369,569.0,0.008224442344109836
370,570.0,0.008265452605524881
371,571.0,0.008308935366036814
372,572.0,0.008355093500111472
373,573.0,0.008404151115338212
374,574.0,0.008456355515155606
375,575.0,0.008511981838021283
376,576.0,0.008571334663278422
377,577.0,0.008634753899332848
378,578.0,0.008702618173815626
379,579.0,0.008775351435478584
380,580.0,0.008853428663941844
381,581.0,0.008937383720596603
382,582.0,0.00902781862694484
383,583.0,0.009125413378227821
384,584.0,0.009230938611928367
385,585.0,0.009345270774287647
386,586.0,0.009469409249547683
387,587.0,0.009604497414645244
388,588.0,0.009751848333075606
389,589.0,0.009912975087926127
390,590.0,0.010089628073664623
391,591.0,0.010283839960400906
392,592.0,0.010497981720784139
393,593.0,0.01073483096854321
394,594.0,0.01099765564197353
395,595.0,0.011290321240132248
396,596.0,0.01161742071959387
397,597.0,0.011984442396712668
398,598.0,0.012397979780843279
399,599.0,0.01286599886189553
400,600.0,0.013398182836339721
401,601.0,0.014006372471482512
402,602.0,0.014705137972364935
403,603.0,0.015512519107781998
404,604.0,0.016450989087032453
405,605.0,0.01754870428090274
406,606.0,0.018841118117483645
407,607.0,0.02037304123043994
408,608.0,0.022201198890601355
409,609.0,0.024397250570241717
410,610.0,0.027050977766479797
411,611.0,0.03027274882790297
412,612.0,0.03419306217476726
413,613.0,0.03895433871539643
414,614.0,0.044685435139210805
415,615.0,0.05144271950096217
416,616.0,0.05909777957938711
417,617.0,0.06716865309003965
418,618.0,0.07466306442653756
419,619.0,0.08013206131485404
420,620.0,0.08215785153579276
421,621.0,0.08013281018392453
422,622.0,0.07466456252153773
423,623.0,0.06717090041096953
424,624.0,0.05910077612624669
425,625.0,0.051446465630610665
426,626.0,0.044689931030077824
427,627.0,0.03895958472434119
428,628.0,0.03419905883707859
429,629.0,0.030279496500440095
430,630.0,0.027058476984531545
431,631.0,0.02440550186909691
432,632.0,0.02221020280554882
433,633.0,0.020382798296768513
434,634.0,0.018851629227341366
435,635.0,0.01755997014800805
436,636.0,0.01646301078196301
437,637.0,0.015525297165826625
438,638.0,0.014718673464101288
439,639.0,0.01402066646748825
440,640.0,0.013413236407192502
441,641.0,0.012881813078173009
442,642.0,0.01241455571312311
443,643.0,0.012001781472431727
444,644.0,0.011635524009329814
445,645.0,0.01130919017132195
446,646.0,0.011017291820483475
447,647.0,0.010755235464951055
448,648.0,0.010519156497815586
449,649.0,0.01030578626706322
450,650.0,0.010112347515824288
451,651.0,0.00993646962830885
452,652.0,0.009776119577547865
453,653.0,0.009629547147503139
454,654.0,0.00949523943351691
455,655.0,0.009371883372093916
456,656.0,0.009258335586297375
457,657.0,0.009153596691885275
458,658.0,0.00905679059947566
459,659.0,0.008967146493156102
460,660.0,0.008883984199255724
461,661.0,0.008806702409990987
462,662.0,0.008734766907111469
463,663.0,0.00866770271099706
464,664.0,0.008605086229755138
465,665.0,0.008546538478895428
466,666.0,0.008491720263730537
467,667.0,0.008440326291198851
468,668.0,0.008392082136561176
469,669.0,0.008346740139519727
470,670.0,0.008304076549344362
471,671.0,0.008263888491569242
472,672.0,0.00822599182683751
473,673.0,0.008190219723464414
474,674.0,0.00815641980256356
475,675.0,0.008124453067469261
476,676.0,0.00809419265472926
477,677.0,0.008065522585097474
478,678.0,0.008038336514526727
479,679.0,0.00801253666359109
480,680.0,0.007988033460626662
481,681.0,0.007964744292724313
482,682.0,0.007942593148870455
483,683.0,0.00792150990622861
484,684.0,0.007901429437991362
485,685.0,0.007882291970239574
486,686.0,0.007864042011364739
487,687.0,0.00784662799520975
488,688.0,0.007830002281068907
489,689.0,0.007814120261539874
490,690.0,0.007798940897812494
491,691.0,0.007784425649091149
492,692.0,0.007770538651024356
493,693.0,0.007757246358845558
494,694.0,0.007744518082661941
495,695.0,0.007732324203158356
496,696.0,0.007720637599034177
497,697.0,0.007709432754855268
498,698.0,0.007698685939483583
499,699.0,0.007688374670788342
500,700.0,0.007678477715646032
501,701.0,0.007668975625229235
502,702.0,0.007659849664428966
503,703.0,0.007651082347143508
504,704.0,0.007642657436278409
505,705.0,0.007634559408457657
506,706.0,0.007626773454023674
507,707.0,0.007619286190755755
508,708.0,0.007612084414862812
509,709.0,0.007605155993131407
510,710.0,0.0075984893276369305
511,711.0,0.007592073534173214
512,712.0,0.007585898263822912
513,713.0,0.007579953524527903
514,714.0,0.0075742303948077155
515,715.0,0.007568719953181886
516,716.0,0.007563413813458771
517,717.0,0.007558304303165171
518,718.0,0.007553383571398272
519,719.0,0.007548644837832919
520,720.0,0.007544081322143955
521,721.0,0.007539686600865445
522,722.0,0.0075354544289610624
523,723.0,0.0075313792751129155
524,724.0,0.007527455429573504
525,725.0,0.007523677717884158
526,726.0,0.007520041144015815
527,727.0,0.007516540890369022
528,728.0,0.007513172674633154
529,729.0,0.007509932214497588
530,730.0,0.007506815049222087
531,731.0,0.007503817431784859
532,732.0,0.007500935793593712
533,733.0,0.007498166387626853
534,734.0,0.007495505823721703
535,735.0,0.007492951068574902
536,736.0,0.007490498732023875
537,737.0,0.007488146137624478
538,738.0,0.007485890252073353
539,739.0,0.007483728398926361
540,740.0,0.00748165825859858
541,741.0,0.007479677154645867
542,742.0,0.007477782767483304
543,743.0,0.007475972777525967
544,744.0,0.007474245222048155
545,745.0,0.007472598138324163
546,746.0,0.007471029206769071
547,747.0,0.007469536821516393
548,748.0,0.007468119019840427
549,749.0,0.007466774374304299
550,750.0,0.007465501100611914
551,751.0,0.007464297592896787
552,752.0,0.007463162423722047
553,753.0,0.007462094165650815
554,754.0,0.007461091569675828
555,755.0,0.007460153208360209
556,756.0,0.007459277832696695
557,757.0,0.007458464193678019
558,758.0,0.007457711577585743
559,759.0,0.007457018378553382
560,760.0,0.007456384061292112
561,761.0,0.007455807376794665
562,762.0,0.0074552874329129925
563,763.0,0.00745482333749905
564,764.0,0.0074544143768344
565,765.0,0.007454059837200604
566,766.0,0.007453758648020006
567,767.0,0.007453510452433388
568,768.0,0.007453314358292702
569,769.0,0.007453169830309121
570,770.0,0.0074530763331938175
571,771.0,0.007453033153228352
572,772.0,0.007453039933553509
573,773.0,0.007453096138880455
574,774.0,0.007453201233920369
575,775.0,0.007453354861814027
576,776.0,0.007453556665702212
577,777.0,0.007453806110296095
578,778.0,0.007454103195595678
579,779.0,0.007454447207882521
580,780.0,0.007454838147156627
581,781.0,0.007455275834988384
582,782.0,0.007455759914518575
583,783.0,0.0074562900288879805
584,784.0,0.00745686635652621
585,785.0,0.007457488540574044
586,786.0,0.007458156581031483
587,787.0,0.00745887012103931
588,788.0,0.00745962951745674
589,789.0,0.007460434413424559
590,790.0,0.0074612849873723725
591,791.0,0.007462181239300183
592,792.0,0.007463122990778379
593,793.0,0.00746411059866618
594,794.0,0.007465143884533978
595,795.0,0.0074662230268113805
596,796.0,0.007467348203927996
597,797.0,0.0074685197727430465
598,798.0,0.007469737554826922
599,799.0,0.007471001907038838
600,800.0,0.007472313007808407
601,801.0,0.007473671213994847
602,802.0,0.007475076704027767
603,803.0,0.007476529834766386
604,804.0,0.007478030963069922
605,805.0,0.007479580267367985
606,806.0,0.007481178282949404
607,807.0,0.007482825366673396
608,808.0,0.007484522053828789
609,809.0,0.007486268522845194
610,810.0,0.007488065309011438
611,811.0,0.007489913126045959
612,812.0,0.007491812330807974
613,813.0,0.007493763637015922
614,814.0,0.0074957672230994135
615,815.0,0.007497824159636103
616,816.0,0.0074999348034852096
617,817.0,0.007502100046794779
618,818.0,0.0075043202464240314
619,819.0,0.007506596472950623
620,820.0,0.007508929261663381
621,821.0,0.007511319504710353
622,822.0,0.007513767737380366
623,823.0,0.007516275208680686
624,824.0,0.007518842632329751
625,825.0,0.007521470900475607
626,826.0,0.007524161083695912
627,827.0,0.0075269138957091
628,828.0,0.00752973058552244
629,829.0,0.007532612223713585
630,830.0,0.007535559880860194
631,831.0,0.0075385744491103125
632,832.0,0.007541657355900815
633,833.0,0.007544809850238968
634,834.0,0.0075480331811320365
635,835.0,0.007551328419157676
636,836.0,0.007554697170182372
637,837.0,0.007558140861642997
638,838.0,0.0075616607425468205
639,839.0,0.007565258418760324
640,840.0,0.0075689354961499915
641,841.0,0.007572693580582308
642,842.0,0.007576534099494148
643,843.0,0.007580459015611216
644,844.0,0.007584470113229604
645,845.0,0.007588569176645406
646,846.0,0.007592757990154715
647,847.0,0.007597038694912843
648,848.0,0.007601413253645495
649,849.0,0.007605883807507982
650,850.0,0.007610452676085225
651,851.0,0.007615121643673319
652,852.0,0.007619893565146013
653,853.0,0.007624770581658619
654,854.0,0.007629755369655279
655,855.0,0.007634850427150521
656,856.0,0.007640058252158879
657,857.0,0.007645382056413319
658,858.0,0.007650824159498766
659,859.0,0.007656388130007404
660,860.0,0.007662076644383374
661,861.0,0.007667892914359646
662,862.0,0.0076738405085284055
663,863.0,0.007679922638622621
664,864.0,0.00768614305166409
665,865.0,0.007692505137815391
666,866.0,0.007699013000957537
667,867.0,0.007705670388112326
668,868.0,0.0077124817600199925
669,869.0,0.007719451042131942
670,870.0,0.007726582695188407
671,871.0,0.007733881536788841
672,872.0,0.007741352206103088
673,873.0,0.007748999699160209
674,874.0,0.007756829011989268
675,875.0,0.007764845854337762
676,876.0,0.007773055400664364
677,877.0,0.007781463539146182
678,878.0,0.007790076514819545
679,879.0,0.007798900394291169
680,880.0,0.0078079416010269935
681,881.0,0.007817207093781782
682,882.0,0.0078267038313103
683,883.0,0.00783643912922653
684,884.0,0.007846420838433284
685,885.0,0.007856656631403764
686,886.0,0.007867155072759223
687,887.0,0.007877924727120907
688,888.0,0.007888974694398893
689,889.0,0.007900314252932868
690,890.0,0.007911953573210567
691,891.0,0.007923902468860503
692,892.0,0.007936172002518458
693,893.0,0.007948773415249818
694,894.0,0.007961718304979196
695,895.0,0.007975018983349635
696,896.0,0.00798868829729301
697,897.0,0.00800273980745963
698,898.0,0.008017187431359029
699,899.0,0.00803204580021917
700,900.0,0.00804733061584568
701,901.0,0.00806305811533301
702,902.0,0.008079245071064438
703,903.0,0.008095909326000902
704,904.0,0.008113069615251383
705,905.0,0.00813074574450252
706,906.0,0.00814895823315939
707,907.0,0.008167729028063946
708,908.0,0.008187080611346962
709,909.0,0.008207037427864924
710,910.0,0.008227624636192752
711,911.0,0.008248869000771849
712,912.0,0.008270798535050883
713,913.0,0.008293443215204229
714,914.0,0.008316834266413522
715,915.0,0.008341004876586103
716,916.0,0.0083659898394958
717,917.0,0.008391826446930966
718,918.0,0.008418553596546441
719,919.0,0.008446213040870818
720,920.0,0.008474848673587996
721,921.0,0.008504507064826021
722,922.0,0.008535237818016291
723,923.0,0.008567093391463962
724,924.0,0.008600129633636757
725,925.0,0.008634405783164989
726,926.0,0.008669985360989587
727,927.0,0.008706935456643672
728,928.0,0.008745328155689422
729,929.0,0.008785239647570036
730,930.0,0.008826752188335426
731,931.0,0.00886995303006457
732,932.0,0.00891493602673199
733,933.0,0.008961801098918929
734,934.0,0.009010655839679827
735,935.0,0.009061615692971944
736,936.0,0.009114804488944169
737,937.0,0.009170355514514698
738,938.0,0.009228412227089453
739,939.0,0.00928912932513975
740,940.0,0.009352673461920728
741,941.0,0.00941922502976745
742,942.0,0.009488979052242946
743,943.0,0.009562146611575086
744,944.0,0.009638956989811898
745,945.0,0.009719658739399216
746,946.0,0.00980452253805444
747,947.0,0.009893843151492231
748,948.0,0.009987942109868652
749,949.0,0.010087170384225312
750,950.0,0.010191912668799992
751,951.0,0.010302589879041165
752,952.0,0.010419664861355512
753,953.0,0.010543646496988919
754,954.0,0.010675095768633217
755,955.0,0.010814631648603268
756,956.0,0.010962939841887839
757,957.0,0.01112077992333397
758,958.0,0.01128899622185315
759,959.0,0.011468529596775525
760,960.0,0.011660429571063346
761,961.0,0.011865871282123849
762,962.0,0.01208617314634059
763,963.0,0.012322818449056161
764,964.0,0.012577480503147142
765,965.0,0.012852053338916867
766,966.0,0.013148685605721244
767,967.0,0.013469824465652624
768,968.0,0.013818265375400833
769,969.0,0.01419721328760918
770,970.0,0.014610355985443888
771,971.0,0.015061952762109967
772,972.0,0.015556943798201736
773,973.0,0.01610108237804336
774,974.0,0.01670109886649986
775,975.0,0.01736490304815411
776,976.0,0.018101836962063318
777,977.0,0.01892298947316031
778,978.0,0.019841593991852795
779,979.0,0.020873530753373712
780,980.0,0.022037967023219616
781,981.0,0.02335817662434644
782,982.0,0.024862593028723977
783,983.0,0.02658617255955132
784,984.0,0.028572161379678395
785,985.0,0.030874391345389555
786,986.0,0.033560260316168725
787,987.0,0.03671458213038049
788,988.0,0.04044449288423869
789,989.0,0.044885549298995076
790,990.0,0.05020892407336629
791,991.0,0.056629005022166855
792,992.0,0.06440927343978955
793,993.0,0.07386122816966093
794,994.0,0.0853248571972154
795,995.0,0.09910797211800215
796,996.0,0.11534592999054001
797,997.0,0.1337342967133554
798,998.0,0.153127040495519
799,999.0,0.17116331974265972
800,1000.0,0.184395229914215
801,1001.0,0.1894493681471436
802,1002.0,0.1848816704249967
803,1003.0,0.172141968322916
804,1004.0,0.1546095944551506
805,1005.0,0.1357387158846924
806,1006.0,0.11789695524478644
807,1007.0,0.10223785781878261
808,1008.0,0.08907435399086333
809,1009.0,0.07828086910584284
810,1010.0,0.06956103354530173
811,1011.0,0.06258843085832302
812,1012.0,0.057067857285554864
813,1013.0,0.05275561081166114
814,1014.0,0.04946155077830231
815,1015.0,0.04704448904732566
816,1016.0,0.04540623723213788
817,1017.0,0.04448653198118526
818,1018.0,0.04425964035463568
819,1019.0,0.04473280802206598
820,1020.0,0.0459463681045237
821,1021.0,0.047974939686213094
822,1022.0,0.05092836314250747
823,1023.0,0.054949337375061955
824,1024.0,0.060201312113811335
825,1025.0,0.06683406206499949
826,1026.0,0.07490570460726836
827,1027.0,0.08423501520985807
828,1028.0,0.09417991652935719
829,1029.0,0.1034317992088321
830,1030.0,0.11008544451628344
831,1031.0,0.1122776085715951
832,1032.0,0.10920694794047148
833,1033.0,0.1016643229607991
834,1034.0,0.09150220036428885
835,1035.0,0.08061441614444062
836,1036.0,0.07029725391920312
837,1037.0,0.061179134208117054
838,1038.0,0.05342583738867466
839,1039.0,0.04696146378736527
840,1040.0,0.041615438444663616
841,1041.0,0.03719964052540807
842,1042.0,0.033541748244197735
843,1043.0,0.030495961949626012
844,1044.0,0.027943581522496506
845,1045.0,0.025789760205939982
846,1046.0,0.02395931507818659
847,1047.0,0.022392759313342562
848,1048.0,0.02104294128126833
849,1049.0,0.019872338484122988
850,1050.0,0.018850934600872133
851,1051.0,0.01795457508000803
852,1052.0,0.017163700110893538
853,1053.0,0.016462368256939707
854,1054.0,0.015837504553231938
855,1055.0,0.015278317041707375
856,1056.0,0.014775844273665578
857,1057.0,0.014322600770134726
858,1058.0,0.013912298136392182
859,1059.0,0.0135396257719746
860,1060.0,0.013200074939083086
861,1061.0,0.012889799052199082
862,1062.0,0.012605501267430468
863,1063.0,0.012344342591262733
864,1064.0,0.012103869081278366
865,1065.0,0.011881949574223177
866,1066.0,0.011676727331582187
867,1067.0,0.011486578465480613
868,1068.0,0.0113100776801989
869,1069.0,0.01114596990186482
870,1070.0,0.010993146725745032
871,1071.0,0.010850626610558453
872,1072.0,0.010717537570804148
873,1073.0,0.010593102902392577
874,1074.0,0.01047662958472099
875,1075.0,0.010367497396467255
876,1076.0,0.010265150350968609
877,1077.0,0.010169089380607678
878,1078.0,0.010078865021198485
879,1079.0,0.009994072237527785
880,1080.0,0.009914345962614833
881,1081.0,0.0098393559232527
882,1082.0,0.009768803606704932
883,1083.0,0.00970241922740218
884,1084.0,0.0096399579799204
885,1085.0,0.009581199146832819
886,1086.0,0.009525942173258512
887,1087.0,0.009474006310003204
888,1088.0,0.00942522811554472
889,1089.0,0.009379460563884948
890,1090.0,0.009336571081824136
891,1091.0,0.009296441905820105
892,1092.0,0.009258967227114506
893,1093.0,0.009224054262310473
894,1094.0,0.009191621290646917
895,1095.0,0.009161598010857754
896,1096.0,0.009133924470594239
897,1097.0,0.00910855106642497
898,1098.0,0.009085438186976666
899,1099.0,0.009064556569793396
900,1100.0,0.00904588640918852
901,1101.0,0.009029417891533524
902,1102.0,0.009015151908976454
903,1103.0,0.00900309934572348
904,1104.0,0.008993281970186945
905,1105.0,0.008985733327133408
906,1106.0,0.008980498559254037
907,1107.0,0.008977636013031092
908,1108.0,0.008977217952456365
909,1109.0,0.00897933162960883
910,1110.0,0.008984080712091525
911,1111.0,0.008991587424186863
912,1112.0,0.00900199415272311
913,1113.0,0.009015465409800097
914,1114.0,0.009032191579811007
915,1115.0,0.009052391417456916
916,1116.0,0.009076316151627803
917,1117.0,0.009104254303001998
918,1118.0,0.009136536144786425
919,1119.0,0.009173541732049019
920,1120.0,0.009215706968325445
921,1121.0,0.009263533240818
922,1122.0,0.009317599375179442
923,1123.0,0.009378573055007998
924,1124.0,0.00944722830794906
925,1125.0,0.009524464240804194
926,1126.0,0.00961132877066916
927,1127.0,0.009709047530530644
928,1128.0,0.009819060090476955
929,1129.0,0.009943063851381925
930,1130.0,0.010083069358083807
931,1131.0,0.0102414691732145
932,1132.0,0.010421125664567332
933,1133.0,0.010625480025588403
934,1134.0,0.010858693770056787
935,1135.0,0.011125827696982733
936,1136.0,0.011433073313810993
937,1137.0,0.011788052776594159
938,1138.0,0.012200205725385755
939,1139.0,0.012681294596893935
940,1140.0,0.0132460587474294
941,1141.0,0.013913060744542582
942,1142.0,0.014705764617153004
943,1143.0,0.015653875861915557
944,1144.0,0.016794922686418648
945,1145.0,0.018175926110327797
946,1146.0,0.019854691617327783
947,1147.0,0.021899568632009227
948,1148.0,0.02438515197214953
949,1149.0,0.02737893228062947
950,1150.0,0.030910429487310206
951,1151.0,0.034912374558885795
952,1152.0,0.039132305299919026
953,1153.0,0.04305045340347374
954,1154.0,0.04590783837153796
955,1155.0,0.04696180280362306
956,1156.0,0.045894061821399365
957,1157.0,0.04302289102485686
958,1158.0,0.0390909388930037
959,1159.0,0.034857176288652966
960,1160.0,0.030841362597260353
961,1161.0,0.02729595037906415
962,1162.0,0.024288199567460242
963,1163.0,0.021788580418958942
964,1164.0,0.01972959301233979
965,1165.0,0.018036632537767258
966,1166.0,0.016641339578592602
967,1167.0,0.015485898837502529
968,1168.0,0.014523278945914176
969,1169.0,0.013715941168892187
970,1170.0,0.013034169482434714
971,1171.0,0.012454488794986457
972,1172.0,0.011958325654790809
973,1173.0,0.011530928929182857
974,1174.0,0.011160524761959443
975,1175.0,0.010837660844564782
976,1176.0,0.01055470342302167
977,1177.0,0.010305447429235047
978,1178.0,0.010084819217262791
979,1179.0,0.009888643355816294
980,1180.0,0.009713464555510323
981,1181.0,0.009556405995753182
982,1182.0,0.009415059768966576
983,1183.0,0.009287399450077016
984,1184.0,0.009171711222686606
985,1185.0,0.009066538744323765
986,1186.0,0.008970638182181648
987,1187.0,0.008882943419344334
988,1188.0,0.008802535900182849
989,1189.0,0.00872862161293554
990,1190.0,0.00866051110559185
991,1191.0,0.008597604319375502
992,1192.0,0.008539376135946151
993,1193.0,0.008485366563770875
994,1194.0,0.008435170210777207
995,1195.0,0.008388429682457602
996,1196.0,0.008344828801544274
997,1197.0,0.008304086362972876
998,1198.0,0.008265952565290306
999,1199.0,0.008230204371484863
1000,1200.0,0.008196642118823677
1001,1201.0,0.008165087020838168
1002,1202.0,0.008135378134020694
1003,1203.0,0.008107370930387678
1004,1204.0,0.008080934442605847
1005,1205.0,0.008055950550273808
1006,1206.0,0.008032312017196334
1007,1207.0,0.008009921956095544
1008,1208.0,0.007988691509025979
1009,1209.0,0.007968540204233814
1010,1210.0,0.007949394528719997
1011,1211.0,0.007931187214521797
1012,1212.0,0.007913856881853597
1013,1213.0,0.007897346611670011
1014,1214.0,0.007881605016243543
1015,1215.0,0.007866584098009274
1016,1216.0,0.007852239963283304
1017,1217.0,0.007838532286973917
1018,1218.0,0.007825423598863148
1019,1219.0,0.007812879105177173
1020,1220.0,0.007800867045445524
1021,1221.0,0.007789357800353048
1022,1222.0,0.007778323534880685
1023,1223.0,0.007767738733594298
1024,1224.0,0.00775757984378545
1025,1225.0,0.007747824561752972
1026,1226.0,0.007738452189662178
1027,1227.0,0.007729443635544867
1028,1228.0,0.007720781056440102
1029,1229.0,0.007712447323105386
1030,1230.0,0.007704426912164704
1031,1231.0,0.00769670519239009
1032,1232.0,0.0076892682462720114
1033,1233.0,0.007682103226878596
1034,1234.0,0.007675198179426018
1035,1235.0,0.0076685413275600555
1036,1236.0,0.007662122500792979
1037,1237.0,0.007655931171777835
1038,1238.0,0.007649958062174938
1039,1239.0,0.007644194250503818
1040,1240.0,0.007638631529002445
1041,1241.0,0.0076332616899087895
1042,1242.0,0.007628077239179258
1043,1243.0,0.007623071396488695
1044,1244.0,0.007618237381511944
1045,1245.0,0.0076135687707830696
1046,1246.0,0.00760905967612496
1047,1247.0,0.0076047045662197285
1048,1248.0,0.007600498088179092
1049,1249.0,0.007596435067544382
1050,1250.0,0.007592510865145753
1051,1251.0,0.0075887208418133605
1052,1252.0,0.007585060893666192
1053,1253.0,0.0075815267383936204
1054,1254.0,0.00757811462897385
1055,1255.0,0.0075748209968146945
1056,1256.0,0.007571642094894356
1057,1257.0,0.0075685748899094775
1058,1258.0,0.0075656161701270885
1059,1259.0,0.007562763080673439
1060,1260.0,0.007560012588245173
1061,1261.0,0.007557362194827756
1062,1262.0,0.007554809402406658
1063,1263.0,0.00755235153453774
1064,1264.0,0.007549986628495297
1065,1265.0,0.007547712364694409
1066,1266.0,0.007545526780409372
1067,1267.0,0.007543427912914484
1068,1268.0,0.00754141379948404
1069,1269.0,0.007539482834251559
1070,1270.0,0.007537633232920944
1071,1271.0,0.0075358637464849314
1072,1272.0,0.007534172412217819
1073,1273.0,0.007532558337971559
1074,1274.0,0.0075310197394500575
1075,1275.0,0.0075295557245052686
1076,1276.0,0.007528165044129924
1077,1277.0,0.0075268466277463725
1078,1278.0,0.007525599226347344
1079,1279.0,0.007524422304644013
1080,1280.0,0.0075233146136291125
1081,1281.0,0.007522275439584206
1082,1282.0,0.007521303890361248
1083,1283.0,0.007520399609101017
1084,1284.0,0.007519561525225859
1085,1285.0,0.007518789281876553
1086,1286.0,0.007518082343764273
1087,1287.0,0.00751744017560019
1088,1288.0,0.0075168622420954765
1089,1289.0,0.007516348186390914
1090,1290.0,0.007515897830056892
1091,1291.0,0.007515510816234193
1092,1292.0,0.007515186966493206
1093,1293.0,0.007514925923974714
1094,1294.0,0.0075147275102491065
1095,1295.0,0.007514591903745994
1096,1296.0,0.007514518926035767
1097,1297.0,0.007514508577118424
1098,1298.0,0.007514561035423576
1099,1299.0,0.007514676122521611
1100,1300.0,0.007514854195271752
1101,1301.0,0.007515095610533214
1102,1302.0,0.00751540018987639
1103,1303.0,0.007515768468590107
1104,1304.0,0.007516200803533583
1105,1305.0,0.007516697729995648
1106,1306.0,0.007517259426405909
1107,1307.0,0.007517886428053197
1108,1308.0,0.007518579270226338
1109,1309.0,0.007519338666643768
1110,1310.0,0.007520165331023928
1111,1311.0,0.007521059798655645
1112,1312.0,0.007522022961686964
1113,1313.0,0.007523055355406715
1114,1314.0,0.007524158228822161
1115,1315.0,0.007525332295651743
1116,1316.0,0.007526578626473115
1117,1317.0,0.007527898291863933
1118,1318.0,0.007529292362401854
1119,1319.0,0.007530762087094143
1120,1320.0,0.007532308714948066
1121,1321.0,0.007533933673400497
1122,1322.0,0.007535638211458702
1123,1323.0,0.007537423934989166
1124,1324.0,0.007539292271428763
1125,1325.0,0.007541245005073587
1126,1326.0,0.007543283741790122
1127,1327.0,0.00754541044430407
1128,1328.0,0.007547627075341135
1129,1329.0,0.007549935419197411
1130,1330.0,0.007552337795457819
1131,1331.0,0.007554836345277672
1132,1332.0,0.007557433388241891
1133,1333.0,0.007560131600794615
1134,1334.0,0.007562933302520768
1135,1335.0,0.00756584116986449
1136,1336.0,0.007568858236129138
1137,1337.0,0.007571987177758856
1138,1338.0,0.007575231563345828
1139,1339.0,0.007578594247763807
1140,1340.0,0.007582078799604976
1141,1341.0,0.007585688787461525
1142,1342.0,0.007589428136784859
1143,1343.0,0.007593300773026385
1144,1344.0,0.007597310800067115
1145,1345.0,0.007601462500217678
1146,1346.0,0.007605760691077524
1147,1347.0,0.0076102100118164975
1148,1348.0,0.007614815636893269
1149,1349.0,0.0076195827407665095
1150,1350.0,0.00762451721161333
1151,1351.0,0.007629624759181228
1152,1352.0,0.007634911628506531
1153,1353.0,0.007640384243055177
1154,1354.0,0.007646049740011541
1155,1355.0,0.007651915256559996
1156,1356.0,0.007657988286744134
1157,1357.0,0.007664277038325988
1158,1358.0,0.007670789897497196
1159,1359.0,0.007677535964167837
1160,1360.0,0.007684524695107206
1161,1361.0,0.007691766082373426
1162,1362.0,0.0076992704748838426
1163,1363.0,0.007707049470563061
1164,1364.0,0.0077151144889060835
1165,1365.0,0.007723478376844781
1166,1366.0,0.007732154159740638
1167,1367.0,0.007741156111962402
1168,1368.0,0.007750498864738043
1169,1369.0,0.00776019865516201
1170,1370.0,0.007770272255617584
1171,1371.0,0.007780737152206483
1172,1372.0,0.007791612793756126
1173,1373.0,0.00780291934281237
1174,1374.0,0.007814678389357947
1175,1375.0,0.00782691277238286
1176,1376.0,0.007839647115173192
1177,1377.0,0.007852907825311135
1178,1378.0,0.007866722737815746
1179,1379.0,0.0078811218288614
1180,1380.0,0.007896137394207386
1181,1381.0,0.007911803513909096
1182,1382.0,0.007928157301325275
1183,1383.0,0.007945238367829201
1184,1384.0,0.00796308935809751
1185,1385.0,0.007981755950110197
1186,1386.0,0.008001287568869059
1187,1387.0,0.008021737564827288
1188,1388.0,0.008043163213889495
1189,1389.0,0.00806562678798934
1190,1390.0,0.008089195376659945
1191,1391.0,0.008113941957611538
1192,1392.0,0.008139945396731456
1193,1393.0,0.008167291697091407
1194,1394.0,0.008196074177377088
1195,1395.0,0.008226394542465832
1196,1396.0,0.008258363775574663
1197,1397.0,0.008292103387267553
1198,1398.0,0.008327745772314646
1199,1399.0,0.008365436529277178
1200,1400.0,0.008405335531085136
1201,1401.0,0.008447618352474128
1202,1402.0,0.00849247876799992
1203,1403.0,0.008540130179475303
1204,1404.0,0.008590809362991897
1205,1405.0,0.00864477825321624
1206,1406.0,0.008702327690411588
1207,1407.0,0.008763781881178146
1208,1408.0,0.008829502145474866
1209,1409.0,0.008899892447937334
1210,1410.0,0.008975406178202935
1211,1411.0,0.009056552039087947
1212,1412.0,0.009143904217075291
1213,1413.0,0.009238110768506155
1214,1414.0,0.009339906644941491
1215,1415.0,0.009450126896953097
1216,1416.0,0.009569724160225338
1217,1417.0,0.009699788282812183
1218,1418.0,0.009841570234704843
1219,1419.0,0.009996512084006159
1220,1420.0,0.010166281433845197
1221,1421.0,0.010352815316061158
1222,1422.0,0.010558372471078917
1223,1423.0,0.010785599010005266
1224,1424.0,0.011037608529523514
1225,1425.0,0.011318083103052396
1226,1426.0,0.011631398181472609
1227,1427.0,0.011982781573908757
1228,1428.0,0.012378513824180664
1229,1429.0,0.012826183008285533
1230,1430.0,0.013335011795871913
1231,1431.0,0.013916278722547368
1232,1432.0,0.014583860972750187
1233,1433.0,0.015354940961002405
1234,1434.0,0.016250922924813106
1235,1435.0,0.01729862322860244
1236,1436.0,0.018531809140652757
1237,1437.0,0.019993158347078554
1238,1438.0,0.021736696657149564
1239,1439.0,0.02383067268272712
1240,1440.0,0.026360593818067404
1241,1441.0,0.029431574730339822
1242,1442.0,0.033167901099232136
1243,1443.0,0.03770521368634209
1244,1444.0,0.04316623512797945
1245,1445.0,0.04960465096814892
1246,1446.0,0.056898165731025505
1247,1447.0,0.06458776960339273
1248,1448.0,0.07172844031388524
1249,1449.0,0.07694022556742261
1250,1450.0,0.07887284930312342
1251,1451.0,0.07694762308059704
1252,1452.0,0.07174324033626311
1253,1453.0,0.06460998123488416
1254,1454.0,0.05692780306756963
1255,1455.0,0.04964173310171392
1256,1456.0,0.04321078561127379
1257,1457.0,0.037757261068103246
1258,1458.0,0.033227478567367456
1259,1459.0,0.029498720290356096
1260,1460.0,0.02643535082835971
1261,1461.0,0.023913089319289985
1262,1462.0,0.021826826270436188
1263,1463.0,0.020091059283571196
1264,1464.0,0.01863754509972196
1265,1465.0,0.01741226344093663
1266,1466.0,0.016372541795559383
1267,1467.0,0.015484618783484987
1268,1468.0,0.014721683571611173
1269,1469.0,0.014062337810605972
1270,1470.0,0.013489405330983667
1271,1471.0,0.01298901465805348
1272,1472.0,0.012549894036532994
1273,1473.0,0.0121628272202396
1274,1474.0,0.011820232556642033
1275,1475.0,0.011515836817534453
1276,1476.0,0.01124441933097663
1277,1477.0,0.011001611604842625
1278,1478.0,0.010783739595046136
1279,1479.0,0.01058769755580666
1280,1480.0,0.010410847583779432
1281,1481.0,0.010250939146301612
1282,1482.0,0.010106044489873687
1283,1483.0,0.009974504932847053
1284,1484.0,0.00985488804231778
1285,1485.0,0.00974595248349356
1286,1486.0,0.009646618935667376
1287,1487.0,0.009555945825790646
1288,1488.0,0.00947310880906813
1289,1489.0,0.009397385067152314
1290,1490.0,0.009328138498485834
1291,1491.0,0.009264808298806477
1292,1492.0,0.009206898433800226
1293,1493.0,0.009153970323487273
1294,1494.0,0.009105634456030388
1295,1495.0,0.009061544677987417
1296,1496.0,0.009021393555141437
1297,1497.0,0.008984907198042076
1298,1498.0,0.008951841158124517
1299,1499.0,0.008921978286554166
1300,1500.0,0.008895124630345657
1301,1501.0,0.008871107648066732
1302,1502.0,0.008849773533394127
1303,1503.0,0.008830986144535903
1304,1504.0,0.008814624506216912
1305,1505.0,0.00880058209596037
1306,1506.0,0.008788765059791748
1307,1507.0,0.008779092033809185
1308,1508.0,0.008771492003028153
1309,1509.0,0.00876590447981108
1310,1510.0,0.008762278790148906
1311,1511.0,0.008760572646224216
1312,1512.0,0.008760752860129669
1313,1513.0,0.008762794273290344
1314,1514.0,0.008766679399604524
1315,1515.0,0.008772398782302914
1316,1516.0,0.008779949744941373
1317,1517.0,0.00878933781883779
1318,1518.0,0.008800575137205602
1319,1519.0,0.00881368168416106
1320,1520.0,0.008828684581004782
1321,1521.0,0.008845618621510596
1322,1522.0,0.008864526807214357
1323,1523.0,0.008885459633695513
1324,1524.0,0.008908476518013981
1325,1525.0,0.008933645798710144
1326,1526.0,0.008961045092664075
1327,1527.0,0.00899076218724358
1328,1528.0,0.009022895397163411
1329,1529.0,0.009057555170351764
1330,1530.0,0.009094864266379878
1331,1531.0,0.009134959005469302
1332,1532.0,0.009177990695928773
1333,1533.0,0.009224126883161482
1334,1534.0,0.009273553490820376
1335,1535.0,0.009326476069815438
1336,1536.0,0.009383122117898603
1337,1537.0,0.009443743577678281
1338,1538.0,0.009508620226781953
1339,1539.0,0.009578061640581852
1340,1540.0,0.009652412366653651
1341,1541.0,0.009732055314939035
1342,1542.0,0.00981741711063398
1343,1543.0,0.009908973982365864
1344,1544.0,0.010007258720948235
1345,1545.0,0.010112867994994789
1346,1546.0,0.010226472164547884
1347,1547.0,0.010348826522143941
1348,1548.0,0.010480783782886083
1349,1549.0,0.010623309607820161
1350,1550.0,0.010777500982184513
1351,1551.0,0.010944607983822307
1352,1552.0,0.011126060726052557
1353,1553.0,0.011323500225992532
1354,1554.0,0.011538817837501441
1355,1555.0,0.011774201821308459
1356,1556.0,0.012032195156206167
1357,1557.0,0.012315766554035082
1358,1558.0,0.012628398603910665
1359,1559.0,0.012974197328003489
1360,1560.0,0.013358030286056862
1361,1561.0,0.013785699295248696
1362,1562.0,0.014264161504477506
1363,1563.0,0.014801809171989873
1364,1564.0,0.015408831163769022
1365,1565.0,0.01609767579994148
1366,1566.0,0.01688365216256063
1367,1567.0,0.01778570822713313
1368,1568.0,0.018827438989911755
1369,1569.0,0.020038386327599626
1370,1570.0,0.02145569393197698
1371,1571.0,0.023126162819000994
1372,1572.0,0.025108678149922684
1373,1573.0,0.027476780937246568
1374,1574.0,0.0303206871541902
1375,1575.0,0.03374702883332099
1376,1576.0,0.0378725308780597
1377,1577.0,0.042804140962952715
1378,1578.0,0.04859292760492422
1379,1579.0,0.05514609473860535
1380,1580.0,0.06209468900792638
1381,1581.0,0.06867082342249457
1382,1582.0,0.07375032756554883
1383,1583.0,0.07623669992142171
1384,1584.0,0.07567402714433755
1385,1585.0,0.0725663584279368
1386,1586.0,0.06806084610109561
1387,1587.0,0.06333751511491113
1388,1588.0,0.0592283459813243
1389,1589.0,0.056178170675221566
1390,1590.0,0.05437162101918313
1391,1591.0,0.053870189209482326
1392,1592.0,0.05470516430555714
1393,1593.0,0.05692756789734449
1394,1594.0,0.06062750497484494
1395,1595.0,0.06592849664687012
1396,1596.0,0.0729502165445651
1397,1597.0,0.08171956989029547
1398,1598.0,0.09200242509768232
1399,1599.0,0.10305210456870859
1400,1600.0,0.11337596307875572
1401,1601.0,0.12081294755919988
1402,1602.0,0.12325246893882498
1403,1603.0,0.11978338159189854
1404,1604.0,0.11129120704638257
1405,1605.0,0.09985957241051184
1406,1606.0,0.08761979867024347
1407,1607.0,0.07603041352459051
1408,1608.0,0.06579770435304749
1409,1609.0,0.057106919095635714
1410,1610.0,0.049871238186751786
1411,1611.0,0.043897407371372855
1412,1612.0,0.03897261757986799
1413,1613.0,0.034902045625659225
1414,1614.0,0.03152090337831201
1415,1615.0,0.028695058520146123
1416,1616.0,0.026317352472816934
1417,1617.0,0.02430285827358751
1418,1618.0,0.022584395568667752
1419,1619.0,0.02110872845666856
1420,1620.0,0.01983350774038626
1421,1621.0,0.018724869977979067
1422,1622.0,0.017755578424867177
1423,1623.0,0.016903590422399223
1424,1624.0,0.01615095309699995
1425,1625.0,0.015482953143081622
1426,1626.0,0.0148874566334894
1427,1627.0,0.014354397640240917
1428,1628.0,0.013875376411045987
1429,1629.0,0.013443345154764546
1430,1630.0,0.013052358418383148
1431,1631.0,0.012697375387007794
1432,1632.0,0.012374101259941216
1433,1633.0,0.012078859673512184
1434,1634.0,0.011808490460909343
1435,1635.0,0.011560264898116769
1436,1636.0,0.011331817365373578
1437,1637.0,0.011121090033995036
1438,1638.0,0.010926285404096462
1439,1639.0,0.010745828120656827
1440,1640.0,0.010578333213048286
1441,1641.0,0.010422579152165169
1442,1642.0,0.01027748483300437
1443,1643.0,0.010142091196415586
1444,1644.0,0.010015544992006862
1445,1645.0,0.009897084860635062
1446,1646.0,0.009786029736481267
1447,1647.0,0.009681769211851857
1448,1648.0,0.009583754794127665
1449,1649.0,0.009491492054861156
1450,1650.0,0.009404534920028934
1451,1651.0,0.009322480317143455
1452,1652.0,0.009244962108646318
1453,1653.0,0.009171648593893722
1454,1654.0,0.009102237513127415
1455,1655.0,0.009036453549460154
1456,1656.0,0.008974045474001964
1457,1657.0,0.008914783647845599
1458,1658.0,0.008858457167192796
1459,1659.0,0.00880487314963584
1460,1660.0,0.008753854414572635
1461,1661.0,0.008705237520481014
1462,1662.0,0.00865887205120028
1463,1663.0,0.008614619545353575
1464,1664.0,0.008572351890481377
1465,1665.0,0.008531950430893465
1466,1666.0,0.008493305610809689
1467,1667.0,0.008456315546923108
1468,1668.0,0.008420885849970373
1469,1669.0,0.008386928911013284
1470,1670.0,0.008354362830861148
1471,1671.0,0.008323111776929987
1472,1672.0,0.008293104912664884
1473,1673.0,0.00826427604068077
1474,1674.0,0.008236563602762413
1475,1675.0,0.008209909609286775
1476,1676.0,0.008184259996082218
1477,1677.0,0.0081595644459989
1478,1678.0,0.008135775318331128
1479,1679.0,0.008112848362535778
1480,1680.0,0.008090741469225041
1481,1681.0,0.008069415383884858
1482,1682.0,0.00804883352844531
1483,1683.0,0.008028960752273356
1484,1684.0,0.0080097647596097
1485,1685.0,0.007991214146843095
1486,1686.0,0.007973280365236042
1487,1687.0,0.007955935579769483
1488,1688.0,0.007939153918150062
1489,1689.0,0.007922910935521296
1490,1690.0,0.007907183257604356
1491,1691.0,0.007891949294416514
1492,1692.0,0.007877187812834254
1493,1693.0,0.007862879542459766
1494,1694.0,0.007849005569754456
1495,1695.0,0.007835548230187001
1496,1696.0,0.007822490572944507
1497,1697.0,0.0078098168962213565
1498,1698.0,0.007797512033500749
1499,1699.0,0.007785561353554719
1500,1700.0,0.007773951117303346
1501,1701.0,0.007762668477814756
1502,1702.0,0.007751700945016294
1503,1703.0,0.007741036564124132
1504,1704.0,0.0077306640940728805
1505,1705.0,0.00772057300751559
1506,1706.0,0.007710752598675695
1507,1707.0,0.007701193410783903
1508,1708.0,0.007691885987070915
1509,1709.0,0.007682821406056266
1510,1710.0,0.007673991103118704
1511,1711.0,0.0076653868704962
1512,1712.0,0.007657000857285942
1513,1713.0,0.007648825926303555
1514,1714.0,0.007640854583505448
1515,1715.0,0.007633080048566463
1516,1716.0,0.007625495719591054
1517,1717.0,0.0076180955299725035
1518,1718.0,0.0076108732346744845
1519,1719.0,0.007603823123949496
1520,1720.0,0.00759693948805004
1521,1721.0,0.007590217330947053
1522,1722.0,0.007583651478181865
1523,1723.0,0.0075772367552958035
1524,1724.0,0.007570968701548636
1525,1725.0,0.007564842677770518
1526,1726.0,0.007558854223221214
1527,1727.0,0.0075529994124493224
1528,1728.0,0.007547274141573823
1529,1729.0,0.007541674306713705
1530,1730.0,0.007536196517706387
1531,1731.0,0.007530836849100464
1532,1732.0,0.007525592089162969
1533,1733.0,0.007520458847731324
1534,1734.0,0.007515433913072559
1535,1735.0,0.007510514073453707
1536,1736.0,0.007505696474001017
1537,1737.0,0.00750097808141113
1538,1738.0,0.007496356397669517
1539,1739.0,0.0074918285679024255
1540,1740.0,0.007487391915665717
1541,1741.0,0.007483044121374469
1542,1742.0,0.007478782687014151
1543,1743.0,0.007474605292999841
1544,1744.0,0.007470509798176227
1545,1745.0,0.007466493704528778
1546,1746.0,0.0074625552277613975
1547,1747.0,0.007458692405148388
1548,1748.0,0.007454902917104825
1549,1749.0,0.007451184979334614
1550,1750.0,0.007447536985971271
1551,1751.0,0.0074439569742890946
1552,1752.0,0.00744044315999199
1553,1753.0,0.007436993937213473
1554,1754.0,0.007433607878516669
1555,1755.0,0.007430283021175876
1556,1756.0,0.0074270182946134375
1557,1757.0,0.007423811736103648
1558,1758.0,0.007420662453498463
1559,1759.0,0.00741756866250179
1560,1760.0,0.007414529292535972
1561,1761.0,0.007411542737734522
1562,1762.0,0.0074086081059493965
1563,1763.0,0.0074057239697437206
1564,1764.0,0.007402889080110226
1565,1765.0,0.007400102366471259
1566,1766.0,0.0073973627582491625
1567,1767.0,0.0073946691848662816
1568,1768.0,0.007392020575744957
1569,1769.0,0.007389415860307536
1570,1770.0,0.007386853967976363
1571,1771.0,0.007384334185032996
1572,1772.0,0.007381855262470173
1573,1773.0,0.0073794164865694555
1574,1774.0,0.0073770169651827975
1575,1775.0,0.007374655806162152
1576,1776.0,0.007372332117359472
1577,1777.0,0.007370045185056318
1578,1778.0,0.007367794295534256
1579,1779.0,0.0073655783782156274
1580,1780.0,0.007363396897811607
1581,1781.0,0.007361249140603754
1582,1782.0,0.007359134214444022
1583,1783.0,0.007357051762473195
1584,1784.0,0.007355000714113614
1585,1785.0,0.007352980712506063
1586,1786.0,0.0073509908655024925
1587,1787.0,0.007349030816243685
1588,1788.0,0.007347099851011204
1589,1789.0,0.007345197434516219
1590,1790.0,0.007343322853040295
1591,1791.0,0.007341475571294602
1592,1792.0,0.007339655053990314
1593,1793.0,0.0073378609442682095
1594,1794.0,0.007336092528409854
1595,1795.0,0.007334349271126418
1596,1796.0,0.007332630815558683
1597,1797.0,0.007330936804847429
1598,1798.0,0.007329266346844612
1599,1799.0,0.007327619441550229
1600,1800.0,0.007325995196816234
1601,1801.0,0.0073243936126426296
1602,1802.0,0.007322813975310975
1603,1803.0,0.007321255927962053
1604,1804.0,0.0073197192921662544
1605,1805.0,0.007318203354205142
1606,1806.0,0.007316707757219496
1607,1807.0,0.007315232322779707
1608,1808.0,0.007313776515596948
1609,1809.0,0.0073123399788119995
1610,1810.0,0.007310922533995253
1611,1811.0,0.007309523645857879
1612,1812.0,0.007308143135970269
1613,1813.0,0.007306780469043596
1614,1814.0,0.007305435466648248
1615,1815.0,0.007304107771925009
1616,1816.0,0.007302797206444268
1617,1817.0,0.007301503413346807
1618,1818.0,0.007300225857343797
1619,1819.0,0.007298964538435239
1620,1820.0,0.007297719099761914
1621,1821.0,0.007296489184464604
1622,1822.0,0.007295274792543307
1623,1823.0,0.007294075210279587
1624,1824.0,0.007292890616103053
1625,1825.0,0.007291720474724878
1626,1826.0,0.007290564607715451
1627,1827.0,0.007289422836645163
1628,1828.0,0.007288294983084405
1629,1829.0,0.0072871806901739595
1630,1830.0,0.007286079779484216
1631,1831.0,0.007284991894155955
1632,1832.0,0.007283917034189177
1633,1833.0,0.0072828548427246636
1634,1834.0,0.007281805319762415
1635,1835.0,0.007280767930013602
1636,1836.0,0.007279742851907836
1637,1837.0,0.007278729550156286
1638,1838.0,0.007277728024758954
1639,1839.0,0.007276738097286232
1640,1840.0,0.007275759410878898
1641,1841.0,0.007274791965536954
1642,1842.0,0.007273835582830791
1643,1843.0,0.007272889905901188
1644,1844.0,0.007271954934748148
1645,1845.0,0.00727103049094206
1646,1846.0,0.0072701163960533135
1647,1847.0,0.007269212471652302
1648,1848.0,0.007268318539309414
1649,1849.0,0.007267434599024651
1650,1850.0,0.007266560293938792
1651,1851.0,0.007265695445622228
1652,1852.0,0.007264840054074963
1653,1853.0,0.007263994119296992
1654,1854.0,0.007263157105999489
1655,1855.0,0.007262329192612065
1656,1856.0,0.007261510200705108
1657,1857.0,0.007260699951849008
1658,1858.0,0.00725989826761416
1659,1859.0,0.007259105148000559
1660,1860.0,0.007258320236148989
1661,1861.0,0.00725754371048906
1662,1862.0,0.0072567752141615505
1663,1863.0,0.007256014925596072
1664,1864.0,0.007255262309503797
1665,1865.0,0.007254517544314332
1666,1866.0,0.007253780451598072
1667,1867.0,0.0072530508529254035
1668,1868.0,0.007252328748296327
1669,1869.0,0.007251613959281236
1670,1870.0,0.0072509064858801275
1671,1871.0,0.007250206149663395
1672,1872.0,0.007249512772201426
1673,1873.0,0.007248826353494222
1674,1874.0,0.0072481468935417835
1675,1875.0,0.007247474035484891
1676,1876.0,0.007246807957753154
1677,1877.0,0.007246148481916964
1678,1878.0,0.0072454952511171004
1679,1879.0,0.007244848622212785
1680,1880.0,0.007244208238344795
1681,1881.0,0.007243574099513133
1682,1882.0,0.007242946027288191
1683,1883.0,0.007242324021669966
1684,1884.0,0.007241708082658458
1685,1885.0,0.007241098031824061
1686,1886.0,0.007240493690737162
1687,1887.0,0.007239895237827372
1688,1888.0,0.007239302316235473
1689,1889.0,0.007238714925961464
1690,1890.0,0.007238133245434953
1691,1891.0,0.007237556917796725
1692,1892.0,0.0072369859430467766
1693,1893.0,0.0072364203211851075
1694,1894.0,0.007235859873782112
1695,1895.0,0.007235304600837786
1696,1896.0,0.007234754502352133
1697,1897.0,0.007234209399895542
1698,1898.0,0.007233669293468013
1699,1899.0,0.0072331340046399364
1700,1900.0,0.007232603711840922
1701,1901.0,0.007232078058211751
1702,1902.0,0.007231557222182032
1703,1903.0,0.007231041025322156
1704,1904.0,0.007230529467632124
1705,1905.0,0.0072300225491119365
1706,1906.0,0.007229520091331982
1707,1907.0,0.007229021915862652
1708,1908.0,0.0072285283795631644
1709,1909.0,0.0072280389471446925
1710,1910.0,0.007227553975466456
1711,1911.0,0.007227073107669233
1712,1912.0,0.007226596522182637
1713,1913.0,0.007226123862147445
1714,1914.0,0.007225655484422878
1715,1915.0,0.007225191032149717
1716,1916.0,0.00722473068375757
1717,1917.0,0.00722427426081683
1718,1918.0,0.007223821584897887
1719,1919.0,0.007223372834430349
1720,1920.0,0.007222928009414217
1721,1921.0,0.007222486752990274
1722,1922.0,0.007222049243588125
1723,1923.0,0.007221615481207774
1724,1924.0,0.00722118528741961
1725,1925.0,0.007220758662223632
1726,1926.0,0.007220335427190233
1727,1927.0,0.00721991593917863
1728,1928.0,0.007219499841329606
1729,1929.0,0.007219087133643159
1730,1930.0,0.00721867781611929
1731,1931.0,0.007218271888757998
1732,1932.0,0.007217869173129675
1733,1933.0,0.0072174696692343205
1734,1934.0,0.007217073555501543
1735,1935.0,0.007216680475072125
1736,1936.0,0.007216290784805286
1737,1937.0,0.0072159039494121965
1738,1938.0,0.007215520325752075
1739,1939.0,0.007215139913824921
1740,1940.0,0.007214762356771517
1741,1941.0,0.007214387833021473
1742,1942.0,0.0072140161641451785
1743,1943.0,0.007213647528572243
1744,1944.0,0.007213281747873058
1745,1945.0,0.007212918822047622
1746,1946.0,0.007212558572666327
1747,1947.0,0.00721220135658839
1748,1948.0,0.0072118468169545934
1749,1949.0,0.007211494953764937
1750,1950.0,0.007211145945449031
1751,1951.0,0.007210799435147656
1752,1952.0,0.007210455779720032
1753,1953.0,0.007210114622306938
1754,1954.0,0.007209775962908374
1755,1955.0,0.007209439979953952
1756,1956.0,0.00720910649501406
1757,1957.0,0.007208775686518308
1758,1958.0,0.007208447197607479
1759,1959.0,0.007208121206711181
1760,1960.0,0.007207797713829413
1761,1961.0,0.007207476540532567
1762,1962.0,0.0072071576868206425
1763,1963.0,0.007206841331123249
1764,1964.0,0.007206527295010778
1765,1965.0,0.007206215578483228
1766,1966.0,0.00720590600311099
1767,1967.0,0.007205598925753283
1768,1968.0,0.007205293989550889
1769,1969.0,0.007204991194503807
1770,1970.0,0.007204690540612037
1771,1971.0,0.0072043922063051895
1772,1972.0,0.007204096013153653
1773,1973.0,0.007203801961157429
1774,1974.0,0.007203510050316518
1775,1975.0,0.0072032201022013105
1776,1976.0,0.007202932295241415
1777,1977.0,0.007202646451007221
1778,1978.0,0.00720236274792834
1779,1979.0,0.007202081007575163
1780,1980.0,0.007201801229947688
1781,1981.0,0.007201523415045917
1782,1982.0,0.007201247562869849
1783,1983.0,0.007200973673419482
1784,1984.0,0.00720070174669482
1785,1985.0,0.00720043160426625
1786,1986.0,0.007200163424563384
1787,1987.0,0.0071998970291566105
1788,1988.0,0.007199632418045931
1789,1989.0,0.007199369769660955
1790,1990.0,0.007199108727142463
1791,1991.0,0.007198849647349673
1792,1992.0,0.007198592351852978
1793,1993.0,0.0071983366622227676
1794,1994.0,0.00719808275688865
1795,1995.0,0.007197830635850625
1796,1996.0,0.007197580299108696
1797,1997.0,0.007197331389803639
1798,1998.0,0.007197084264794678
1799,1999.0,0.007196838924081809
1800,2000.0,0.007196595010805815
