pixel_index,raman_shift_cm-1,intensity
0,200.0,77.69518210562526
1,201.0,77.59203335367708
2,202.0,77.48885017427892
3,203.0,77.3856318317033
4,204.0,77.28237859022269
5,205.0,77.17909071410965
6,206.0,77.07576946763666
7,207.0,76.97241311507625
8,208.0,76.86902392070091
9,209.0,76.76560214878316
10,210.0,76.66214606359553
11,211.0,76.55865792941049
12,212.0,76.45513801050059
13,213.0,76.35158457113832
14,214.0,76.2480008755962
15,215.0,76.14438518814673
16,216.0,76.04073777306243
17,217.0,75.9370598946158
18,218.0,75.83335181707938
19,219.0,75.72961280472563
20,220.0,75.62584412182711
21,221.0,75.5220460326563
22,222.0,75.41821880148575
23,223.0,75.31436269258793
24,224.0,75.21047697023536
25,225.0,75.10656289870055
26,226.0,75.00262174225603
27,227.0,74.89865176517426
28,228.0,74.79465423172783
29,229.0,74.69063040618919
30,230.0,74.58657855283087
31,231.0,74.48250093592537
32,232.0,74.37839681974522
33,233.0,74.27426746856293
34,234.0,74.17011114665098
35,235.0,74.06593011828191
36,236.0,73.96172464772823
37,237.0,73.85749399926245
38,238.0,73.75323843715705
39,239.0,73.64895922568459
40,240.0,73.54465662911755
41,241.0,73.44032991172844
42,242.0,73.33598033778979
43,243.0,73.2316081715741
44,244.0,73.12721367735386
45,245.0,73.02279611940162
46,246.0,72.91835776198988
47,247.0,72.8138968693911
48,248.0,72.70941570587787
49,249.0,72.60491253572266
50,250.0,72.50038962319798
51,251.0,72.39584623257635
52,252.0,72.29128362813027
53,253.0,72.18670007413226
54,254.0,72.0820978348548
55,255.0,71.97747717457048
56,256.0,71.87283735755173
57,257.0,71.76817864807109
58,258.0,71.66350231040107
59,259.0,71.55880860881419
60,260.0,71.45409780758294
61,261.0,71.34937017097985
62,262.0,71.24462496327743
63,263.0,71.13986444874818
64,264.0,71.03508689166463
65,265.0,70.93029455629926
66,266.0,70.82548570692461
67,267.0,70.72066260781317
68,268.0,70.61582552323745
69,269.0,70.51097371746997
70,270.0,70.40610745478327
71,271.0,70.3012279994498
72,272.0,70.1963346157421
73,273.0,70.09142856793271
74,274.0,69.9865101202941
75,275.0,69.88157953709879
76,276.0,69.7766360826193
77,277.0,69.67168202112813
78,278.0,69.5667166168978
79,279.0,69.46174013420082
80,280.0,69.3567528373097
81,281.0,69.25175599049696
82,282.0,69.1467488580351
83,283.0,69.0417317041966
84,284.0,68.93670679325403
85,285.0,68.83167238947988
86,286.0,68.72662875714663
87,287.0,68.62157816052681
88,288.0,68.51651986389294
89,289.0,68.41145413151753
90,290.0,68.3063802276731
91,291.0,68.20130141663213
92,292.0,68.09621496266718
93,293.0,67.99112413005068
94,294.0,67.88602618305522
95,295.0,67.78092438595327
96,296.0,67.67581700301736
97,297.0,67.57070529851998
98,298.0,67.46558953673366
99,299.0,67.36047098193092
100,300.0,67.25534789838423
101,301.0,67.15022255036612
102,302.0,67.04509520214913
103,303.0,66.93996511800573
104,304.0,66.83483356220846
105,305.0,66.72969979902982
106,306.0,66.6245660927423
107,307.0,66.51943170761845
108,308.0,66.41429690793076
109,309.0,66.30916195795172
110,310.0,66.20402812195388
111,311.0,66.09889466420975
112,312.0,65.99376384899179
113,313.0,65.88863394057257
114,314.0,65.78350620322456
115,315.0,65.6783809012203
116,316.0,65.57325929883228
117,317.0,65.46814066033302
118,318.0,65.36302624999502
119,319.0,65.25791633209082
120,320.0,65.1528101708929
121,321.0,65.04771003067377
122,322.0,64.94261517570598
123,323.0,64.83752587026197
124,324.0,64.73244337861432
125,325.0,64.6273669650355
126,326.0,64.52229889379805
127,327.0,64.41723742917449
128,328.0,64.31218483543728
129,329.0,64.20714137685894
130,330.0,64.10210631771203
131,331.0,63.99707992226901
132,332.0,63.89206445480241
133,333.0,63.78705917958476
134,334.0,63.68206436088854
135,335.0,63.577081262986276
136,336.0,63.47211015015046
137,337.0,63.36715128665364
138,338.0,63.262204936768285
139,339.0,63.157271364766935
140,340.0,63.05235183492211
141,341.0,62.94744661150629
142,342.0,62.84255595879197
143,343.0,62.73768014105171
144,344.0,62.63281942255799
145,345.0,62.52797606758336
146,346.0,62.423148340400296
147,347.0,62.3183385052813
148,348.0,62.213545826498894
149,349.0,62.108771568325594
150,350.0,62.00401599503391
151,351.0,61.899279370896345
152,352.0,61.794562960185424
153,353.0,61.689867027173655
154,354.0,61.585190836133535
155,355.0,61.480536651337594
156,356.0,61.37590473705832
157,357.0,61.27129435756825
158,358.0,61.16670777713985
159,359.0,61.06214426004568
160,360.0,60.95760607055825
161,361.0,60.85309147295004
162,362.0,60.74860273149357
163,363.0,60.64413911046136
164,364.0,60.539702874125894
165,365.0,60.435293286759745
166,366.0,60.330912612635345
167,367.0,60.22655911602528
168,368.0,60.12223506120199
169,369.0,60.01793971243806
170,370.0,59.91367533400594
171,371.0,59.809442190178125
172,372.0,59.70523954522719
173,373.0,59.60107066342563
174,374.0,59.496932809045944
175,375.0,59.392830246360646
176,376.0,59.288760239642215
177,377.0,59.18472605316322
178,378.0,59.080727951196096
179,379.0,58.97676519801344
180,380.0,58.872840057887714
181,381.0,58.76895279509144
182,382.0,58.665103673897136
183,383.0,58.56129395857728
184,384.0,58.45752491340444
185,385.0,58.35379580265105
186,386.0,58.250108890589686
187,387.0,58.14646344149283
188,388.0,58.04286171963301
189,389.0,57.93930398928272
190,390.0,57.83579151471447
191,391.0,57.73232356020078
192,392.0,57.62890339001413
193,393.0,57.52552926842711
194,394.0,57.42220445971215
195,395.0,57.3189282281418
196,396.0,57.215701837988576
197,397.0,57.112526553524944
198,398.0,57.00940263902345
199,399.0,56.9063323587566
200,400.0,56.803314976996916
201,401.0,56.70035375801692
202,402.0,56.59744696608905
203,403.0,56.4945968654859
204,404.0,56.391804720479925
205,405.0,56.2890717953437
206,406.0,56.186398354349635
207,407.0,56.08378666177033
208,408.0,55.98123598187827
209,409.0,55.878748578945974
210,410.0,55.77632571724594
211,411.0,55.67396866105068
212,412.0,55.57167767463267
213,413.0,55.46945402226446
214,414.0,55.36729996821856
215,415.0,55.26521677676749
216,416.0,55.16320471218377
217,417.0,55.06126503873985
218,418.0,54.95940002070827
219,419.0,54.85760992236159
220,420.0,54.75589700797222
221,421.0,54.654262541812784
222,422.0,54.55270778815574
223,423.0,54.451234011273584
224,424.0,54.34984347543886
225,425.0,54.24853644492404
226,426.0,54.147315184001656
227,427.0,54.046181956944224
228,428.0,53.945137028024234
229,429.0,53.844182661514225
230,430.0,53.743321121686705
231,431.0,53.64255267281416
232,432.0,53.54188057916912
233,433.0,53.44130610502411
234,434.0,53.34083051465157
235,435.0,53.24045707232409
236,436.0,53.14018604231417
237,437.0,53.0400206888943
238,438.0,52.939962276336985
239,439.0,52.84001306891474
240,440.0,52.7401753309001
241,441.0,52.6404513265655
242,442.0,52.54084332018358
243,443.0,52.44135257602677
244,444.0,52.34198335836756
245,445.0,52.24273593147852
246,446.0,52.143614559632084
247,447.0,52.04462050710082
248,448.0,51.94575703815727
249,449.0,51.84702641707388
250,450.0,51.748431908123194
251,451.0,51.649975775577715
252,452.0,51.55166128370995
253,453.0,51.4534906967924
254,454.0,51.355467279097596
255,455.0,51.25759529489801
256,456.0,51.15987600846621
257,457.0,51.06231468407469
258,458.0,50.964913585995944
259,459.0,50.86767497850248
260,460.0,50.77060512586682
261,461.0,50.67370629236147
262,462.0,50.57698174225895
263,463.0,50.480435739831776
264,464.0,50.384073549352436
265,465.0,50.287897435093456
266,466.0,50.191912661327365
267,467.0,50.09612349232664
268,468.0,50.00053419236376
269,469.0,49.90515002571131
270,470.0,49.809974256641794
271,471.0,49.715014149427674
272,472.0,49.620272968341496
273,473.0,49.52575697765576
274,474.0,49.431471441642984
275,475.0,49.337421624575626
276,476.0,49.2436137907263
277,477.0,49.15005420436741
278,478.0,49.05674812977155
279,479.0,48.963701831211225
280,480.0,48.87092357295889
281,481.0,48.77841861928705
282,482.0,48.686195234468286
283,483.0,48.59425968277506
284,484.0,48.5026202284799
285,485.0,48.41128513585532
286,486.0,48.320261669173846
287,487.0,48.22955909270793
288,488.0,48.13918567073014
289,489.0,48.04915066751293
290,490.0,47.959463347328864
291,491.0,47.87013297445044
292,492.0,47.78117081315018
293,493.0,47.69258712770056
294,494.0,47.60439318237414
295,495.0,47.51659924144336
296,496.0,47.42921856918076
297,497.0,47.342261429858894
298,498.0,47.25574308775023
299,499.0,47.16967480712732
300,500.0,47.084071852262625
301,501.0,46.99894748742865
302,502.0,46.91431797689796
303,503.0,46.83019758494302
304,504.0,46.746603575836374
305,505.0,46.66355321385048
306,506.0,46.58106276325793
307,507.0,46.49915248833119
308,508.0,46.41783965334275
309,509.0,46.33714652256512
310,510.0,46.257093360270844
311,511.0,46.17770243073244
312,512.0,46.09899599822241
313,513.0,46.020998327013245
314,514.0,45.94373468137745
315,515.0,45.86723232558758
316,516.0,45.791517523916085
317,517.0,45.71662054063549
318,518.0,45.64257064001838
319,519.0,45.569401086337194
320,520.0,45.49714414386443
321,521.0,45.42583407687265
322,522.0,45.35551014963434
323,523.0,45.286208626422024
324,524.0,45.21797277150816
325,525.0,45.15084284916537
326,526.0,45.08486612366602
327,527.0,45.02008885928275
328,528.0,44.956561320287975
329,529.0,44.8943367709543
330,530.0,44.83347047555414
331,531.0,44.774021698360016
332,532.0,44.716052703644536
333,533.0,44.65962875568013
334,534.0,44.60481911873936
335,535.0,44.55169705709466
336,536.0,44.50034083501862
337,537.0,44.45083371678368
338,538.0,44.40326296666234
339,539.0,44.35771984892722
340,540.0,44.31430462785076
341,541.0,44.27312156770543
342,542.0,44.23428293276385
343,543.0,44.19790498729844
344,544.0,44.164116995581736
345,545.0,44.13305122188626
346,546.0,44.10485393048452
347,547.0,44.07967638564904
348,548.0,44.05768385165226
349,549.0,44.03905159276681
350,550.0,44.02396687326507
351,551.0,44.01263195741967
352,552.0,44.005263109503005
353,553.0,44.002092593787665
354,554.0,44.00336867454621
355,555.0,44.009360616051026
356,556.0,44.02035768257471
357,557.0,44.03667213838972
358,558.0,44.058639247768554
359,559.0,44.08662527498379
360,560.0,44.121023484307926
361,561.0,44.162260140013444
362,562.0,44.21079850637287
363,563.0,44.2671438476587
364,564.0,44.33184242814349
365,565.0,44.405490512099675
366,566.0,44.48874136379982
367,567.0,44.582305247516416
368,568.0,44.68696142752202
369,569.0,44.803563168089056
370,570.0,44.933049733490094
371,571.0,45.076452387997676
372,572.0,45.23490639588417
373,573.0,45.409669021422275
374,574.0,45.60212852888438
375,575.0,45.81382318254305
376,576.0,46.04646424667075
377,577.0,46.30195398554008
378,578.0,46.58241666342337
379,579.0,46.8902275445933
380,580.0,47.22804889332241
381,581.0,47.59887397388303
382,582.0,48.00607505054779
383,583.0,48.45346538758923
384,584.0,48.94536324927978
385,585.0,49.48668089989198
386,586.0,50.08301960369832
387,587.0,50.740788624971316
388,588.0,51.46734622798354
389,589.0,52.271172677007456
390,590.0,53.16207823631561
391,591.0,54.15145517018041
392,592.0,55.252593742874524
393,593.0,56.481057218670315
394,594.0,57.855164861840336
395,595.0,59.39657693665717
396,596.0,61.1310387073932
397,597.0,63.0893074383211
398,598.0,65.30833539371326
399,599.0,67.83277083784225
400,600.0,70.71688003498053
401,601.0,74.02702624940059
402,602.0,77.84486574537507
403,603.0,82.27150378717639
404,604.0,87.43289063907704
405,605.0,93.4868255653495
406,606.0,100.63200783026645
407,607.0,109.11957469810011
408,608.0,119.26744343312333
409,609.0,131.4772232996084
410,610.0,146.25209156182802
411,611.0,164.2106034840544
412,612.0,186.0841303305603
413,613.0,212.67086236561818
414,614.0,244.6929738535004
415,615.0,282.4663740584797
416,616.0,325.27138524482854
417,617.0,370.4068726768193
418,618.0,412.3116766187245
419,619.0,442.86521533481687
420,620.0,454.12154308936863
421,621.0,442.6752551466526
422,622.0,411.931757770941
423,623.0,369.83699622650647
424,624.0,324.5115537776215
425,625.0,281.5165906885587
426,626.0,243.55324222359036
427,627.0,211.34118864698934
428,628.0,184.56451922302773
429,629.0,162.50106221597832
430,630.0,144.35262889011352
431,631.0,129.38784650970592
432,632.0,116.98816133902801
433,633.0,106.65039864235223
434,634.0,97.97294668395111
435,635.0,90.63789272809711
436,636.0,84.39409803906292
437,637.0,79.04286588112089
438,638.0,74.42639551854361
439,639.0,70.41873921560361
440,640.0,66.91879223657335
441,641.0,63.844898845725254
442,642.0,61.130697307331985
443,643.0,58.72192088566595
444,644.0,56.57392384499977
445,645.0,54.64975444960592
446,646.0,52.91865496375681
447,647.0,51.354881651725066
448,648.0,49.93677577778314
449,649.0,48.64601960620351
450,650.0,47.46704740125878
451,651.0,46.38657342722138
452,652.0,45.39320394836392
453,653.0,44.477131228958854
454,654.0,43.629875533278636
455,655.0,42.84407712559576
456,656.0,42.11333027018287
457,657.0,41.43203423131243
458,658.0,40.79527727325697
459,659.0,40.198741660288846
460,660.0,39.63861465668083
461,661.0,39.111526526705205
462,662.0,38.6144835346345
463,663.0,38.144824944741316
464,664.0,37.70017502129829
465,665.0,37.2784130285776
466,666.0,36.877635230852064
467,667.0,36.49613189239395
468,668.0,36.132366277475995
469,669.0,35.784949650370436
470,670.0,35.452628275350094
471,671.0,35.13426541668733
472,672.0,34.82883033865454
473,673.0,34.53538730552452
474,674.0,34.253081581569546
475,675.0,33.98113643106211
476,676.0,33.71884011827481
477,677.0,33.46554390748028
478,678.0,33.22065006295085
479,679.0,32.983613848959095
480,680.0,32.75393052977748
481,681.0,32.531138369678615
482,682.0,32.31481263293492
483,683.0,32.104558583818886
484,684.0,31.900013486603115
485,685.0,31.700842605560126
486,686.0,31.50673320496233
487,687.0,31.31739854908227
488,688.0,31.132570902192555
489,689.0,30.952000528565605
490,690.0,30.775457692473793
491,691.0,30.602726658189965
492,692.0,30.433606689986334
493,693.0,30.267912052135472
494,694.0,30.105467008910097
495,695.0,29.946109824582464
496,696.0,29.789685763425183
497,697.0,29.636055089710737
498,698.0,29.485081067711747
499,699.0,29.336640961700596
500,700.0,29.19061603594986
501,701.0,29.046895554732004
502,702.0,28.905376782319593
503,703.0,28.76596098298515
504,704.0,28.628557421001005
505,705.0,28.493079360639882
506,706.0,28.35944506617423
507,707.0,28.22757880187652
508,708.0,28.097406832019374
509,709.0,27.96886142087513
510,710.0,27.841878832716475
511,711.0,27.7163963318157
512,712.0,27.59235818244551
513,713.0,27.46970764887837
514,714.0,27.348395995386767
515,715.0,27.22837148624322
516,716.0,27.109589385720284
517,717.0,26.992004958090376
518,718.0,26.875577467626016
519,719.0,26.760266178599835
520,720.0,26.646035355284255
521,721.0,26.532847261951787
522,722.0,26.42066916287493
523,723.0,26.309469322326237
524,724.0,26.199216004578233
525,725.0,26.08988147390329
526,726.0,25.98143699457404
527,727.0,25.87385583086308
528,728.0,25.76711524704274
529,729.0,25.66118850738559
530,730.0,25.55605487616424
531,731.0,25.45169161765108
532,732.0,25.348078996118545
533,733.0,25.24519627583942
534,734.0,25.14302572108602
535,735.0,25.041548596130838
536,736.0,24.940748165246475
537,737.0,24.840608692705416
538,738.0,24.741114442780145
539,739.0,24.642249679743145
540,740.0,24.54400066786701
541,741.0,24.446354671424217
542,742.0,24.34929795468736
543,743.0,24.252818781928738
544,744.0,24.156904417421003
545,745.0,24.061545125436737
546,746.0,23.96673017024824
547,747.0,23.872447816128215
548,748.0,23.778689327349127
549,749.0,23.68544496818339
550,750.0,23.592707002903637
551,751.0,23.50046569578228
552,752.0,23.4087133110919
553,753.0,23.317443113104957
554,754.0,23.226646366094087
555,755.0,23.136317334331693
556,756.0,23.04644828209024
557,757.0,22.95703347364224
558,758.0,22.868067173260386
559,759.0,22.77954264521702
560,760.0,22.69145515378466
561,761.0,22.603799963235872
562,762.0,22.516572337843115
563,763.0,22.42976654187902
564,764.0,22.343378839616037
565,765.0,22.25740449532651
566,766.0,22.171840773283122
567,767.0,22.08668293775844
568,768.0,22.001928253024857
569,769.0,21.917572983354887
570,770.0,21.83361339302104
571,771.0,21.750048746295874
572,772.0,21.666874307451906
573,773.0,21.58408934076158
574,774.0,21.501690110497464
575,775.0,21.41967488093212
576,776.0,21.338041916337886
577,777.0,21.256789480987436
578,778.0,21.175915839153276
579,779.0,21.095419255107743
580,780.0,21.015299993123506
581,781.0,20.935555317473074
582,782.0,20.856184492428838
583,783.0,20.777186782263527
584,784.0,20.698562451249472
585,785.0,20.62030976365918
586,786.0,20.542428983765205
587,787.0,20.464919375840054
588,788.0,20.38778220415628
589,789.0,20.31101573298639
590,790.0,20.234621226602883
591,791.0,20.1585989492782
592,792.0,20.082949165285015
593,793.0,20.007673138895598
594,794.0,19.932770134382565
595,795.0,19.858241416018586
596,796.0,19.784089248075873
597,797.0,19.71031389482721
598,798.0,19.636916620545037
599,799.0,19.56389868950174
600,800.0,19.49126236596993
601,801.0,19.419007914222163
602,802.0,19.34713859853082
603,803.0,19.275655683168452
604,804.0,19.204561432407786
605,805.0,19.133858110520976
606,806.0,19.06354698178086
607,807.0,18.99363231045959
608,808.0,18.92411636082994
609,809.0,18.855000397164474
610,810.0,18.786288683735506
611,811.0,18.717983484815704
612,812.0,18.650089064677445
613,813.0,18.58260868759328
614,814.0,18.515544617835815
615,815.0,18.448901119677373
616,816.0,18.382682457390672
617,817.0,18.316891895247977
618,818.0,18.25153469752223
619,819.0,18.186614128485417
620,820.0,18.12213445241042
621,821.0,18.058101933569503
622,822.0,17.99451883623533
623,823.0,17.931393424680493
624,824.0,17.86872796317732
625,825.0,17.80652871599841
626,826.0,17.744802947416304
627,827.0,17.68355392170338
628,828.0,17.622788903132232
629,829.0,17.56251415597535
630,830.0,17.50273694450533
631,831.0,17.443461532994604
632,832.0,17.38469618571571
633,833.0,17.326448166941134
634,834.0,17.26872474094347
635,835.0,17.21153417199497
636,836.0,17.154882724368463
637,837.0,17.098778662336315
638,838.0,17.04323225017106
639,839.0,16.988249752145123
640,840.0,16.933842432531264
641,841.0,16.880017555601682
642,842.0,16.826786385629134
643,843.0,16.77415818688587
644,844.0,16.722142223644596
645,845.0,16.670749760177785
646,846.0,16.619993060758134
647,847.0,16.569881389657724
648,848.0,16.520427011149422
649,849.0,16.47164318950547
650,850.0,16.42354118899874
651,851.0,16.376134273901528
652,852.0,16.329435708486244
653,853.0,16.283459757025526
654,854.0,16.238219683791897
655,855.0,16.193730753057878
656,856.0,16.150009229095872
657,857.0,16.107070376178342
658,858.0,16.064929458578092
659,859.0,16.023604740567407
660,860.0,15.983113486418858
661,861.0,15.943473960404901
662,862.0,15.904704426798162
663,863.0,15.866824149870865
664,864.0,15.829854393895914
665,865.0,15.793816423145643
666,866.0,15.7587305018925
667,867.0,15.724619894409159
668,868.0,15.691507864967946
669,869.0,15.65941867784153
670,870.0,15.628376597302235
671,871.0,15.598408887622668
672,872.0,15.569541813075375
673,873.0,15.541804637932898
674,874.0,15.515224626467614
675,875.0,15.489834042952225
676,876.0,15.465662151659103
677,877.0,15.442743216860606
678,878.0,15.421110502829606
679,879.0,15.400800273838456
680,880.0,15.381847794159626
681,881.0,15.364293328065571
682,882.0,15.348174139828927
683,883.0,15.3335334937222
684,884.0,15.320414654017668
685,885.0,15.308861884988232
686,886.0,15.298921450906164
687,887.0,15.290642616043954
688,888.0,15.284077644674198
689,889.0,15.279277801069327
690,890.0,15.276300349501923
691,891.0,15.275201554244461
692,892.0,15.276041679569573
693,893.0,15.27888598974954
694,894.0,15.283798749057041
695,895.0,15.290849221764574
696,896.0,15.30011067214457
697,897.0,15.311657364469568
698,898.0,15.325569563012209
699,899.0,15.341929532044787
700,900.0,15.36082353584004
701,901.0,15.382343838670181
702,902.0,15.406585704808094
703,903.0,15.433648398525918
704,904.0,15.463637184096456
705,905.0,15.496663325791928
706,906.0,15.532843087885226
707,907.0,15.572297734648544
708,908.0,15.615156530354568
709,909.0,15.66155373927569
710,910.0,15.711631625684447
711,911.0,15.765541453853587
712,912.0,15.8234394880551
713,913.0,15.885493992561976
714,914.0,15.951880231646498
715,915.0,16.022784469581325
716,916.0,16.0984029706388
717,917.0,16.178943999091587
718,918.0,16.264625819212142
719,919.0,16.355683695272717
720,920.0,16.45236189154633
721,921.0,16.554923672305108
722,922.0,16.663646301821643
723,923.0,16.778824044368605
724,924.0,16.900770164218272
725,925.0,17.029817925643442
726,926.0,17.166321592916177
727,927.0,17.310660430309326
728,928.0,17.463234702095463
729,929.0,17.624475672546907
730,930.0,17.794842605936253
731,931.0,17.974824766536017
732,932.0,18.164947418618397
733,933.0,18.36577382645652
734,934.0,18.577904254322448
735,935.0,18.801987966488753
736,936.0,19.038718227228117
737,937.0,19.28884230081286
738,938.0,19.553164451515613
739,939.0,19.83255194360885
740,940.0,20.12794004136498
741,941.0,20.440339009056572
742,942.0,20.770842110956437
743,943.0,21.120632611336532
744,944.0,21.490996774469806
745,945.0,21.883326864628657
746,946.0,22.29914014608528
747,947.0,22.740088883112776
748,948.0,23.207975339983307
749,949.0,23.704767780969348
750,950.0,24.23262147034353
751,951.0,24.793895672378255
752,952.0,25.391184651346123
753,953.0,26.027341671519594
754,954.0,26.705508997171023
755,955.0,27.429157892573528
756,956.0,28.202130621998947
757,957.0,29.02868444972006
758,958.0,29.913552640009243
759,959.0,30.862006457139273
760,960.0,31.879930165382348
761,961.0,32.97390902901134
762,962.0,34.15133231229845
763,963.0,35.42051427951628
764,964.0,36.79083319493736
765,965.0,38.27290132283417
766,966.0,39.87876392747944
767,967.0,41.62213527314532
768,968.0,43.51868362410437
769,969.0,45.58637024462939
770,970.0,47.84586339899272
771,971.0,50.321035351466776
772,972.0,53.03957136632425
773,973.0,56.033716707837584
774,974.0,59.34119264027913
775,975.0,63.006328427921744
776,976.0,67.08148133503767
777,977.0,71.62879962589932
778,978.0,76.72244756477949
779,979.0,82.45142741595055
780,980.0,88.9231614436851
781,981.0,96.2680839122554
782,982.0,104.64555308593424
783,983.0,114.25147822899407
784,984.0,125.32823060570729
785,985.0,138.17750848034666
786,986.0,153.17704111718444
787,987.0,170.80216178049318
788,988.0,191.65331173454524
789,989.0,216.49021124361354
790,990.0,246.27218957197022
791,991.0,282.2007729838881
792,992.0,325.75263074363943
793,993.0,378.67354211549684
794,994.0,442.8689533637329
795,995.0,520.0639797526198
796,996.0,611.0172245464305
797,997.0,714.0225010094374
798,998.0,822.6569294059126
799,999.0,923.6892910001291
800,1000.0,997.7959740563593
801,1001.0,1026.0709058388757
802,1002.0,1000.4209026119502
803,1003.0,928.9714736398564
804,1004.0,830.6619231868661
805,1005.0,724.8509625172522
806,1006.0,624.8078148952868
807,1007.0,536.9974695852427
808,1008.0,463.1737308513924
809,1009.0,402.6328209580081
810,1010.0,353.7137521693626
811,1011.0,314.5871387497284
812,1012.0,283.59852596337794
813,1013.0,259.38209807458384
814,1014.0,240.8722213476185
815,1015.0,227.27761404675448
816,1016.0,218.04798443626407
817,1017.0,212.84559078042014
818,1018.0,211.52621434349498
819,1019.0,214.1304613897612
820,1020.0,220.88437918349132
821,1021.0,232.20616498895765
822,1022.0,248.71141607043296
823,1023.0,271.1998806921896
824,1024.0,300.5876061185003
825,1025.0,337.71399561363717
826,1026.0,382.9047674418731
827,1027.0,435.1442558674804
828,1028.0,490.8339731547318
829,1029.0,542.6398795678995
830,1030.0,579.884272371256
831,1031.0,592.1246918290742
832,1032.0,574.8700472056263
833,1033.0,532.552679765185
834,1034.0,475.55464577202235
835,1035.0,414.4898584904116
836,1036.0,356.62327518462473
837,1037.0,305.4768481189343
838,1038.0,261.97968555761304
839,1039.0,225.70641276493325
840,1040.0,195.70104900516765
841,1041.0,170.90928254258858
842,1042.0,150.3653446414686
843,1043.0,133.25210656608022
844,1044.0,118.90432058069587
845,1045.0,106.79042394958822
846,1046.0,96.48905693702966
847,1047.0,87.66682880729263
848,1048.0,80.05948082465
849,1049.0,73.45672125337398
850,1050.0,67.69032435773704
851,1051.0,62.62491740201176
852,1052.0,58.150878650470645
853,1053.0,54.17886636738649
854,1054.0,50.63560081703122
855,1055.0,47.46060126367797
856,1056.0,44.6036439715989
857,1057.0,42.02277420506641
858,1058.0,39.68275322835325
859,1059.0,37.553815305731746
860,1060.0,35.610693701474815
861,1061.0,33.831829679854536
862,1062.0,32.198746505143504
863,1063.0,30.69553544161431
864,1064.0,29.308439753539687
865,1065.0,28.02551870519153
866,1066.0,26.836365560842864
867,1067.0,25.731879584766034
868,1068.0,24.70407404123364
869,1069.0,23.745913194518153
870,1070.0,22.851188308892006
871,1071.0,22.01439564862767
872,1072.0,21.23064947799776
873,1073.0,20.49559806127479
874,1074.0,19.805355662731472
875,1075.0,19.156449546639806
876,1076.0,18.545761977272832
877,1077.0,17.97049521890267
878,1078.0,17.428131535801867
879,1079.0,16.91640219224314
880,1080.0,16.4332604524991
881,1081.0,15.97685558084197
882,1082.0,15.545515841544216
883,1083.0,15.13772749887869
884,1084.0,14.752121817117654
885,1085.0,14.387459060533615
886,1086.0,14.042616493399123
887,1087.0,13.71658237998679
888,1088.0,13.408438984568875
889,1089.0,13.117364571418193
890,1090.0,12.842616404807131
891,1091.0,12.583532749008214
892,1092.0,12.33952286829367
893,1093.0,12.110065026936468
894,1094.0,11.894704489208948
895,1095.0,11.693044519383648
896,1096.0,11.504750381732833
897,1097.0,11.329545340529307
898,1098.0,11.167206660045395
899,1099.0,11.017570604553725
900,1100.0,10.880526438326797
901,1101.0,10.756020425637075
902,1102.0,10.644055830757111
903,1103.0,10.544695917959416
904,1104.0,10.458062951516581
905,1105.0,10.38434219570081
906,1106.0,10.323790914784695
907,1107.0,10.276734373041108
908,1108.0,10.243577834742382
909,1109.0,10.224810564160748
910,1110.0,10.221014825569
911,1111.0,10.232873883239677
912,1112.0,10.26118700144525
913,1113.0,10.306878444457766
914,1114.0,10.371012476550618
915,1115.0,10.454816361995768
916,1116.0,10.559699365065626
917,1117.0,10.68727775003299
918,1118.0,10.839402781170406
919,1119.0,11.018204722750056
920,1120.0,11.226126839044582
921,1121.0,11.46598139432649
922,1122.0,11.741008652868572
923,1123.0,12.05495387894291
924,1124.0,12.412155336822366
925,1125.0,12.817650290779511
926,1126.0,13.277314005086282
927,1127.0,13.798014744015632
928,1128.0,14.387820771840097
929,1129.0,15.056245352832093
930,1130.0,15.814557751264033
931,1131.0,16.67616623140873
932,1132.0,17.657113057538368
933,1133.0,18.77668549392547
934,1134.0,20.058204804842717
935,1135.0,21.53003525456245
936,1136.0,23.226878107357493
937,1137.0,25.19145062749999
938,1138.0,27.476657079262623
939,1139.0,30.148419726918064
940,1140.0,33.289345834738356
941,1141.0,37.003468666996696
942,1142.0,41.42228948796492
943,1143.0,46.71229256191589
944,1144.0,53.083803153122176
945,1145.0,60.80034952585595
946,1146.0,70.18589894439003
947,1147.0,81.62351267299687
948,1148.0,95.53125497594874
949,1149.0,112.28737211751866
950,1150.0,132.0573093619787
951,1151.0,154.46405997360137
952,1152.0,178.0927122166595
953,1153.0,200.03025035542532
954,1154.0,216.02300665417135
955,1155.0,221.90879337717047
956,1156.0,215.90379878869464
957,1157.0,199.7917831530167
958,1158.0,177.7348837344092
959,1159.0,153.9867167971446
960,1160.0,131.46024760549528
961,1161.0,111.57033442373381
962,1162.0,94.69393351613257
963,1163.0,80.6655451469644
964,1164.0,69.10687158050166
965,1165.0,59.59979308101674
966,1166.0,51.76119291278246
967,1167.0,45.267048340070914
968,1168.0,39.85377562715462
969,1169.0,35.31099003830661
970,1170.0,31.472148837798954
971,1171.0,28.205690289904396
972,1172.0,25.407517658895244
973,1173.0,22.994961209044163
974,1174.0,20.902033204623535
975,1175.0,19.075761909905737
976,1176.0,17.47336058916369
977,1177.0,16.060058506669634
978,1178.0,14.807415926696194
979,1179.0,13.692035113515658
980,1180.0,12.694550331401047
981,1181.0,11.798838844624242
982,1182.0,10.991405917457996
983,1183.0,10.260895814174887
984,1184.0,9.597702799047624
985,1185.0,8.993665136348227
986,1186.0,8.441813090349683
987,1187.0,7.936169925324293
988,1188.0,7.471589905544306
989,1189.0,7.043621295282605
990,1190.0,6.648403358811606
991,1191.0,6.282570360403838
992,1192.0,5.943181564331894
993,1193.0,5.627658234868136
994,1194.0,5.333728636284945
995,1195.0,5.059390032855049
996,1196.0,4.8028706888509305
997,1197.0,4.562595868545031
998,1198.0,4.3371648362098085
999,1199.0,4.125327856118247
1000,1200.0,3.9259661925420914
1001,1201.0,3.7380781097546105
1002,1202.0,3.5607638720275645
1003,1203.0,3.393209743633861
1004,1204.0,3.234684988846311
1005,1205.0,3.084526871936987
1006,1206.0,2.9421366571783665
1007,1207.0,2.806967608843138
1008,1208.0,2.6785249912039717
1009,1209.0,2.5563570685330887
1010,1210.0,2.440053105103061
1011,1211.0,2.329234365186494
1012,1212.0,2.2235581130559012
1013,1213.0,2.1227076129837315
1014,1214.0,2.026392129242481
1015,1215.0,1.9343439261047024
1016,1216.0,1.8463192678427731
1017,1217.0,1.7620884187293768
1018,1218.0,1.6814446430369117
1019,1219.0,1.6041932050380865
1020,1220.0,1.5301543690052313
1021,1221.0,1.4591633992109792
1022,1222.0,1.3910655599277106
1023,1223.0,1.3257171154280059
1024,1224.0,1.2629873299841847
1025,1225.0,1.2027494678690118
1026,1226.0,1.1448897933549915
1027,1227.0,1.0893005707143857
1028,1228.0,1.0358820642200044
1029,1229.0,0.9845385381443066
1030,1230.0,0.9351842567596123
1031,1231.0,0.8877364843385749
1032,1232.0,0.8421174851534943
1033,1233.0,0.7982555234773372
1034,1234.0,0.756083863582262
1035,1235.0,0.7155377697408767
1036,1236.0,0.6765585062256605
1037,1237.0,0.6390903373089714
1038,1238.0,0.6030785272636194
1039,1239.0,0.5684753403620562
1040,1240.0,0.5352330408766193
1041,1241.0,0.5033078930800912
1042,1242.0,0.47265716124468327
1043,1243.0,0.4432441096430466
1044,1244.0,0.4150290025477261
1045,1245.0,0.3879781042307968
1046,1246.0,0.36205767896569796
1047,1247.0,0.33723699102415594
1048,1248.0,0.3134863046789178
1049,1249.0,0.29077788420249817
1050,1250.0,0.26908399386763904
1051,1251.0,0.24838189794616028
1052,1252.0,0.2286448607113698
1053,1253.0,0.20985314643542097
1054,1254.0,0.19198401939081577
1055,1255.0,0.17501674385005117
1056,1256.0,0.1589335840858439
1057,1257.0,0.14371480437046102
1058,1258.0,0.12934366897650307
1059,1259.0,0.11580544217622446
1060,1260.0,0.10308238824256932
1061,1261.0,0.09116077144801693
1062,1262.0,0.08002685606481919
1063,1263.0,0.06966690636579642
1064,1264.0,0.06006818662297064
1065,1265.0,0.0512209611090384
1066,1266.0,0.04311149409693371
1067,1267.0,0.03573004985867101
1068,1268.0,0.029065892667063054
1069,1269.0,0.023111286794346597
1070,1270.0,0.017855496513448088
1071,1271.0,0.013291786096260694
1072,1272.0,0.009410419815822024
1073,1273.0,0.006204661944366308
1074,1274.0,0.003666776754585044
1075,1275.0,0.0017910285189373099
1076,1276.0,0.0005706815097710205
1077,1277.0,0.0
1078,1278.0,7.324826162857789e-05
1079,1279.0,0.0007866905672244684
1080,1280.0,0.0021335911898177073
1081,1281.0,0.004110214401407575
1082,1282.0,0.006712824474902845
1083,1283.0,0.009937685682530173
1084,1284.0,0.013781062296629898
1085,1285.0,0.018241218590105746
1086,1286.0,0.023313418835186894
1087,1287.0,0.028995927304549696
1088,1288.0,0.03528700827064313
1089,1289.0,0.04218392600603238
1090,1290.0,0.04968694478338875
1091,1291.0,0.057792328874825216
1092,1292.0,0.06650034255289938
1093,1293.0,0.07581025009028508
1094,1294.0,0.08572031575988603
1095,1295.0,0.09623180383334784
1096,1296.0,0.10734497858391023
1097,1297.0,0.11905910428367861
1098,1298.0,0.13137444520566532
1099,1299.0,0.14429226562151598
1100,1300.0,0.1578148298042379
1101,1301.0,0.17194140202673225
1102,1302.0,0.18667524656086698
1103,1303.0,0.20201862767942202
1104,1304.0,0.21797180965506868
1105,1305.0,0.2345390567600134
1106,1306.0,0.2517216332668113
1107,1307.0,0.26952380344812354
1108,1308.0,0.28794783157638904
1109,1309.0,0.30699898192415276
1110,1310.0,0.3266795187638536
1111,1311.0,0.34699370636826643
1112,1312.0,0.3679468090094815
1113,1313.0,0.3895440909602712
1114,1314.0,0.41178981649284196
1115,1315.0,0.434690249880191
1116,1316.0,0.4582496553945248
1117,1317.0,0.48247629730872177
1118,1318.0,0.5073754398947585
1119,1319.0,0.5329553474252862
1120,1320.0,0.5592212841729634
1121,1321.0,0.5861825144100976
1122,1322.0,0.61384730240934
1123,1323.0,0.6422239124434554
1124,1324.0,0.6713206087842991
1125,1325.0,0.7011486557053104
1126,1326.0,0.7317163174781172
1127,1327.0,0.7630348583759314
1128,1328.0,0.7951145426706034
1129,1329.0,0.8279686346348853
1130,1330.0,0.8616083985415344
1131,1331.0,0.8960460986630778
1132,1332.0,0.9312949992719268
1133,1333.0,0.9673693646399215
1134,1334.0,1.0042854590404886
1135,1335.0,1.0420565467458118
1136,1336.0,1.0806988920284084
1137,1337.0,1.1202307591607905
1138,1338.0,1.1606684124154754
1139,1339.0,1.20203211606497
1140,1340.0,1.2443401343815594
1141,1341.0,1.287612731637978
1142,1342.0,1.331872172106955
1143,1343.0,1.3771407200607655
1144,1344.0,1.423441639771795
1145,1345.0,1.470800195512652
1146,1346.0,1.5192426515558282
1147,1347.0,1.568795272174043
1148,1348.0,1.6194873216394399
1149,1349.0,1.6713490642249553
1150,1350.0,1.7244127642030662
1151,1351.0,1.7787106858457946
1152,1352.0,1.8342780934257235
1153,1353.0,1.8911522512163401
1154,1354.0,1.949371423488742
1155,1355.0,2.0089778745162903
1156,1356.0,2.0700128685713253
1157,1357.0,2.1325226699262885
1158,1358.0,2.196555542854071
1159,1359.0,2.262160751626766
1160,1360.0,2.329393560516678
1161,1361.0,2.3983092337972494
1162,1362.0,2.4689670357394107
1163,1363.0,2.541429230617382
1164,1364.0,2.6157640827024125
1165,1365.0,2.692041856268247
1166,1366.0,2.7703358155860087
1167,1367.0,2.8507262249289624
1168,1368.0,2.933297348569681
1169,1369.0,3.018136450780389
1170,1370.0,3.1053407958339676
1171,1371.0,3.1950086480024993
1172,1372.0,3.2872472715586127
1173,1373.0,3.3821709307750325
1174,1374.0,3.479901889924008
1175,1375.0,3.580567413278345
1176,1376.0,3.6843067651101364
1177,1377.0,3.791266209692253
1178,1378.0,3.9016030112971976
1179,1379.0,4.015486434197442
1180,1380.0,4.133096742665316
1181,1381.0,4.254626200973348
1182,1382.0,4.380281073394258
1183,1383.0,4.510285624200037
1184,1384.0,4.644877117663896
1185,1385.0,4.784314818058306
1186,1386.0,4.928872989654906
1187,1387.0,5.078851896727542
1188,1388.0,5.2345738035477325
1189,1389.0,5.396386974387838
1190,1390.0,5.56466767352083
1191,1391.0,5.739825165219941
1192,1392.0,5.922302713756267
1193,1393.0,6.1125815834030846
1194,1394.0,6.311185038433109
1195,1395.0,6.518683343117914
1196,1396.0,6.735699761731553
1197,1397.0,6.962913558544756
1198,1398.0,7.20106899783093
1199,1399.0,7.450981343863191
1200,1400.0,7.71354686091297
1201,1401.0,7.989750813253181
1202,1402.0,8.280677465156373
1203,1403.0,8.587525080895261
1204,1404.0,8.911619924741785
1205,1405.0,9.254430260969116
1206,1406.0,9.617587353849217
1207,1407.0,10.002907467655291
1208,1408.0,10.412414866659333
1209,1409.0,10.84837681513352
1210,1410.0,11.31333157735105
1211,1411.0,11.810132417583986
1212,1412.0,12.341995600104951
1213,1413.0,12.912556389186989
1214,1414.0,13.525930049101703
1215,1415.0,14.186800844122331
1216,1416.0,14.900506038520575
1217,1417.0,15.673152896569832
1218,1418.0,16.51175468254212
1219,1419.0,17.424392660710396
1220,1420.0,18.420414095346246
1221,1421.0,19.510673250723244
1222,1422.0,20.707832391113357
1223,1423.0,22.02671878078911
1224,1424.0,23.484783684023228
1225,1425.0,25.10266336508778
1226,1426.0,26.904881088255365
1227,1427.0,28.92073511779938
1228,1428.0,31.185424717991168
1229,1429.0,33.7414771531038
1230,1430.0,36.64058268740985
1231,1431.0,39.945947585181216
1232,1432.0,43.73534911069157
1233,1433.0,48.10508452821239
1234,1434.0,53.17511310201678
1235,1435.0,59.09572709637666
1236,1436.0,66.05617277556519
1237,1437.0,74.29563540385436
1238,1438.0,84.11690024551706
1239,1439.0,95.9024635648251
1240,1440.0,110.13154862605222
1241,1441.0,127.39326369346975
1242,1442.0,148.38416503135102
1243,1443.0,173.8644429039681
1244,1444.0,204.52188957559372
1245,1445.0,240.6573843105001
1246,1446.0,281.58552937295974
1247,1447.0,324.7338260272455
1248,1448.0,364.8059445376299
1249,1449.0,394.0680081683853
1250,1450.0,404.95246318378406
1251,1451.0,394.2160778480992
1252,1452.0,365.1021114256024
1253,1453.0,325.1781431805665
1254,1454.0,282.17807737726423
1255,1455.0,241.39827227996818
1256,1456.0,205.41125115295097
1257,1457.0,174.90244126048458
1258,1458.0,149.57099086684173
1259,1459.0,128.7291352362946
1260,1460.0,111.61671163311655
1261,1461.0,97.53719432157948
1262,1462.0,85.9015025659561
1263,1463.0,76.23044363051883
1264,1464.0,68.14154977954001
1265,1465.0,61.33206927729259
1266,1466.0,55.562845388048686
1267,1467.0,50.64466537608098
1268,1468.0,46.427267505661916
1269,1469.0,42.7907280410642
1270,1470.0,39.63878324656014
1271,1471.0,36.893691386422574
1272,1472.0,34.49228072492326
1273,1473.0,32.38290052633499
1274,1474.0,30.523059054931196
1275,1475.0,28.877598574983153
1276,1476.0,27.417260350764423
1277,1477.0,26.117562646546617
1278,1478.0,24.957912726602558
1279,1479.0,23.920906855204862
1280,1480.0,22.991760296626012
1281,1481.0,22.15786131513812
1282,1482.0,21.408404175014653
1283,1483.0,20.73409414052719
1284,1484.0,20.12690447594889
1285,1485.0,19.579877445551688
1286,1486.0,19.086965313608403
1287,1487.0,18.64288934439162
1288,1488.0,18.243031802173732
1289,1489.0,17.88334095122707
1290,1490.0,17.560252055824435
1291,1491.0,17.27062238023825
1292,1492.0,17.011673188741156
1293,1493.0,16.780945745605436
1294,1494.0,16.57625631510325
1295,1495.0,16.395668161508297
1296,1496.0,16.237455549092033
1297,1497.0,16.100084742127024
1298,1498.0,15.982188004886325
1299,1499.0,15.882545601642164
1300,1500.0,15.800071796666884
1301,1501.0,15.733799854232643
1302,1502.0,15.682869038613148
1303,1503.0,15.646514614080274
1304,1504.0,15.62406084490624
1305,1505.0,15.614910995363857
1306,1506.0,15.618538329725538
1307,1507.0,15.634486112263744
1308,1508.0,15.662358607251122
1309,1509.0,15.701817078960289
1310,1510.0,15.752574791663278
1311,1511.0,15.81439900963312
1312,1512.0,15.887101997142167
1313,1513.0,15.970543018462763
1314,1514.0,16.064624337867485
1315,1515.0,16.169293219628912
1316,1516.0,16.284535928019864
1317,1517.0,16.410382727312367
1318,1518.0,16.546901881779036
1319,1519.0,16.6942056556926
1320,1520.0,16.85244631332523
1321,1521.0,17.02182111894956
1322,1522.0,17.202567336838342
1323,1523.0,17.394971231263867
1324,1524.0,17.599366066498646
1325,1525.0,17.816133106815528
1326,1526.0,18.045708616486195
1327,1527.0,18.288585859783893
1328,1528.0,18.545316100980585
1329,1529.0,18.816516604349886
1330,1530.0,19.102876634162953
1331,1531.0,19.405161454693257
1332,1532.0,19.72421833021292
1333,1533.0,20.06098652499429
1334,1534.0,20.416509303310136
1335,1535.0,20.791936929433064
1336,1536.0,21.18854666763457
1337,1537.0,21.60774978218899
1338,1538.0,22.051114537367425
1339,1539.0,22.52037719744328
1340,1540.0,23.01746702668777
1341,1541.0,23.54453228937507
1342,1542.0,24.10396324977603
1343,1543.0,24.698430172164876
1344,1544.0,25.330917320812546
1345,1545.0,26.004769959992586
1346,1546.0,26.723746353977162
1347,1547.0,27.492079767038263
1348,1548.0,28.314547463449458
1349,1549.0,29.19656270748294
1350,1550.0,30.144274763410408
1351,1551.0,31.164688895505265
1352,1552.0,32.26582036803927
1353,1553.0,33.45686744528609
1354,1554.0,34.748428391516995
1355,1555.0,36.1527694710054
1356,1556.0,37.68414194802301
1357,1557.0,39.35918408684313
1358,1558.0,41.19741415173792
1359,1559.0,43.221845406979696
1360,1560.0,45.45975711684116
1361,1561.0,47.943665545594854
1362,1562.0,50.71256195751346
1363,1563.0,53.813481616869126
1364,1564.0,57.30352578793429
1365,1565.0,61.25246273498158
1366,1566.0,65.7460907222843
1367,1567.0,70.89060301411416
1368,1568.0,76.8182378747432
1369,1569.0,83.69455956844502
1370,1570.0,91.72774035949112
1371,1571.0,101.1800745121551
1372,1572.0,112.3815792907086
1373,1573.0,125.74441395942438
1374,1574.0,141.77418878257538
1375,1575.0,161.06851802443305
1376,1576.0,184.2815799492713
1377,1577.0,212.01276082136167
1378,1578.0,244.54826890497645
1379,1579.0,281.3680354643892
1380,1580.0,320.4042787638713
1381,1581.0,357.3534150676966
1382,1582.0,385.91508464013634
1383,1583.0,399.9440007454631
1384,1584.0,396.88501864795046
1385,1585.0,379.5630576118698
1386,1586.0,354.40727690149436
1387,1587.0,328.0310687810967
1388,1588.0,305.0972285149486
1389,1589.0,288.0987943673232
1390,1590.0,278.0705266024926
1391,1591.0,275.3570564847297
1392,1592.0,280.1337402783064
1393,1593.0,292.6865282474961
1394,1594.0,313.5204086565708
1395,1595.0,343.3276497698031
1396,1596.0,382.7789578514652
1397,1597.0,432.0251201658301
1398,1598.0,489.75395997716976
1399,1599.0,551.7807575497576
1400,1600.0,609.740059147865
1401,1601.0,651.5203470357657
1402,1602.0,665.292927477731
1403,1603.0,645.9513317380339
1404,1604.0,598.4584210809472
1405,1605.0,534.491782770743
1406,1606.0,465.9962990716939
1407,1607.0,401.1462182480726
1408,1608.0,343.8998945641516
1409,1609.0,295.2955402842034
1410,1610.0,254.84658067250064
1411,1611.0,221.46992999331462
1412,1612.0,193.97291251091963
1413,1613.0,171.26365048958712
1414,1614.0,152.4185971935898
1415,1615.0,136.6860158872006
1416,1616.0,123.46533983469192
1417,1617.0,112.28060230033554
1418,1618.0,102.75529354840467
1419,1619.0,94.59105584317138
1420,1620.0,87.55054544890857
1421,1621.0,81.44397762988876
1422,1622.0,76.11870465038385
1423,1623.0,71.45118977466711
1424,1624.0,67.34081826701083
1425,1625.0,63.70512839168725
1426,1626.0,60.476118412969186
1427,1627.0,57.59737259512883
1428,1628.0,55.02181720243914
1429,1629.0,52.70995249917212
1430,1630.0,50.62845874960101
1431,1631.0,48.74908421799762
1432,1632.0,47.04775816863446
1433,1633.0,45.503879865783915
1434,1634.0,44.09973657372018
1435,1635.0,42.82003455671327
1436,1636.0,41.65151807903737
1437,1637.0,40.58265340496439
1438,1638.0,39.603366798766615
1439,1639.0,38.704829524716956
1440,1640.0,37.879280847088125
1441,1641.0,37.11987403015212
1442,1642.0,36.4205503381819
1443,1643.0,35.77593603544972
1444,1644.0,35.181247386228165
1445,1645.0,34.63221865478988
1446,1646.0,34.1250341054066
1447,1647.0,33.65627200235156
1448,1648.0,33.222858609897116
1449,1649.0,32.822024192316235
1450,1650.0,32.45126801388108
1451,1651.0,32.10833033886399
1452,1652.0,31.791162431537373
1453,1653.0,31.497902556173926
1454,1654.0,31.226857977045825
1455,1655.0,30.976487958426674
1456,1656.0,30.74538176458816
1457,1657.0,30.532252659802566
1458,1658.0,30.335921908342584
1459,1659.0,30.15530677448112
1460,1660.0,29.98941352249051
1461,1661.0,29.837328416642663
1462,1662.0,29.69820872121079
1463,1663.0,29.57127770046793
1464,1664.0,29.455816618685162
1465,1665.0,29.35116274013592
1466,1666.0,29.25670132909238
1467,1667.0,29.171861649826837
1468,1668.0,29.09611596661273
1469,1669.0,29.028971543721696
1470,1670.0,28.969971645426654
1471,1671.0,28.9186905360001
1472,1672.0,28.874732479714453
1473,1673.0,28.837724740841963
1474,1674.0,28.807324583655713
1475,1675.0,28.783205272427153
1476,1676.0,28.765067071429826
1477,1677.0,28.75262524493644
1478,1678.0,28.74561505721897
1479,1679.0,28.743786772549697
1480,1680.0,28.746906655201315
1481,1681.0,28.75475496944648
1482,1682.0,28.76712497955748
1483,1683.0,28.783822949807586
1484,1684.0,28.80466414446812
1485,1685.0,28.829475827812644
1486,1686.0,28.85809726411287
1487,1687.0,28.890372717641753
1488,1688.0,28.926158452671757
1489,1689.0,28.965316733475106
1490,1690.0,29.007717824324686
1491,1691.0,29.053237989492914
1492,1692.0,29.101763493252406
1493,1693.0,29.153181599875438
1494,1694.0,29.20738957363426
1495,1695.0,29.26428767880168
1496,1696.0,29.323782179650493
1497,1697.0,29.385784340453142
1498,1698.0,29.450208425481947
1499,1699.0,29.51697469900921
1500,1700.0,29.58600542530769
1501,1701.0,29.657229868650234
1502,1702.0,29.73057629330799
1503,1703.0,29.805979963555387
1504,1704.0,29.883377143664006
1505,1705.0,29.962709097906213
1506,1706.0,30.0439170905546
1507,1707.0,30.12694638588198
1508,1708.0,30.21174624816024
1509,1709.0,30.298265941662407
1510,1710.0,30.38645773066071
1511,1711.0,30.476276879428383
1512,1712.0,30.567678652237305
1513,1713.0,30.660623313359906
1514,1714.0,30.75506912706885
1515,1715.0,30.850978357636336
1516,1716.0,30.94831526933524
1517,1717.0,31.047044126438436
1518,1718.0,31.147132193217544
1519,1719.0,31.248546733945773
1520,1720.0,31.351258012895983
1521,1721.0,31.455234294339675
1522,1722.0,31.560448842549363
1523,1723.0,31.66687492179824
1524,1724.0,31.774484796358934
1525,1725.0,31.883253730503043
1526,1726.0,31.993157988504095
1527,1727.0,32.10417483463391
1528,1728.0,32.21628153316499
1529,1729.0,32.3294563483704
1530,1730.0,32.443678544522186
1531,1731.0,32.55892838589341
1532,1732.0,32.67518713675588
1533,1733.0,32.79243606138232
1534,1734.0,32.910657424045326
1535,1735.0,33.02983448901739
1536,1736.0,33.149949520570885
1537,1737.0,33.270988782978634
1538,1738.0,33.39293554051358
1539,1739.0,33.515775057446604
1540,1740.0,33.63949359805213
1541,1741.0,33.76407742660115
1542,1742.0,33.88951280736717
1543,1743.0,34.01578700462221
1544,1744.0,34.142888282638864
1545,1745.0,34.270803905689604
1546,1746.0,34.39952313804736
1547,1747.0,34.529034243984256
1548,1748.0,34.659327487772885
1549,1749.0,34.79039113368583
1550,1750.0,34.92221544599499
1551,1751.0,35.05479168897352
1552,1752.0,35.18810912689412
1553,1753.0,35.3221600240289
1554,1754.0,35.45693464465069
1555,1755.0,35.592424253031254
1556,1756.0,35.72862111344409
1557,1757.0,35.865517490161096
1558,1758.0,36.00310564745416
1559,1759.0,36.14137784959769
1560,1760.0,36.28032636086266
1561,1761.0,36.419945445521876
1562,1762.0,36.56022736784814
1563,1763.0,36.701165392113694
1564,1764.0,36.842753782590876
1565,1765.0,36.98498580355238
1566,1766.0,37.12785571927145
1567,1767.0,37.27135879401942
1568,1768.0,37.415487292069315
1569,1769.0,37.56023647769405
1570,1770.0,37.70560261516573
1571,1771.0,37.85157796875649
1572,1772.0,37.998159802738996
1573,1773.0,38.145342381386286
1574,1774.0,38.29311996897093
1575,1775.0,38.44148982976469
1576,1776.0,38.590447228040716
1577,1777.0,38.73998642807112
1578,1778.0,38.89010469412813
1579,1779.0,39.0407972904851
1580,1780.0,39.19206048141416
1581,1781.0,39.34389053118787
1582,1782.0,39.49628370407834
1583,1783.0,39.64923626435882
1584,1784.0,39.8027444763012
1585,1785.0,39.95680560417816
1586,1786.0,40.11141591226203
1587,1787.0,40.266571664826074
1588,1788.0,40.42227112614148
1589,1789.0,40.578509560482075
1590,1790.0,40.73528523211996
1591,1791.0,40.892594405327486
1592,1792.0,41.050435344376524
1593,1793.0,41.20880531354089
1594,1794.0,41.36770057709248
1595,1795.0,41.527118399303504
1596,1796.0,41.6870580444471
1597,1797.0,41.847515776795376
1598,1798.0,42.00848886062079
1599,1799.0,42.16997556019544
1600,1800.0,42.33197413979326
1601,1801.0,42.49448186368511
1602,1802.0,42.65749699614514
1603,1803.0,42.821016801444216
1604,1804.0,42.985040543855916
1605,1805.0,43.1495644876519
1606,1806.0,43.31458689710587
1607,1807.0,43.48010803648947
1608,1808.0,43.646124170075495
1609,1809.0,43.81263356213651
1610,1810.0,43.979635476944736
1611,1811.0,44.14712817877319
1612,1812.0,44.31510893189386
1613,1813.0,44.48357800057886
1614,1814.0,44.65253164910166
1615,1815.0,44.82197014173437
1616,1816.0,44.99189074274966
1617,1817.0,45.16229271642044
1618,1818.0,45.33317532701824
1619,1819.0,45.504535838815286
1620,1820.0,45.67637351608539
1621,1821.0,45.848687623100545
1622,1822.0,46.02147642413331
1623,1823.0,46.194739183456136
1624,1824.0,46.36847316534124
1625,1825.0,46.542679634061756
1626,1826.0,46.717355853889444
1627,1827.0,46.89250108909721
1628,1828.0,47.06811460395795
1629,1829.0,47.244194662743325
1630,1830.0,47.420740529726686
1631,1831.0,47.597751469180025
1632,1832.0,47.77522674537579
1633,1833.0,47.953165622586425
1634,1834.0,48.13156536508461
1635,1835.0,48.31042823714381
1636,1836.0,48.48975050303591
1637,1837.0,48.66953242703232
1638,1838.0,48.84977327340641
1639,1839.0,49.030472306431534
1640,1840.0,49.21162879037831
1641,1841.0,49.39324198952056
1642,1842.0,49.575311168130725
1643,1843.0,49.757834590481366
1644,1844.0,49.940813520844245
1645,1845.0,50.12424522349295
1646,1846.0,50.30813096269878
1647,1847.0,50.49246900273522
1648,1848.0,50.67725960787459
1649,1849.0,50.862500042389115
1650,1850.0,51.04819257055135
1651,1851.0,51.23433445663443
1652,1852.0,51.420926964909654
1653,1853.0,51.607967359650615
1654,1854.0,51.79545790512941
1655,1855.0,51.98339486561838
1656,1856.0,52.17178050539053
1657,1857.0,52.36061308871797
1658,1858.0,52.54989287987348
1659,1859.0,52.73961814312918
1660,1860.0,52.92978914275784
1661,1861.0,53.12040614303089
1662,1862.0,53.31146840822305
1663,1863.0,53.502974202605515
1664,1864.0,53.69492479045141
1665,1865.0,53.88731943603227
1666,1866.0,54.080157403621
1667,1867.0,54.273437957490046
1668,1868.0,54.46716236191298
1669,1869.0,54.6613288811601
1670,1870.0,54.85593677950658
1671,1871.0,55.050987321222806
1672,1872.0,55.246479770582596
1673,1873.0,55.442413391857485
1674,1874.0,55.63878744932083
1675,1875.0,55.83560220724405
1676,1876.0,56.0328579299013
1677,1877.0,56.23055388156365
1678,1878.0,56.42868932650401
1679,1879.0,56.62726552899551
1680,1880.0,56.826280753309334
1681,1881.0,57.025735263719184
1682,1882.0,57.225629324497845
1683,1883.0,57.42596119991606
1684,1884.0,57.6267331542482
1685,1885.0,57.82794345176592
1686,1886.0,58.02959135674166
1687,1887.0,58.231678133448554
1688,1888.0,58.43420304615813
1689,1889.0,58.637166359143635
1690,1890.0,58.84056633667717
1691,1891.0,59.04440424303186
1692,1892.0,59.24868034248004
1693,1893.0,59.453393899293246
1694,1894.0,59.658544177745284
1695,1895.0,59.86413144210758
1696,1896.0,60.070155956653366
1697,1897.0,60.27661798565498
1698,1898.0,60.483515793385436
1699,1899.0,60.69085164411638
1700,1900.0,60.898623802120824
1701,1901.0,61.10683153167122
1702,1902.0,61.315477097040116
1703,1903.0,61.524558762498714
1704,1904.0,61.73407679232116
1705,1905.0,61.9440314507807
1706,1906.0,62.1544220021475
1707,1907.0,62.365248710696164
1708,1908.0,62.57651184069721
1709,1909.0,62.78821165642478
1710,1910.0,63.00034742215041
1711,1911.0,63.21291840214792
1712,1912.0,63.42592686068804
1713,1913.0,63.63937106204423
1714,1914.0,63.85325027048941
1715,1915.0,64.06756675029521
1716,1916.0,64.28231876573466
1717,1917.0,64.49750758107996
1718,1918.0,64.71313146060413
1719,1919.0,64.92919166857939
1720,1920.0,65.14568846927762
1721,1921.0,65.36262112697261
1722,1922.0,65.5799899059358
1723,1923.0,65.79779407044009
1724,1924.0,66.01603588475803
1725,1925.0,66.23471261316274
1726,1926.0,66.45382651992543
1727,1927.0,66.6733758693191
1728,1928.0,66.89336192561689
1729,1929.0,67.11378395309077
1730,1930.0,67.33464321601252
1731,1931.0,67.55593797865606
1732,1932.0,67.7776695052936
1733,1933.0,67.99983806019748
1734,1934.0,68.22244290763922
1735,1935.0,68.44548431189344
1736,1936.0,68.66896253723019
1737,1937.0,68.89287684792373
1738,1938.0,69.11722950824617
1739,1939.0,69.34201778246927
1740,1940.0,69.56724393486695
1741,1941.0,69.79290622971041
1742,1942.0,70.01900693127311
1743,1943.0,70.2455443038267
1744,1944.0,70.47251861164398
1745,1945.0,70.69993111899805
1746,1946.0,70.92778009016058
1747,1947.0,71.15606778940457
1748,1948.0,71.38479248100305
1749,1949.0,71.61395542922685
1750,1950.0,71.84355589835025
1751,1951.0,72.07359515264545
1752,1952.0,72.30407145638321
1753,1953.0,72.53498607383847
1754,1954.0,72.76634026928252
1755,1955.0,72.99813130698806
1756,1956.0,73.23036145122717
1757,1957.0,73.4630309662731
1758,1958.0,73.69613811639749
1759,1959.0,73.92968516587382
1760,1960.0,74.16367037897464
1761,1961.0,74.39809601997115
1762,1962.0,74.63295935313693
1763,1963.0,74.86826264274453
1764,1964.0,75.10400615306582
1765,1965.0,75.34018914837418
1766,1966.0,75.57681089294067
1767,1967.0,75.81387365103922
1768,1968.0,76.05137568694192
1769,1969.0,76.28931826492101
1770,1970.0,76.52770164924925
1771,1971.0,76.76652410419968
1772,1972.0,77.00578889404335
1773,1973.0,77.24549328305432
1774,1974.0,77.48563853550434
1775,1975.0,77.72622591566562
1776,1976.0,77.96725368781165
1777,1977.0,78.20872211621429
1778,1978.0,78.45063346514564
1779,1979.0,78.6929849988793
1780,1980.0,78.9357789816869
1781,1981.0,79.17901567784122
1782,1982.0,79.42269335161438
1783,1983.0,79.66681426727985
1784,1984.0,79.91137668910972
1785,1985.0,80.1563818813762
1786,1986.0,80.40183010835119
1787,1987.0,80.64772163430837
1788,1988.0,80.89405572352064
1789,1989.0,81.14083264025896
1790,1990.0,81.38805364879693
1791,1991.0,81.63571801340652
1792,1992.0,81.88382599836098
1793,1993.0,82.13237786793081
1794,1994.0,82.38137488639097
1795,1995.0,82.63081431801368
1796,1996.0,82.88069942707
1797,1997.0,83.13102847783387
1798,1998.0,83.38180273457658
1799,1999.0,83.63302246157139
1800,2000.0,83.88468592309039
