raman_shift_cm-1,intensity
200.000000,0.001032467868
201.000000,0.0009809229762
202.000000,0.001135450722
203.000000,0.001028368575
204.000000,0.0009002771569
205.000000,0.001079752642
206.000000,0.00126825636
207.000000,0.001196895386
208.000000,0.0008667551113
209.000000,0.000754440953
210.000000,0.0008828935683
211.000000,0.001015836996
212.000000,0.0005425891115
213.000000,0.0009638605277
214.000000,0.000758460394
215.000000,0.0008612129655
216.000000,0.0008988386239
217.000000,0.0009444545053
218.000000,0.001090064893
219.000000,0.001216265843
220.000000,0.0009820807561
221.000000,0.001281105038
222.000000,0.0008747982031
223.000000,0.001078164084
224.000000,0.001188581179
225.000000,0.001026714815
226.000000,0.0008592378618
227.000000,0.0008236181359
228.000000,0.0009164436903
229.000000,0.001052053671
230.000000,0.0008061169469
231.000000,0.000966231555
232.000000,0.0009762479042
233.000000,0.001116288411
234.000000,0.001051077658
235.000000,0.001079247069
236.000000,0.000877433654
237.000000,0.0009823036544
238.000000,0.001165048638
239.000000,0.001306967096
240.000000,0.0007564952435
241.000000,0.00131112075
242.000000,0.001277538889
243.000000,0.001164654058
244.000000,0.001061311044
245.000000,0.0009456636628
246.000000,0.00130008084
247.000000,0.001400557015
248.000000,0.001368861147
249.000000,0.001271583921
250.000000,0.001080068421
251.000000,0.0007669579606
252.000000,0.001007760387
253.000000,0.001139975909
254.000000,0.0007510385188
255.000000,0.001087765297
256.000000,0.001094743884
257.000000,0.001148010136
258.000000,0.0007720086336
259.000000,0.0008765225392
260.000000,0.0009216070234
261.000000,0.000774964905
262.000000,0.001356830272
263.000000,0.000909806159
264.000000,0.001074814039
265.000000,0.000957337614
266.000000,0.001325778913
267.000000,0.001273188955
268.000000,0.00113581991
269.000000,0.0005684802465
270.000000,0.001019621067
271.000000,0.001145985774
272.000000,0.00121007433
273.000000,0.0008857343038
274.000000,0.001373751903
275.000000,0.0007452975772
276.000000,0.000877112532
277.000000,0.001196462726
278.000000,0.001019298472
279.000000,0.001410001119
280.000000,0.001047261727
281.000000,0.0008829545937
282.000000,0.0009341164719
283.000000,0.0007914359516
284.000000,0.0007541653875
285.000000,0.00113582021
286.000000,0.001126007815
287.000000,0.001268723407
288.000000,0.0008589277294
289.000000,0.001347707879
290.000000,0.0009524466064
291.000000,0.001324843825
292.000000,0.000923443285
293.000000,0.0008629423485
294.000000,0.001060034904
295.000000,0.001216407542
296.000000,0.001042358211
297.000000,0.0008930901799
298.000000,0.0007419919329
299.000000,0.0007299720483
300.000000,0.001110853164
301.000000,0.001208299995
302.000000,0.0009775395578
303.000000,0.0007955668897
304.000000,0.001185089977
305.000000,0.0007544447469
306.000000,0.000867952213
307.000000,0.001134812009
308.000000,0.0005606231242
309.000000,0.001087968516
310.000000,0.000894409988
311.000000,0.001032637978
312.000000,0.0009956859445
313.000000,0.001051293672
314.000000,0.001149750059
315.000000,0.00085928694
316.000000,0.001295202856
317.000000,0.001156271119
318.000000,0.001179845154
319.000000,0.001244118033
320.000000,0.001168709856
321.000000,0.001180055287
322.000000,0.00102640598
323.000000,0.0007259805664
324.000000,0.0009843747723
325.000000,0.0008575297012
326.000000,0.000726933498
327.000000,0.001063222023
328.000000,0.0008978715815
329.000000,0.0008056709922
330.000000,0.0008030824758
331.000000,0.001065417329
332.000000,0.001083519939
333.000000,0.001276329099
334.000000,0.001009107151
335.000000,0.001220310947
336.000000,0.001292449305
337.000000,0.001242083253
338.000000,0.0005390435766
339.000000,0.001257895785
340.000000,0.001080138184
341.000000,0.001097024058
342.000000,0.001086571344
343.000000,0.001088933841
344.000000,0.001076322283
345.000000,0.0009407142943
346.000000,0.0006322279071
347.000000,0.0009908305319
348.000000,0.0008519261251
349.000000,0.001228764708
350.000000,0.0009550387745
351.000000,0.001029547724
352.000000,0.0008429925727
353.000000,0.0009108509221
354.000000,0.001010731003
355.000000,0.0007160253341
356.000000,0.001073300712
357.000000,0.0009920131274
358.000000,0.0007761480843
359.000000,0.0005337105257
360.000000,0.001116033173
361.000000,0.0009539721889
362.000000,0.000907554175
363.000000,0.000966392412
364.000000,0.001376986634
365.000000,0.001003799998
366.000000,0.001031153435
367.000000,0.0007164850539
368.000000,0.001343438151
369.000000,0.001197539318
370.000000,0.001227500762
371.000000,0.001023721095
372.000000,0.00119759097
373.000000,0.001088523557
374.000000,0.001137046907
375.000000,0.0009840461352
376.000000,0.0007197835187
377.000000,0.001220409116
378.000000,0.0006277242247
379.000000,0.0009668075028
380.000000,0.0009739698156
381.000000,0.0008063825644
382.000000,0.001137660314
383.000000,0.000975051669
384.000000,0.0009278267069
385.000000,0.001119252334
386.000000,0.0009200526626
387.000000,0.001293249828
388.000000,0.001085831105
389.000000,0.0009207606574
390.000000,0.0006268623466
391.000000,0.0007542537263
392.000000,0.001233260499
393.000000,0.001005864472
394.000000,0.0009594521975
395.000000,0.001344820458
396.000000,0.0007597342262
397.000000,0.0008992274865
398.000000,0.0009219375312
399.000000,0.001133819609
400.000000,0.0008839432829
401.000000,0.0008940660246
402.000000,0.0006958201071
403.000000,0.001162821399
404.000000,0.00117828208
405.000000,0.0009218827275
406.000000,0.001049931134
407.000000,0.0007588402068
408.000000,0.0009231143279
409.000000,0.001293175939
410.000000,0.00104484197
411.000000,0.001479879901
412.000000,0.0008604813672
413.000000,0.001134090864
414.000000,0.0009790482593
415.000000,0.001131429841
416.000000,0.001016942275
417.000000,0.000906264655
418.000000,0.0008451021355
419.000000,0.001631955556
420.000000,0.001003403453
421.000000,0.0006156661483
422.000000,0.000889405581
423.000000,0.001154862689
424.000000,0.0009193837533
425.000000,0.001291607064
426.000000,0.001220131581
427.000000,0.0009893200548
428.000000,0.0009254822357
429.000000,0.0008191046868
430.000000,0.0008802129011
431.000000,0.00072572081
432.000000,0.00126137383
433.000000,0.001338781847
434.000000,0.0007695632036
435.000000,0.0007846054008
436.000000,0.0006673928956
437.000000,0.0008284798273
438.000000,0.0004001408991
439.000000,0.0007931122786
440.000000,0.001281113232
441.000000,0.0009527600464
442.000000,0.001192978168
443.000000,0.0009244366946
444.000000,0.001374535624
445.000000,0.001062419941
446.000000,0.0009463526434
447.000000,0.001533417299
448.000000,0.0009582202067
449.000000,0.0007790547436
450.000000,0.001063869062
451.000000,0.001015910578
452.000000,0.001237135961
453.000000,0.0008397407377
454.000000,0.001185210457
455.000000,0.001195019459
456.000000,0.0008911382211
457.000000,0.00105753369
458.000000,0.0008589470779
459.000000,0.001494475116
460.000000,0.0008847051555
461.000000,0.0009351413637
462.000000,0.0008128155383
463.000000,0.0009569895735
464.000000,0.001025273198
465.000000,0.001180244789
466.000000,0.0009048322742
467.000000,0.0009900216387
468.000000,0.0007441296746
469.000000,0.0008622026193
470.000000,0.001579104605
471.000000,0.001236456387
472.000000,0.000872192344
473.000000,0.0007612719789
474.000000,0.0008339141355
475.000000,0.001024976936
476.000000,0.001036550341
477.000000,0.0008810277493
478.000000,0.0007728856196
479.000000,0.001314982567
480.000000,0.001121156174
481.000000,0.000956223728
482.000000,0.0009873295355
483.000000,0.0009258865024
484.000000,0.0004449208751
485.000000,0.00105560644
486.000000,0.0008187162388
487.000000,0.0008326464434
488.000000,0.0009054963506
489.000000,0.001180382266
490.000000,0.000800196642
491.000000,0.0007478354147
492.000000,0.001163059291
493.000000,0.001186368344
494.000000,0.0008441222896
495.000000,0.001148812089
496.000000,0.0009784389275
497.000000,0.001097466342
498.000000,0.0007854682846
499.000000,0.001204701924
500.000000,0.001279248113
501.000000,0.001166495197
502.000000,0.001151244072
503.000000,0.0002856282571
504.000000,0.001092728519
505.000000,0.001036045268
506.000000,0.001012269902
507.000000,0.0009161214346
508.000000,0.001053881879
509.000000,0.001125818527
510.000000,0.0009912383956
511.000000,0.0009519475335
512.000000,0.001291195367
513.000000,0.0008248199182
514.000000,0.001252590217
515.000000,0.00108260525
516.000000,0.0008870836189
517.000000,0.0009906694735
518.000000,0.0008654080868
519.000000,0.001185181288
520.000000,0.001120531748
521.000000,0.0009403974575
522.000000,0.0008321415102
523.000000,0.001113780988
524.000000,0.001245792602
525.000000,0.001032452075
526.000000,0.00113982096
527.000000,0.0009819045507
528.000000,0.001071612967
529.000000,0.001000862599
530.000000,0.00111897993
531.000000,0.0007593030163
532.000000,0.001191216852
533.000000,0.001017550289
534.000000,0.001136454941
535.000000,0.0009979081375
536.000000,0.001131321429
537.000000,0.0008540598634
538.000000,0.001307772879
539.000000,0.0007306512549
540.000000,0.0008649815972
541.000000,0.001121485332
542.000000,0.001368499625
543.000000,0.00113319467
544.000000,0.00102968824
545.000000,0.0007960179974
546.000000,0.001044615878
547.000000,0.00108080384
548.000000,0.001424877864
549.000000,0.001213255233
550.000000,0.0007851634315
551.000000,0.001498580346
552.000000,0.001016561072
553.000000,0.0009221113188
554.000000,0.001395515824
555.000000,0.001093262582
556.000000,0.00103251717
557.000000,0.001152668027
558.000000,0.001280939191
559.000000,0.001313825709
560.000000,0.0008434711536
561.000000,0.001521727747
562.000000,0.001315101672
563.000000,0.001053777549
564.000000,0.0009699782323
565.000000,0.0009442189441
566.000000,0.001167243243
567.000000,0.001017762942
568.000000,0.0009994618814
569.000000,0.001320051045
570.000000,0.001236393432
571.000000,0.001090587475
572.000000,0.00132274328
573.000000,0.001456163086
574.000000,0.0009710179304
575.000000,0.001076963367
576.000000,0.001394368198
577.000000,0.001358419312
578.000000,0.001269376987
579.000000,0.001466605921
580.000000,0.001027309438
581.000000,0.0009607756315
582.000000,0.00109585995
583.000000,0.001307232145
584.000000,0.001138181657
585.000000,0.001215870396
586.000000,0.001135612004
587.000000,0.001225372146
588.000000,0.001169084582
589.000000,0.001466077492
590.000000,0.001576318635
591.000000,0.001348519938
592.000000,0.001433287422
593.000000,0.001391941101
594.000000,0.00165156968
595.000000,0.001604650233
596.000000,0.00195223663
597.000000,0.001466766826
598.000000,0.001817731491
599.000000,0.001901565484
600.000000,0.001817925982
601.000000,0.002095597237
602.000000,0.001794097405
603.000000,0.002625552536
604.000000,0.002074339439
605.000000,0.002693650715
606.000000,0.002484936767
607.000000,0.003179976054
608.000000,0.003166164549
609.000000,0.003636324571
610.000000,0.004066132727
611.000000,0.004844597918
612.000000,0.00528672553
613.000000,0.00569490343
614.000000,0.007352969611
615.000000,0.009117153965
616.000000,0.01099242562
617.000000,0.01364103596
618.000000,0.0162597156
619.000000,0.01814930083
620.000000,0.01872817926
621.000000,0.01845607957
622.000000,0.01627404373
623.000000,0.01342840808
624.000000,0.0115037435
625.000000,0.009012595447
626.000000,0.007279909518
627.000000,0.006259911313
628.000000,0.005569742123
629.000000,0.004440496215
630.000000,0.004449641269
631.000000,0.003429664646
632.000000,0.003438732595
633.000000,0.003063820981
634.000000,0.002683880728
635.000000,0.002731730105
636.000000,0.002049127981
637.000000,0.002480052739
638.000000,0.002076220631
639.000000,0.00187797005
640.000000,0.002047828969
641.000000,0.002033143008
642.000000,0.001908004476
643.000000,0.002094997469
644.000000,0.001859209829
645.000000,0.001853626569
646.000000,0.001447862832
647.000000,0.001540401777
648.000000,0.00159872314
649.000000,0.001452886928
650.000000,0.001489937655
651.000000,0.001490523223
652.000000,0.001552060724
653.000000,0.001342762244
654.000000,0.001274738778
655.000000,0.001162202632
656.000000,0.001134074205
657.000000,0.001532710128
658.000000,0.001268233752
659.000000,0.001430454149
660.000000,0.001002432122
661.000000,0.0008639380024
662.000000,0.001032171767
663.000000,0.0014624185
664.000000,0.001438436827
665.000000,0.00128352931
666.000000,0.00104951233
667.000000,0.001177092572
668.000000,0.001137451495
669.000000,0.001122168778
670.000000,0.0006844876939
671.000000,0.00100900495
672.000000,0.001137782028
673.000000,0.001474604973
674.000000,0.001199264822
675.000000,0.001443352886
676.000000,0.001080737825
677.000000,0.001105474693
678.000000,0.000372876125
679.000000,0.001242376338
680.000000,0.001256268934
681.000000,0.001496919892
682.000000,0.001044302792
683.000000,0.00115813227
684.000000,0.000995993238
685.000000,0.0008997880249
686.000000,0.0009904945442
687.000000,0.001062322681
688.000000,0.001400739784
689.000000,0.001128542329
690.000000,0.0009685518638
691.000000,0.00115370557
692.000000,0.001167617584
693.000000,0.0009877304731
694.000000,0.001350593919
695.000000,0.0007433412575
696.000000,0.001077456579
697.000000,0.00125242119
698.000000,0.0008510495927
699.000000,0.001190398509
700.000000,0.001376219712
701.000000,0.001207948744
702.000000,0.0007788345258
703.000000,0.0009709569675
704.000000,0.001362862554
705.000000,0.001175950471
706.000000,0.001114268236
707.000000,0.001204511393
708.000000,0.00126058675
709.000000,0.0009748640111
710.000000,0.001058731719
711.000000,0.001145724075
712.000000,0.001008754892
713.000000,0.001091337441
714.000000,0.001378160586
715.000000,0.0009256590531
716.000000,0.001505272026
717.000000,0.001496606055
718.000000,0.0007789300256
719.000000,0.001094379186
720.000000,0.001192175195
721.000000,0.0009726057242
722.000000,0.0009777996216
723.000000,0.001079864195
724.000000,0.00127661382
725.000000,0.001028045315
726.000000,0.001497291847
727.000000,0.001191700505
728.000000,0.001115059788
729.000000,0.001427417792
730.000000,0.001264940801
731.000000,0.001215794669
732.000000,0.001078102947
733.000000,0.001509670345
734.000000,0.001311936426
735.000000,0.001111754352
736.000000,0.0008400366638
737.000000,0.001233292667
738.000000,0.0009333777928
739.000000,0.0008225703306
740.000000,0.001113787041
741.000000,0.001230008662
742.000000,0.001434563685
743.000000,0.001239184934
744.000000,0.001348819773
745.000000,0.0009476768391
746.000000,0.001193924962
747.000000,0.001229218992
748.000000,0.00138316825
749.000000,0.00124070321
750.000000,0.001385545131
751.000000,0.001131634448
752.000000,0.001312362043
753.000000,0.00133264328
754.000000,0.001009272325
755.000000,0.001304614417
756.000000,0.001216506243
757.000000,0.0009117061933
758.000000,0.001497113729
759.000000,0.001247035553
760.000000,0.001164087252
761.000000,0.00127557619
762.000000,0.00139662264
763.000000,0.001690151368
764.000000,0.001376815366
765.000000,0.001527995141
766.000000,0.001734091415
767.000000,0.001594614085
768.000000,0.001733182307
769.000000,0.00145920611
770.000000,0.001747745318
771.000000,0.001625569259
772.000000,0.001901009611
773.000000,0.00154059199
774.000000,0.001647845505
775.000000,0.002128525146
776.000000,0.001916732424
777.000000,0.001977420259
778.000000,0.002172490039
779.000000,0.002144337974
780.000000,0.002695143488
781.000000,0.002351427176
782.000000,0.002775610784
783.000000,0.003119127169
784.000000,0.003321951132
785.000000,0.003536565034
786.000000,0.00395333225
787.000000,0.004735295672
788.000000,0.005079551065
789.000000,0.006179744306
790.000000,0.006647454642
791.000000,0.007862880964
792.000000,0.009058224048
793.000000,0.009800701144
794.000000,0.01091143865
795.000000,0.01104778074
796.000000,0.01057419181
797.000000,0.009748094077
798.000000,0.008738955376
799.000000,0.00798556514
800.000000,0.006722769617
801.000000,0.005779741968
802.000000,0.005241995181
803.000000,0.005108681534
804.000000,0.004185854621
805.000000,0.003853315022
806.000000,0.003389465666
807.000000,0.003210787767
808.000000,0.00254194123
809.000000,0.002520360371
810.000000,0.002486603603
811.000000,0.002284608208
812.000000,0.002124907678
813.000000,0.001922745422
814.000000,0.001911359201
815.000000,0.00172740514
816.000000,0.001327236563
817.000000,0.001510629575
818.000000,0.00178986762
819.000000,0.001957573136
820.000000,0.001965629144
821.000000,0.00158362186
822.000000,0.00170829665
823.000000,0.001680038324
824.000000,0.00133185212
825.000000,0.001105245131
826.000000,0.001427891396
827.000000,0.001048235141
828.000000,0.00131749799
829.000000,0.001485561317
830.000000,0.001063848359
831.000000,0.001339563642
832.000000,0.001567535265
833.000000,0.001379329232
834.000000,0.00139995152
835.000000,0.001466170495
836.000000,0.001621544944
837.000000,0.001296090502
838.000000,0.001503220071
839.000000,0.001236604199
840.000000,0.001132876222
841.000000,0.001298254839
842.000000,0.001107776992
843.000000,0.001108394495
844.000000,0.001095952051
845.000000,0.0007532646252
846.000000,0.001228641307
847.000000,0.0009502846759
848.000000,0.001177404621
849.000000,0.001484935238
850.000000,0.001087082568
851.000000,0.001079463454
852.000000,0.001457456155
853.000000,0.001290956908
854.000000,0.001374222461
855.000000,0.001105268283
856.000000,0.001323530224
857.000000,0.001034434715
858.000000,0.001034381778
859.000000,0.001286895274
860.000000,0.001046179115
861.000000,0.001317620863
862.000000,0.001641007137
863.000000,0.0008240365758
864.000000,0.001009541415
865.000000,0.001382840099
866.000000,0.001128732574
867.000000,0.001389008078
868.000000,0.0009539198286
869.000000,0.001221441209
870.000000,0.00112439465
871.000000,0.001182004459
872.000000,0.001219666049
873.000000,0.0009090397422
874.000000,0.0009378950616
875.000000,0.001432334227
876.000000,0.001210970509
877.000000,0.001173517186
878.000000,0.001143429461
879.000000,0.001223624416
880.000000,0.0009212739578
881.000000,0.0009528741206
882.000000,0.001413871572
883.000000,0.001183586663
884.000000,0.001323824298
885.000000,0.00103313422
886.000000,0.001430185104
887.000000,0.00122453867
888.000000,0.001252445041
889.000000,0.001266724661
890.000000,0.0009984301098
891.000000,0.0007856115445
892.000000,0.0009447900067
893.000000,0.001486921589
894.000000,0.001422092659
895.000000,0.001093783648
896.000000,0.001104118887
897.000000,0.001373136826
898.000000,0.001133571665
899.000000,0.0009089175033
900.000000,0.001423473275
901.000000,0.001267476526
902.000000,0.0006705317778
903.000000,0.001113005295
904.000000,0.001206307722
905.000000,0.00127584243
906.000000,0.001212134122
907.000000,0.001056760372
908.000000,0.001163058577
909.000000,0.001247571884
910.000000,0.001137515395
911.000000,0.00111934681
912.000000,0.001446864452
913.000000,0.001009960666
914.000000,0.00113234199
915.000000,0.0007990556897
916.000000,0.001316705289
917.000000,0.001377497964
918.000000,0.001325013484
919.000000,0.001402464577
920.000000,0.001310834323
921.000000,0.001295114289
922.000000,0.001325481038
923.000000,0.001181479817
924.000000,0.001477034197
925.000000,0.001174266873
926.000000,0.0009563179686
927.000000,0.00142375602
928.000000,0.0016291648
929.000000,0.001072443804
930.000000,0.001249834024
931.000000,0.001139006937
932.000000,0.001206175975
933.000000,0.001297985004
934.000000,0.001047170371
935.000000,0.001247075365
936.000000,0.001016812826
937.000000,0.001204106299
938.000000,0.001088649396
939.000000,0.001122550965
940.000000,0.0009992931286
941.000000,0.001596496809
942.000000,0.001464255063
943.000000,0.0009892651825
944.000000,0.001264237917
945.000000,0.001260928094
946.000000,0.001268845777
947.000000,0.00113032617
948.000000,0.001583944836
949.000000,0.001368007819
950.000000,0.001555727795
951.000000,0.001583233195
952.000000,0.001769689993
953.000000,0.001149355484
954.000000,0.001878872632
955.000000,0.001804922825
956.000000,0.001687067916
957.000000,0.002071869012
958.000000,0.001660369547
959.000000,0.00180956163
960.000000,0.001525302149
961.000000,0.001929580427
962.000000,0.001768203331
963.000000,0.001678758757
964.000000,0.002229435145
965.000000,0.001785115291
966.000000,0.001891187414
967.000000,0.001896991936
968.000000,0.001836477153
969.000000,0.002149665104
970.000000,0.002252113353
971.000000,0.002242230182
972.000000,0.001772865566
973.000000,0.002527845786
974.000000,0.002346213081
975.000000,0.002273079377
976.000000,0.002748732039
977.000000,0.002865929135
978.000000,0.00268588904
979.000000,0.003548820909
980.000000,0.002994406659
981.000000,0.00309823118
982.000000,0.00345444316
983.000000,0.004248742129
984.000000,0.00425645388
985.000000,0.004603544527
986.000000,0.005126372468
987.000000,0.005575235898
988.000000,0.00623491916
989.000000,0.007084268838
990.000000,0.008409169906
991.000000,0.009820889707
992.000000,0.01116549772
993.000000,0.01377103373
994.000000,0.01708865548
995.000000,0.02121838065
996.000000,0.02782755375
997.000000,0.0372746125
998.000000,0.05125100566
999.000000,0.07078985688
1000.000000,0.09142383259
1001.000000,0.101732845
1002.000000,0.09163995092
1003.000000,0.07100251966
1004.000000,0.05167894351
1005.000000,0.03766408902
1006.000000,0.02830361453
1007.000000,0.02191766666
1008.000000,0.01737094494
1009.000000,0.0144954263
1010.000000,0.0123292929
1011.000000,0.01058164741
1012.000000,0.009689618911
1013.000000,0.008331705905
1014.000000,0.007914198422
1015.000000,0.007272814104
1016.000000,0.007108331682
1017.000000,0.006747810121
1018.000000,0.007129105779
1019.000000,0.00707838304
1020.000000,0.007580080018
1021.000000,0.007579193126
1022.000000,0.008467506178
1023.000000,0.009443757228
1024.000000,0.01101604459
1025.000000,0.01311313197
1026.000000,0.01625793086
1027.000000,0.02057363999
1028.000000,0.02647435398
1029.000000,0.03373709266
1030.000000,0.04097869182
1031.000000,0.04421789521
1032.000000,0.04063073288
1033.000000,0.03358663338
1034.000000,0.02607080855
1035.000000,0.02013330961
1036.000000,0.01558390679
1037.000000,0.01240555702
1038.000000,0.009911298568
1039.000000,0.008428277453
1040.000000,0.006978878477
1041.000000,0.006304229851
1042.000000,0.005431919795
1043.000000,0.004867898865
1044.000000,0.004204962408
1045.000000,0.004154946262
1046.000000,0.003811133569
1047.000000,0.003576148198
1048.000000,0.003622212227
1049.000000,0.002972567335
1050.000000,0.003057208218
1051.000000,0.002647442249
1052.000000,0.002625092827
1053.000000,0.002508758995
1054.000000,0.002390942974
1055.000000,0.002382961865
1056.000000,0.002113161974
1057.000000,0.002112812494
1058.000000,0.00214931513
1059.000000,0.002335494975
1060.000000,0.00176640726
1061.000000,0.00152724811
1062.000000,0.001749350517
1063.000000,0.001825478435
1064.000000,0.001807046873
1065.000000,0.00175794389
1066.000000,0.001946100253
1067.000000,0.001877128909
1068.000000,0.001646551723
1069.000000,0.001538894744
1070.000000,0.00154174065
1071.000000,0.001519406737
1072.000000,0.001526724958
1073.000000,0.001239824815
1074.000000,0.001445883666
1075.000000,0.001437985207
1076.000000,0.001471102964
1077.000000,0.001444910219
1078.000000,0.001617969039
1079.000000,0.001365822429
1080.000000,0.001373931299
1081.000000,0.001560214318
1082.000000,0.001395644061
1083.000000,0.001477540432
1084.000000,0.001560286415
1085.000000,0.001503579338
1086.000000,0.001462552895
1087.000000,0.001367111398
1088.000000,0.001537180572
1089.000000,0.001430817585
1090.000000,0.001290130251
1091.000000,0.001356805428
1092.000000,0.001139669243
1093.000000,0.001187763424
1094.000000,0.001000716473
1095.000000,0.001238973546
1096.000000,0.001640165219
1097.000000,0.001260287498
1098.000000,0.00152805559
1099.000000,0.00136925485
1100.000000,0.001229671925
1101.000000,0.001637720285
1102.000000,0.001487242617
1103.000000,0.001021643638
1104.000000,0.00158196506
1105.000000,0.001160901721
1106.000000,0.001342965972
1107.000000,0.001515395435
1108.000000,0.001325586653
1109.000000,0.001613720201
1110.000000,0.00154718098
1111.000000,0.001085210446
1112.000000,0.001312459504
1113.000000,0.001470474005
1114.000000,0.001306979893
1115.000000,0.00138751489
1116.000000,0.001600459169
1117.000000,0.001514612862
1118.000000,0.001279001817
1119.000000,0.001511135671
1120.000000,0.00136818917
1121.000000,0.001263510954
1122.000000,0.00129808044
1123.000000,0.001600843133
1124.000000,0.001559218858
1125.000000,0.001589591535
1126.000000,0.001385486286
1127.000000,0.001607058433
1128.000000,0.001468813082
1129.000000,0.001527120103
1130.000000,0.001719826905
1131.000000,0.001521586933
1132.000000,0.001983281545
1133.000000,0.002404674368
1134.000000,0.002064802925
1135.000000,0.001839496094
1136.000000,0.002079938963
1137.000000,0.001922443699
1138.000000,0.002273374888
1139.000000,0.002585229466
1140.000000,0.002760473227
1141.000000,0.002624788262
1142.000000,0.00311669699
1143.000000,0.003560880665
1144.000000,0.00401330134
1145.000000,0.003931929931
1146.000000,0.004408901979
1147.000000,0.005231861465
1148.000000,0.005441899865
1149.000000,0.006939630623
1150.000000,0.008265341147
1151.000000,0.009776841985
1152.000000,0.01132338805
1153.000000,0.01338132127
1154.000000,0.01468480286
1155.000000,0.01554913487
1156.000000,0.0146967404
1157.000000,0.01345518403
1158.000000,0.01171692623
1159.000000,0.01014959376
1160.000000,0.008024355911
1161.000000,0.007241788375
1162.000000,0.006497996271
1163.000000,0.005527217551
1164.000000,0.004721868899
1165.000000,0.004658462057
1166.000000,0.004336915762
1167.000000,0.003982396081
1168.000000,0.003648161765
1169.000000,0.003643784887
1170.000000,0.003705129924
1171.000000,0.003633134069
1172.000000,0.00353359254
1173.000000,0.003951825693
1174.000000,0.004375833072
1175.000000,0.004687269824
1176.000000,0.005325311008
1177.000000,0.006104143927
1178.000000,0.007260515521
1179.000000,0.008805331426
1180.000000,0.0100707685
1181.000000,0.0113168149
1182.000000,0.01244540074
1183.000000,0.01349058702
1184.000000,0.01293012976
1185.000000,0.01124258967
1186.000000,0.009792614113
1187.000000,0.007958847377
1188.000000,0.006839620354
1189.000000,0.005625605827
1190.000000,0.004942492235
1191.000000,0.003874194105
1192.000000,0.003636637645
1193.000000,0.003302239289
1194.000000,0.00273434742
1195.000000,0.003143558773
1196.000000,0.00245296069
1197.000000,0.002668971747
1198.000000,0.002116067953
1199.000000,0.00208318461
1200.000000,0.002264070111
1201.000000,0.002000643592
1202.000000,0.001902722506
1203.000000,0.001851713128
1204.000000,0.001467648338
1205.000000,0.001612158224
1206.000000,0.001453745901
1207.000000,0.001644401392
1208.000000,0.001460215273
1209.000000,0.001527929608
1210.000000,0.001492155391
1211.000000,0.001473952744
1212.000000,0.001450289218
1213.000000,0.001304884422
1214.000000,0.001204544043
1215.000000,0.00126411011
1216.000000,0.001594396571
1217.000000,0.001439342767
1218.000000,0.00146750089
1219.000000,0.001612762166
1220.000000,0.00108849681
1221.000000,0.0014148525
1222.000000,0.001087110611
1223.000000,0.00122523583
1224.000000,0.001379577877
1225.000000,0.001596821254
1226.000000,0.001109286377
1227.000000,0.001239027557
1228.000000,0.001481961905
1229.000000,0.0009459050077
1230.000000,0.001309833269
1231.000000,0.001169661831
1232.000000,0.001049221493
1233.000000,0.001249441924
1234.000000,0.001333946633
1235.000000,0.001027657776
1236.000000,0.001281444401
1237.000000,0.001235725049
1238.000000,0.000948513734
1239.000000,0.001503591155
1240.000000,0.001407115386
1241.000000,0.001013558123
1242.000000,0.001064797463
1243.000000,0.001333021432
1244.000000,0.001076669699
1245.000000,0.0008048537786
1246.000000,0.001379747903
1247.000000,0.001169030435
1248.000000,0.001546103971
1249.000000,0.001233732359
1250.000000,0.001198087401
1251.000000,0.001732543286
1252.000000,0.001121123251
1253.000000,0.0009630816077
1254.000000,0.001197322489
1255.000000,0.00137675797
1256.000000,0.0009147891639
1257.000000,0.0009644448709
1258.000000,0.00123441313
1259.000000,0.0005034204006
1260.000000,0.0009228544992
1261.000000,0.001299053999
1262.000000,0.001021239737
1263.000000,0.0008119827654
1264.000000,0.001521143225
1265.000000,0.0008527300263
1266.000000,0.001029025741
1267.000000,0.001058067058
1268.000000,0.001148207657
1269.000000,0.001056692377
1270.000000,0.001113462668
1271.000000,0.001140262991
1272.000000,0.001110581896
1273.000000,0.001145768444
1274.000000,0.0006505671698
1275.000000,0.001213844842
1276.000000,0.0008440600166
1277.000000,0.0006909805278
1278.000000,0.00139997533
1279.000000,0.0008660357407
1280.000000,0.001158581736
1281.000000,0.0009676000001
1282.000000,0.0009859579488
1283.000000,0.001217954847
1284.000000,0.0009111847515
1285.000000,0.001195002984
1286.000000,0.001196276976
1287.000000,0.001352729852
1288.000000,0.00105233036
1289.000000,0.001328652685
1290.000000,0.001463268487
1291.000000,0.001436289014
1292.000000,0.001236020319
1293.000000,0.001208519556
1294.000000,0.001688487514
1295.000000,0.00156497041
1296.000000,0.000965178758
1297.000000,0.001303219131
1298.000000,0.001238912234
1299.000000,0.001133024769
1300.000000,0.001149312349
1301.000000,0.001216313175
1302.000000,0.001306361717
1303.000000,0.001162805449
1304.000000,0.00118719927
1305.000000,0.001397885272
1306.000000,0.001183245632
1307.000000,0.001228978236
1308.000000,0.001318319812
1309.000000,0.00144725437
1310.000000,0.001366366375
1311.000000,0.001196785888
1312.000000,0.001163319326
1313.000000,0.0008774777383
1314.000000,0.001181082342
1315.000000,0.0009157367298
1316.000000,0.0009188934478
1317.000000,0.001254363948
1318.000000,0.001104738122
1319.000000,0.001219917852
1320.000000,0.001000737178
1321.000000,0.001367056401
1322.000000,0.001156288306
1323.000000,0.001365830839
1324.000000,0.001263758202
1325.000000,0.001162939101
1326.000000,0.001035037927
1327.000000,0.001137934678
1328.000000,0.001298161397
1329.000000,0.00127305416
1330.000000,0.0008954070056
1331.000000,0.00134070056
1332.000000,0.001093862592
1333.000000,0.001300817749
1334.000000,0.00099943
1335.000000,0.001267704261
1336.000000,0.0009820644215
1337.000000,0.001168548998
1338.000000,0.001084413003
1339.000000,0.001088293605
1340.000000,0.001033529036
1341.000000,0.001117619707
1342.000000,0.000801749842
1343.000000,0.0013267918
1344.000000,0.001345459787
1345.000000,0.001066275616
1346.000000,0.0008806465752
1347.000000,0.001029083921
1348.000000,0.001349840158
1349.000000,0.001287378391
1350.000000,0.001104228194
1351.000000,0.001345848681
1352.000000,0.0009602650881
1353.000000,0.001048276869
1354.000000,0.00126804669
1355.000000,0.001156344871
1356.000000,0.001060169028
1357.000000,0.0006781629039
1358.000000,0.001317497149
1359.000000,0.001250758521
1360.000000,0.0008402887148
1361.000000,0.00131190021
1362.000000,0.001192031444
1363.000000,0.001253852116
1364.000000,0.001390421489
1365.000000,0.001056825067
1366.000000,0.001351062222
1367.000000,0.001348800337
1368.000000,0.001368152121
1369.000000,0.001547005475
1370.000000,0.001355679461
1371.000000,0.001115899337
1372.000000,0.00159233422
1373.000000,0.001015817716
1374.000000,0.001149543739
1375.000000,0.001054197589
1376.000000,0.001231747422
1377.000000,0.001474167286
1378.000000,0.001522931832
1379.000000,0.00136196907
1380.000000,0.001153531298
1381.000000,0.001171096484
1382.000000,0.001167874859
1383.000000,0.001486074436
1384.000000,0.001121506937
1385.000000,0.001483363739
1386.000000,0.001311938872
1387.000000,0.001361244553
1388.000000,0.001637955781
1389.000000,0.001249749752
1390.000000,0.001686821067
1391.000000,0.001082727908
1392.000000,0.001210325579
1393.000000,0.001070811972
1394.000000,0.00124893622
1395.000000,0.001527303524
1396.000000,0.001571385118
1397.000000,0.001499033971
1398.000000,0.001505718677
1399.000000,0.001233097582
1400.000000,0.00121876595
1401.000000,0.001562258099
1402.000000,0.001789446749
1403.000000,0.001466608299
1404.000000,0.001306514175
1405.000000,0.001275708421
1406.000000,0.001469838438
1407.000000,0.001947079128
1408.000000,0.001616567822
1409.000000,0.001479379737
1410.000000,0.001596017255
1411.000000,0.001654441087
1412.000000,0.001840037988
1413.000000,0.0016934642
1414.000000,0.001689113165
1415.000000,0.001874546562
1416.000000,0.002054727932
1417.000000,0.002157474779
1418.000000,0.002181968665
1419.000000,0.002043452576
1420.000000,0.001864975853
1421.000000,0.002120035758
1422.000000,0.002419892372
1423.000000,0.002188302211
1424.000000,0.002607323776
1425.000000,0.002551804691
1426.000000,0.002679262521
1427.000000,0.003160362807
1428.000000,0.003138196776
1429.000000,0.003546526839
1430.000000,0.003286068322
1431.000000,0.003929010331
1432.000000,0.004146069652
1433.000000,0.003665114931
1434.000000,0.004592145899
1435.000000,0.005318747224
1436.000000,0.005632244067
1437.000000,0.005933974504
1438.000000,0.006616886328
1439.000000,0.007159202386
1440.000000,0.008355493293
1441.000000,0.009013725233
1442.000000,0.01041754721
1443.000000,0.01230536954
1444.000000,0.01376054567
1445.000000,0.01557797559
1446.000000,0.01764733276
1447.000000,0.02021931102
1448.000000,0.02163223116
1449.000000,0.02249130862
1450.000000,0.02342067375
1451.000000,0.0226304732
1452.000000,0.02157672866
1453.000000,0.01955899655
1454.000000,0.01748813632
1455.000000,0.01582004255
1456.000000,0.01362169296
1457.000000,0.01193790397
1458.000000,0.01081463369
1459.000000,0.009156240712
1460.000000,0.008048526304
1461.000000,0.00754882363
1462.000000,0.006293340286
1463.000000,0.005895651553
1464.000000,0.005429162486
1465.000000,0.004768817959
1466.000000,0.0044158349
1467.000000,0.004428758392
1468.000000,0.004056188653
1469.000000,0.003549162633
1470.000000,0.003617280902
1471.000000,0.003615843361
1472.000000,0.002879552656
1473.000000,0.002992400713
1474.000000,0.003236845819
1475.000000,0.002840015772
1476.000000,0.002769657864
1477.000000,0.002467411745
1478.000000,0.002258165417
1479.000000,0.002565403341
1480.000000,0.002394075063
1481.000000,0.002186377869
1482.000000,0.002042962448
1483.000000,0.001731172382
1484.000000,0.002061360181
1485.000000,0.001845578141
1486.000000,0.001915141135
1487.000000,0.002036770769
1488.000000,0.002030781188
1489.000000,0.001977635452
1490.000000,0.002254494973
1491.000000,0.002008517091
1492.000000,0.001600451402
1493.000000,0.001562163079
1494.000000,0.002169432857
1495.000000,0.001550796843
1496.000000,0.001655846954
1497.000000,0.001996296244
1498.000000,0.0019743742
1499.000000,0.001605615692
1500.000000,0.00165132393
1501.000000,0.00126339487
1502.000000,0.001397250191
1503.000000,0.001495333433
1504.000000,0.00155762713
1505.000000,0.001485329523
1506.000000,0.001572504418
1507.000000,0.001973417055
1508.000000,0.001621320961
1509.000000,0.001584484811
1510.000000,0.001518086992
1511.000000,0.001478982844
1512.000000,0.001756239867
1513.000000,0.001308311737
1514.000000,0.001478973007
1515.000000,0.001283058115
1516.000000,0.001518354385
1517.000000,0.001524036537
1518.000000,0.001684204237
1519.000000,0.001740087786
1520.000000,0.001634196858
1521.000000,0.001827642639
1522.000000,0.001823081071
1523.000000,0.001571231598
1524.000000,0.001586207868
1525.000000,0.001128271887
1526.000000,0.001584192205
1527.000000,0.001524383462
1528.000000,0.001193623972
1529.000000,0.001451653331
1530.000000,0.001736735689
1531.000000,0.001305559338
1532.000000,0.001820744662
1533.000000,0.001666769604
1534.000000,0.001536645277
1535.000000,0.001565276238
1536.000000,0.001772104938
1537.000000,0.00133323705
1538.000000,0.002042149667
1539.000000,0.001486953821
1540.000000,0.001513463297
1541.000000,0.001928889953
1542.000000,0.001862400617
1543.000000,0.001990675513
1544.000000,0.001957683433
1545.000000,0.001848485415
1546.000000,0.001544641803
1547.000000,0.001734242134
1548.000000,0.001899778815
1549.000000,0.001890563366
1550.000000,0.001520252357
1551.000000,0.002179710006
1552.000000,0.002360645003
1553.000000,0.002354801297
1554.000000,0.001910429005
1555.000000,0.00225821723
1556.000000,0.001808394761
1557.000000,0.002640770402
1558.000000,0.001991154935
1559.000000,0.002545941039
1560.000000,0.002790667107
1561.000000,0.002921839854
1562.000000,0.002850730937
1563.000000,0.002630326452
1564.000000,0.00304662449
1565.000000,0.003185853498
1566.000000,0.003511305948
1567.000000,0.003864052309
1568.000000,0.004065255688
1569.000000,0.004669611455
1570.000000,0.004747191203
1571.000000,0.004978724011
1572.000000,0.005914946678
1573.000000,0.006174742845
1574.000000,0.007092302625
1575.000000,0.008063479412
1576.000000,0.008808319498
1577.000000,0.01087525616
1578.000000,0.0128080834
1579.000000,0.01504683902
1580.000000,0.01773407776
1581.000000,0.0202266306
1582.000000,0.02270235375
1583.000000,0.02400140544
1584.000000,0.02318154781
1585.000000,0.02145708353
1586.000000,0.01929817017
1587.000000,0.01778062024
1588.000000,0.0154732365
1589.000000,0.01479207299
1590.000000,0.01404241571
1591.000000,0.01430560325
1592.000000,0.01459273923
1593.000000,0.01527014773
1594.000000,0.01657661288
1595.000000,0.01956555237
1596.000000,0.02300462914
1597.000000,0.02729464874
1598.000000,0.03420641038
1599.000000,0.04235588331
1600.000000,0.05209312253
1601.000000,0.06051908673
1602.000000,0.06453661342
1603.000000,0.06063769736
1604.000000,0.05182529745
1605.000000,0.0420056372
1606.000000,0.03308847507
1607.000000,0.02619561446
1608.000000,0.02104706271
1609.000000,0.01681237632
1610.000000,0.014106164
1611.000000,0.01165297741
1612.000000,0.009997948641
1613.000000,0.008811363869
1614.000000,0.007967267697
1615.000000,0.007297729285
1616.000000,0.005957817532
1617.000000,0.005620503106
1618.000000,0.005078676164
1619.000000,0.004781729937
1620.000000,0.004437663025
1621.000000,0.004088544625
1622.000000,0.003558535205
1623.000000,0.003600799898
1624.000000,0.003498604384
1625.000000,0.003039615678
1626.000000,0.003380318051
1627.000000,0.002797354313
1628.000000,0.002592028874
1629.000000,0.00266532355
1630.000000,0.002452866614
1631.000000,0.002138955439
1632.000000,0.002323632735
1633.000000,0.00257192825
1634.000000,0.002583797746
1635.000000,0.002006220422
1636.000000,0.002242212263
1637.000000,0.002033826873
1638.000000,0.002014413674
1639.000000,0.002165156109
1640.000000,0.002039502742
1641.000000,0.001860395845
1642.000000,0.001606977116
1643.000000,0.001533622098
1644.000000,0.001713580788
1645.000000,0.001761147608
1646.000000,0.001768996326
1647.000000,0.001798430184
1648.000000,0.001813222415
1649.000000,0.001113425631
1650.000000,0.001752815646
1651.000000,0.001341971409
1652.000000,0.001754760531
1653.000000,0.001580828509
1654.000000,0.001622153763
1655.000000,0.001371317477
1656.000000,0.001520347981
1657.000000,0.001075485736
1658.000000,0.001653829753
1659.000000,0.001355157214
1660.000000,0.0008907005573
1661.000000,0.001608610539
1662.000000,0.00172003309
1663.000000,0.001198349008
1664.000000,0.00160551297
1665.000000,0.001202885435
1666.000000,0.0008898395664
1667.000000,0.00126228823
1668.000000,0.001390209015
1669.000000,0.001343176723
1670.000000,0.001329020004
1671.000000,0.001359748848
1672.000000,0.001336251334
1673.000000,0.001242503849
1674.000000,0.001158486359
1675.000000,0.001218918856
1676.000000,0.001195312568
1677.000000,0.00119886954
1678.000000,0.001032897358
1679.000000,0.001139218953
1680.000000,0.001258638158
1681.000000,0.001298727231
1682.000000,0.001218874354
1683.000000,0.001189962296
1684.000000,0.001328767615
1685.000000,0.001380116221
1686.000000,0.001348737502
1687.000000,0.0008583860488
1688.000000,0.001113073988
1689.000000,0.00134120772
1690.000000,0.001299206912
1691.000000,0.001328263564
1692.000000,0.001251463891
1693.000000,0.001014291597
1694.000000,0.001426025781
1695.000000,0.0009062131367
1696.000000,0.001372000422
1697.000000,0.001168387713
1698.000000,0.0008740379012
1699.000000,0.001086331519
1700.000000,0.00140339326
1701.000000,0.001042124045
1702.000000,0.0009149240991
1703.000000,0.001096602494
1704.000000,0.0009881344862
1705.000000,0.0008990886764
1706.000000,0.001234243121
1707.000000,0.001303962188
1708.000000,0.001031636522
1709.000000,0.001244423162
1710.000000,0.001060067506
1711.000000,0.001115360937
1712.000000,0.001157869675
1713.000000,0.00142978404
1714.000000,0.00123062817
1715.000000,0.0009273320569
1716.000000,0.001228406388
1717.000000,0.001079134761
1718.000000,0.001028276715
1719.000000,0.0009518159747
1720.000000,0.001112777326
1721.000000,0.00110430438
1722.000000,0.001034234964
1723.000000,0.0008348203968
1724.000000,0.0007700305177
1725.000000,0.001135512538
1726.000000,0.001144041721
1727.000000,0.001543545061
1728.000000,0.001069737692
1729.000000,0.001308337533
1730.000000,0.001341706405
1731.000000,0.001089094879
1732.000000,0.001115339763
1733.000000,0.001012710079
1734.000000,0.001452437063
1735.000000,0.0007944715412
1736.000000,0.001087007115
1737.000000,0.00137056421
1738.000000,0.001071031069
1739.000000,0.0009772305888
1740.000000,0.001136868515
1741.000000,0.001194585757
1742.000000,0.001201594603
1743.000000,0.001143373572
1744.000000,0.001236022578
1745.000000,0.001274123993
1746.000000,0.0008626060845
1747.000000,0.001007222138
1748.000000,0.001255975065
1749.000000,0.001178815088
1750.000000,0.001127082914
1751.000000,0.001213747564
1752.000000,0.001268788077
1753.000000,0.0009058697
1754.000000,0.0008312278436
1755.000000,0.0008450334904
1756.000000,0.001446672729
1757.000000,0.0008632342055
1758.000000,0.001026400454
1759.000000,0.001035433375
1760.000000,0.001277965886
1761.000000,0.0007233277899
1762.000000,0.001062389548
1763.000000,0.00131238476
1764.000000,0.001291763366
1765.000000,0.001149934271
1766.000000,0.00101518437
1767.000000,0.001418220778
1768.000000,0.000731617877
1769.000000,0.001261538659
1770.000000,0.001166322292
1771.000000,0.001182249739
1772.000000,0.001116570201
1773.000000,0.001103820612
1774.000000,0.001248328224
1775.000000,0.0008309573886
1776.000000,0.0008116611481
1777.000000,0.001092876641
1778.000000,0.001070239677
1779.000000,0.001091973951
1780.000000,0.001376769602
1781.000000,0.0009422707266
1782.000000,0.001207854269
1783.000000,0.00113394613
1784.000000,0.001529843128
1785.000000,0.0007755751978
1786.000000,0.0009463006463
1787.000000,0.000963641111
1788.000000,0.001318624099
1789.000000,0.0008900314146
1790.000000,0.0013851224
1791.000000,0.001372681056
1792.000000,0.001225714302
1793.000000,0.001139606011
1794.000000,0.0007404407171
1795.000000,0.001087658203
1796.000000,0.0007646521884
1797.000000,0.0009778256108
1798.000000,0.001090541437
1799.000000,0.000987723333
1800.000000,0.001239240858
1801.000000,0.001022832324
1802.000000,0.0007385445192
1803.000000,0.0008358484126
1804.000000,0.0007926824575
1805.000000,0.0009837876213
1806.000000,0.001296205416
1807.000000,0.001147457494
1808.000000,0.001113835017
1809.000000,0.0007884865914
1810.000000,0.001519030208
1811.000000,0.001039184106
1812.000000,0.001527863222
1813.000000,0.0008706449161
1814.000000,0.0009302129122
1815.000000,0.001563371916
1816.000000,0.0008281025626
1817.000000,0.001126508517
1818.000000,0.000974796474
1819.000000,0.0008794293454
1820.000000,0.001474006055
1821.000000,0.0008406462179
1822.000000,0.001220645622
1823.000000,0.001261711171
1824.000000,0.0008381821606
1825.000000,0.0006607949019
1826.000000,0.0006838131349
1827.000000,0.0008797291604
1828.000000,0.001083887053
1829.000000,0.001106154279
1830.000000,0.001000971683
1831.000000,0.001017438181
1832.000000,0.001233030771
1833.000000,0.001191576944
1834.000000,0.001113425437
1835.000000,0.0009140125568
1836.000000,0.001192655018
1837.000000,0.001073119924
1838.000000,0.0008870514827
1839.000000,0.0009209828092
1840.000000,0.001281837912
1841.000000,0.001404933986
1842.000000,0.0009296642936
1843.000000,0.0006197508256
1844.000000,0.001152614743
1845.000000,0.0008542296632
1846.000000,0.001181144733
1847.000000,0.0009592191223
1848.000000,0.001480098315
1849.000000,0.001056398087
1850.000000,0.00121429238
1851.000000,0.0007904869987
1852.000000,0.0004694173761
1853.000000,0.001060122184
1854.000000,0.001085231219
1855.000000,0.001176683476
1856.000000,0.0009216484814
1857.000000,0.0007738325355
1858.000000,0.0007118928344
1859.000000,0.001142413942
1860.000000,0.00117363994
1861.000000,0.0008562281985
1862.000000,0.000925573134
1863.000000,0.0008853452179
1864.000000,0.0006517450834
1865.000000,0.001070415972
1866.000000,0.001199604312
1867.000000,0.0009855413266
1868.000000,0.0007455289013
1869.000000,0.0009901729659
1870.000000,0.001302537722
1871.000000,0.001455452073
1872.000000,0.001083109775
1873.000000,0.0008713234125
1874.000000,0.0006318195582
1875.000000,0.0007195722001
1876.000000,0.001010808391
1877.000000,0.001073567159
1878.000000,0.001079571897
1879.000000,0.0009754799024
1880.000000,0.0007192640813
1881.000000,0.0007124520244
1882.000000,0.001057044371
1883.000000,0.0008625037692
1884.000000,0.00128822384
1885.000000,0.000735315085
1886.000000,0.001364359623
1887.000000,0.0008934846839
1888.000000,0.001071267062
1889.000000,0.001071108431
1890.000000,0.0009575227401
1891.000000,0.0006234772905
1892.000000,0.0009295457777
1893.000000,0.001330369258
1894.000000,0.0007695722792
1895.000000,0.000657164154
1896.000000,0.0009816676505
1897.000000,0.0009428226039
1898.000000,0.0007665906169
1899.000000,0.0008745046453
1900.000000,0.000928664844
1901.000000,0.0009421684773
1902.000000,0.001057162066
1903.000000,0.001165805089
1904.000000,0.00110175375
1905.000000,0.001092556023
1906.000000,0.001360103537
1907.000000,0.00124300541
1908.000000,0.000441247688
1909.000000,0.0009510554251
1910.000000,0.0007082509386
1911.000000,0.0008856079613
1912.000000,0.001177525386
1913.000000,0.0009829498156
1914.000000,0.000937386671
1915.000000,0.001286337356
1916.000000,0.0007220670199
1917.000000,0.001003940315
1918.000000,0.001132336541
1919.000000,0.001027294289
1920.000000,0.0007896958687
1921.000000,0.001017721934
1922.000000,0.001183623378
1923.000000,0.001093457384
1924.000000,0.001085433059
1925.000000,0.001083272694
1926.000000,0.001048710658
1927.000000,0.000773310298
1928.000000,0.0009596330572
1929.000000,0.001107512956
1930.000000,0.0003983363765
1931.000000,0.001172567477
1932.000000,0.0010885113
1933.000000,0.0008040858376
1934.000000,0.00087154797
1935.000000,0.00097994677
1936.000000,0.00110329988
1937.000000,0.0009457062291
1938.000000,0.001253811652
1939.000000,0.001102936418
1940.000000,0.0008628980639
1941.000000,0.0009258777868
1942.000000,0.001065532688
1943.000000,0.001165594922
1944.000000,0.001155827314
1945.000000,0.001000210315
1946.000000,0.001049533656
1947.000000,0.001014520746
1948.000000,0.001183845967
1949.000000,0.0008221068181
1950.000000,0.001139832703
1951.000000,0.0006486926923
1952.000000,0.001109289726
1953.000000,0.001070236209
1954.000000,0.001018830002
1955.000000,0.0005922948212
1956.000000,0.001332074017
1957.000000,0.001198324602
1958.000000,0.001023645856
1959.000000,0.001110212113
1960.000000,0.0008305093087
1961.000000,0.001120756089
1962.000000,0.001330235228
1963.000000,0.0007825176359
1964.000000,0.001556603814
1965.000000,0.0009305846917
1966.000000,0.001183370821
1967.000000,0.0008525864425
1968.000000,0.001095809662
1969.000000,0.0007628611734
1970.000000,0.0008857713365
1971.000000,0.0009717763383
1972.000000,0.0008862496885
1973.000000,0.0009690507892
1974.000000,0.001212450678
1975.000000,0.0007617669279
1976.000000,0.0007779577439
1977.000000,0.00102644517
1978.000000,0.0009041208546
1979.000000,0.000816134971
1980.000000,0.001043217852
1981.000000,0.0009038649489
1982.000000,0.001083893894
1983.000000,0.001008641878
1984.000000,0.0009762794489
1985.000000,0.001002803469
1986.000000,0.001221029064
1987.000000,0.001279131885
1988.000000,0.0009843206135
1989.000000,0.0008101789182
1990.000000,0.0007138455434
1991.000000,0.0005693201315
1992.000000,0.0007807769325
1993.000000,0.0008454370007
1994.000000,0.001005327103
1995.000000,0.0006396601687
1996.000000,0.001301640341
1997.000000,0.001228347857
1998.000000,0.001264605823
1999.000000,0.0009129291858
2000.000000,0.001064243387
