raman_shift_cm-1,intensity
200.000000,0.01032467868
201.000000,0.009809229762
202.000000,0.01135450722
203.000000,0.01028368575
204.000000,0.009002771569
205.000000,0.01079752642
206.000000,0.0126825636
207.000000,0.01196895386
208.000000,0.008667551113
209.000000,0.00754440953
210.000000,0.008828935683
211.000000,0.01015836996
212.000000,0.005425891115
213.000000,0.009638605277
214.000000,0.00758460394
215.000000,0.008612129655
216.000000,0.008988386239
217.000000,0.009444545053
218.000000,0.01090064893
219.000000,0.01216265843
220.000000,0.009820807561
221.000000,0.01281105038
222.000000,0.008747982031
223.000000,0.01078164084
224.000000,0.01188581179
225.000000,0.01026714815
226.000000,0.008592378618
227.000000,0.008236181359
228.000000,0.009164436903
229.000000,0.01052053671
230.000000,0.008061169469
231.000000,0.00966231555
232.000000,0.009762479042
233.000000,0.01116288411
234.000000,0.01051077658
235.000000,0.01079247069
236.000000,0.00877433654
237.000000,0.009823036544
238.000000,0.01165048638
239.000000,0.01306967096
240.000000,0.007564952435
241.000000,0.0131112075
242.000000,0.01277538889
243.000000,0.01164654058
244.000000,0.01061311044
245.000000,0.009456636628
246.000000,0.0130008084
247.000000,0.01400557015
248.000000,0.01368861147
249.000000,0.01271583921
250.000000,0.01080068421
251.000000,0.007669579606
252.000000,0.01007760387
253.000000,0.01139975909
254.000000,0.007510385188
255.000000,0.01087765297
256.000000,0.01094743884
257.000000,0.01148010136
258.000000,0.007720086336
259.000000,0.008765225392
260.000000,0.009216070234
261.000000,0.00774964905
262.000000,0.01356830272
263.000000,0.00909806159
264.000000,0.01074814039
265.000000,0.00957337614
266.000000,0.01325778913
267.000000,0.01273188955
268.000000,0.0113581991
269.000000,0.005684802465
270.000000,0.01019621067
271.000000,0.01145985774
272.000000,0.0121007433
273.000000,0.008857343038
274.000000,0.01373751903
275.000000,0.007452975772
276.000000,0.00877112532
277.000000,0.01196462726
278.000000,0.01019298472
279.000000,0.01410001119
280.000000,0.01047261727
281.000000,0.008829545937
282.000000,0.009341164719
283.000000,0.007914359516
284.000000,0.007541653875
285.000000,0.0113582021
286.000000,0.01126007815
287.000000,0.01268723407
288.000000,0.008589277294
289.000000,0.01347707879
290.000000,0.009524466064
291.000000,0.01324843825
292.000000,0.00923443285
293.000000,0.008629423485
294.000000,0.01060034904
295.000000,0.01216407542
296.000000,0.01042358211
297.000000,0.008930901799
298.000000,0.007419919329
299.000000,0.007299720483
300.000000,0.01110853164
301.000000,0.01208299995
302.000000,0.009775395578
303.000000,0.007955668897
304.000000,0.01185089977
305.000000,0.007544447469
306.000000,0.00867952213
307.000000,0.01134812009
308.000000,0.005606231242
309.000000,0.01087968516
310.000000,0.00894409988
311.000000,0.01032637978
312.000000,0.009956859445
313.000000,0.01051293672
314.000000,0.01149750059
315.000000,0.0085928694
316.000000,0.01295202856
317.000000,0.01156271119
318.000000,0.01179845154
319.000000,0.01244118033
320.000000,0.01168709856
321.000000,0.01180055287
322.000000,0.0102640598
323.000000,0.007259805664
324.000000,0.009843747723
325.000000,0.008575297012
326.000000,0.00726933498
327.000000,0.01063222023
328.000000,0.008978715815
329.000000,0.008056709922
330.000000,0.008030824758
331.000000,0.01065417329
332.000000,0.01083519939
333.000000,0.01276329099
334.000000,0.01009107151
335.000000,0.01220310947
336.000000,0.01292449305
337.000000,0.01242083253
338.000000,0.005390435766
339.000000,0.01257895785
340.000000,0.01080138184
341.000000,0.01097024058
342.000000,0.01086571344
343.000000,0.01088933841
344.000000,0.01076322283
345.000000,0.009407142943
346.000000,0.006322279071
347.000000,0.009908305319
348.000000,0.008519261251
349.000000,0.01228764708
350.000000,0.009550387745
351.000000,0.01029547724
352.000000,0.008429925727
353.000000,0.009108509221
354.000000,0.01010731003
355.000000,0.007160253341
356.000000,0.01073300712
357.000000,0.009920131274
358.000000,0.007761480843
359.000000,0.005337105257
360.000000,0.01116033173
361.000000,0.009539721889
362.000000,0.00907554175
363.000000,0.00966392412
364.000000,0.01376986634
365.000000,0.01003799998
366.000000,0.01031153435
367.000000,0.007164850539
368.000000,0.01343438151
369.000000,0.01197539318
370.000000,0.01227500762
371.000000,0.01023721095
372.000000,0.0119759097
373.000000,0.01088523557
374.000000,0.01137046907
375.000000,0.009840461352
376.000000,0.007197835187
377.000000,0.01220409116
378.000000,0.006277242247
379.000000,0.009668075028
380.000000,0.009739698156
381.000000,0.008063825644
382.000000,0.01137660314
383.000000,0.00975051669
384.000000,0.009278267069
385.000000,0.01119252334
386.000000,0.009200526626
387.000000,0.01293249828
388.000000,0.01085831105
389.000000,0.009207606574
390.000000,0.006268623466
391.000000,0.007542537263
392.000000,0.01233260499
393.000000,0.01005864472
394.000000,0.009594521975
395.000000,0.01344820458
396.000000,0.007597342262
397.000000,0.008992274865
398.000000,0.009219375312
399.000000,0.01133819609
400.000000,0.008839432829
401.000000,0.008940660246
402.000000,0.006958201071
403.000000,0.01162821399
404.000000,0.0117828208
405.000000,0.009218827275
406.000000,0.01049931134
407.000000,0.007588402068
408.000000,0.009231143279
409.000000,0.01293175939
410.000000,0.0104484197
411.000000,0.01479879901
412.000000,0.008604813672
413.000000,0.01134090864
414.000000,0.009790482593
415.000000,0.01131429841
416.000000,0.01016942275
417.000000,0.00906264655
418.000000,0.008451021355
419.000000,0.01631955556
420.000000,0.01003403453
421.000000,0.006156661483
422.000000,0.00889405581
423.000000,0.01154862689
424.000000,0.009193837533
425.000000,0.01291607064
426.000000,0.01220131581
427.000000,0.009893200548
428.000000,0.009254822357
429.000000,0.008191046868
430.000000,0.008802129011
431.000000,0.0072572081
432.000000,0.0126137383
433.000000,0.01338781847
434.000000,0.007695632036
435.000000,0.007846054008
436.000000,0.006673928956
437.000000,0.008284798273
438.000000,0.004001408991
439.000000,0.007931122786
440.000000,0.01281113232
441.000000,0.009527600464
442.000000,0.01192978168
443.000000,0.009244366946
444.000000,0.01374535624
445.000000,0.01062419941
446.000000,0.009463526434
447.000000,0.01533417299
448.000000,0.009582202067
449.000000,0.007790547436
450.000000,0.01063869062
451.000000,0.01015910578
452.000000,0.01237135961
453.000000,0.008397407377
454.000000,0.01185210457
455.000000,0.01195019459
456.000000,0.008911382211
457.000000,0.0105753369
458.000000,0.008589470779
459.000000,0.01494475116
460.000000,0.008847051555
461.000000,0.009351413637
462.000000,0.008128155383
463.000000,0.009569895735
464.000000,0.01025273198
465.000000,0.01180244789
466.000000,0.009048322742
467.000000,0.009900216387
468.000000,0.007441296746
469.000000,0.008622026193
470.000000,0.01579104605
471.000000,0.01236456387
472.000000,0.00872192344
473.000000,0.007612719789
474.000000,0.008339141355
475.000000,0.01024976936
476.000000,0.01036550341
477.000000,0.008810277493
478.000000,0.007728856196
479.000000,0.01314982567
480.000000,0.01121156174
481.000000,0.00956223728
482.000000,0.009873295355
483.000000,0.009258865024
484.000000,0.004449208751
485.000000,0.0105560644
486.000000,0.008187162388
487.000000,0.008326464434
488.000000,0.009054963506
489.000000,0.01180382266
490.000000,0.00800196642
491.000000,0.007478354147
492.000000,0.01163059291
493.000000,0.01186368344
494.000000,0.008441222896
495.000000,0.01148812089
496.000000,0.009784389275
497.000000,0.01097466342
498.000000,0.007854682846
499.000000,0.01204701924
500.000000,0.01279248113
501.000000,0.01166495197
502.000000,0.01151244072
503.000000,0.002856282571
504.000000,0.01092728519
505.000000,0.01036045268
506.000000,0.01012269902
507.000000,0.009161214346
508.000000,0.01053881879
509.000000,0.01125818527
510.000000,0.009912383956
511.000000,0.009519475335
512.000000,0.01291195367
513.000000,0.008248199182
514.000000,0.01252590217
515.000000,0.0108260525
516.000000,0.008870836189
517.000000,0.009906694735
518.000000,0.008654080868
519.000000,0.01185181288
520.000000,0.01120531748
521.000000,0.009403974575
522.000000,0.008321415102
523.000000,0.01113780988
524.000000,0.01245792602
525.000000,0.01032452075
526.000000,0.0113982096
527.000000,0.009819045507
528.000000,0.01071612967
529.000000,0.01000862599
530.000000,0.0111897993
531.000000,0.007593030163
532.000000,0.01191216852
533.000000,0.01017550289
534.000000,0.01136454941
535.000000,0.009979081375
536.000000,0.01131321429
537.000000,0.008540598634
538.000000,0.01307772879
539.000000,0.007306512549
540.000000,0.008649815972
541.000000,0.01121485332
542.000000,0.01368499625
543.000000,0.0113319467
544.000000,0.0102968824
545.000000,0.007960179974
546.000000,0.01044615878
547.000000,0.0108080384
548.000000,0.01424877864
549.000000,0.01213255233
550.000000,0.007851634315
551.000000,0.01498580346
552.000000,0.01016561072
553.000000,0.009221113188
554.000000,0.01395515824
555.000000,0.01093262582
556.000000,0.0103251717
557.000000,0.01152668027
558.000000,0.01280939191
559.000000,0.01313825709
560.000000,0.008434711536
561.000000,0.01521727747
562.000000,0.01315101672
563.000000,0.01053777549
564.000000,0.009699782323
565.000000,0.009442189441
566.000000,0.01167243243
567.000000,0.01017762942
568.000000,0.009994618814
569.000000,0.01320051045
570.000000,0.01236393432
571.000000,0.01090587475
572.000000,0.0132274328
573.000000,0.01456163086
574.000000,0.009710179304
575.000000,0.01076963367
576.000000,0.01394368198
577.000000,0.01358419312
578.000000,0.01269376987
579.000000,0.01466605921
580.000000,0.01027309438
581.000000,0.009607756315
582.000000,0.0109585995
583.000000,0.01307232145
584.000000,0.01138181657
585.000000,0.01215870396
586.000000,0.01135612004
587.000000,0.01225372146
588.000000,0.01169084582
589.000000,0.01466077492
590.000000,0.01576318635
591.000000,0.01348519938
592.000000,0.01433287422
593.000000,0.01391941101
594.000000,0.0165156968
595.000000,0.01604650233
596.000000,0.0195223663
597.000000,0.01466766826
598.000000,0.01817731491
599.000000,0.01901565484
600.000000,0.01817925982
601.000000,0.02095597237
602.000000,0.01794097405
603.000000,0.02625552536
604.000000,0.02074339439
605.000000,0.02693650715
606.000000,0.02484936767
607.000000,0.03179976054
608.000000,0.03166164549
609.000000,0.03636324571
610.000000,0.04066132727
611.000000,0.04844597918
612.000000,0.0528672553
613.000000,0.0569490343
614.000000,0.07352969611
615.000000,0.09117153965
616.000000,0.1099242562
617.000000,0.1364103596
618.000000,0.162597156
619.000000,0.1814930083
620.000000,0.1872817926
621.000000,0.1845607957
622.000000,0.1627404373
623.000000,0.1342840808
624.000000,0.115037435
625.000000,0.09012595447
626.000000,0.07279909518
627.000000,0.06259911313
628.000000,0.05569742123
629.000000,0.04440496215
630.000000,0.04449641269
631.000000,0.03429664646
632.000000,0.03438732595
633.000000,0.03063820981
634.000000,0.02683880728
635.000000,0.02731730105
636.000000,0.02049127981
637.000000,0.02480052739
638.000000,0.02076220631
639.000000,0.0187797005
640.000000,0.02047828969
641.000000,0.02033143008
642.000000,0.01908004476
643.000000,0.02094997469
644.000000,0.01859209829
645.000000,0.01853626569
646.000000,0.01447862832
647.000000,0.01540401777
648.000000,0.0159872314
649.000000,0.01452886928
650.000000,0.01489937655
651.000000,0.01490523223
652.000000,0.01552060724
653.000000,0.01342762244
654.000000,0.01274738778
655.000000,0.01162202632
656.000000,0.01134074205
657.000000,0.01532710128
658.000000,0.01268233752
659.000000,0.01430454149
660.000000,0.01002432122
661.000000,0.008639380024
662.000000,0.01032171767
663.000000,0.014624185
664.000000,0.01438436827
665.000000,0.0128352931
666.000000,0.0104951233
667.000000,0.01177092572
668.000000,0.01137451495
669.000000,0.01122168778
670.000000,0.006844876939
671.000000,0.0100900495
672.000000,0.01137782028
673.000000,0.01474604973
674.000000,0.01199264822
675.000000,0.01443352886
676.000000,0.01080737825
677.000000,0.01105474693
678.000000,0.00372876125
679.000000,0.01242376338
680.000000,0.01256268934
681.000000,0.01496919892
682.000000,0.01044302792
683.000000,0.0115813227
684.000000,0.00995993238
685.000000,0.008997880249
686.000000,0.009904945442
687.000000,0.01062322681
688.000000,0.01400739784
689.000000,0.01128542329
690.000000,0.009685518638
691.000000,0.0115370557
692.000000,0.01167617584
693.000000,0.009877304731
694.000000,0.01350593919
695.000000,0.007433412575
696.000000,0.01077456579
697.000000,0.0125242119
698.000000,0.008510495927
699.000000,0.01190398509
700.000000,0.01376219712
701.000000,0.01207948744
702.000000,0.007788345258
703.000000,0.009709569675
704.000000,0.01362862554
705.000000,0.01175950471
706.000000,0.01114268236
707.000000,0.01204511393
708.000000,0.0126058675
709.000000,0.009748640111
710.000000,0.01058731719
711.000000,0.01145724075
712.000000,0.01008754892
713.000000,0.01091337441
714.000000,0.01378160586
715.000000,0.009256590531
716.000000,0.01505272026
717.000000,0.01496606055
718.000000,0.007789300256
719.000000,0.01094379186
720.000000,0.01192175195
721.000000,0.009726057242
722.000000,0.009777996216
723.000000,0.01079864195
724.000000,0.0127661382
725.000000,0.01028045315
726.000000,0.01497291847
727.000000,0.01191700505
728.000000,0.01115059788
729.000000,0.01427417792
730.000000,0.01264940801
731.000000,0.01215794669
732.000000,0.01078102947
733.000000,0.01509670345
734.000000,0.01311936426
735.000000,0.01111754352
736.000000,0.008400366638
737.000000,0.01233292667
738.000000,0.009333777928
739.000000,0.008225703306
740.000000,0.01113787041
741.000000,0.01230008662
742.000000,0.01434563685
743.000000,0.01239184934
744.000000,0.01348819773
745.000000,0.009476768391
746.000000,0.01193924962
747.000000,0.01229218992
748.000000,0.0138316825
749.000000,0.0124070321
750.000000,0.01385545131
751.000000,0.01131634448
752.000000,0.01312362043
753.000000,0.0133264328
754.000000,0.01009272325
755.000000,0.01304614417
756.000000,0.01216506243
757.000000,0.009117061933
758.000000,0.01497113729
759.000000,0.01247035553
760.000000,0.01164087252
761.000000,0.0127557619
762.000000,0.0139662264
763.000000,0.01690151368
764.000000,0.01376815366
765.000000,0.01527995141
766.000000,0.01734091415
767.000000,0.01594614085
768.000000,0.01733182307
769.000000,0.0145920611
770.000000,0.01747745318
771.000000,0.01625569259
772.000000,0.01901009611
773.000000,0.0154059199
774.000000,0.01647845505
775.000000,0.02128525146
776.000000,0.01916732424
777.000000,0.01977420259
778.000000,0.02172490039
779.000000,0.02144337974
780.000000,0.02695143488
781.000000,0.02351427176
782.000000,0.02775610784
783.000000,0.03119127169
784.000000,0.03321951132
785.000000,0.03536565034
786.000000,0.0395333225
787.000000,0.04735295672
788.000000,0.05079551065
789.000000,0.06179744306
790.000000,0.06647454642
791.000000,0.07862880964
792.000000,0.09058224048
793.000000,0.09800701144
794.000000,0.1091143865
795.000000,0.1104778074
796.000000,0.1057419181
797.000000,0.09748094077
798.000000,0.08738955376
799.000000,0.0798556514
800.000000,0.06722769617
801.000000,0.05779741968
802.000000,0.05241995181
803.000000,0.05108681534
804.000000,0.04185854621
805.000000,0.03853315022
806.000000,0.03389465666
807.000000,0.03210787767
808.000000,0.0254194123
809.000000,0.02520360371
810.000000,0.02486603603
811.000000,0.02284608208
812.000000,0.02124907678
813.000000,0.01922745422
814.000000,0.01911359201
815.000000,0.0172740514
816.000000,0.01327236563
817.000000,0.01510629575
818.000000,0.0178986762
819.000000,0.01957573136
820.000000,0.01965629144
821.000000,0.0158362186
822.000000,0.0170829665
823.000000,0.01680038324
824.000000,0.0133185212
825.000000,0.01105245131
826.000000,0.01427891396
827.000000,0.01048235141
828.000000,0.0131749799
829.000000,0.01485561317
830.000000,0.01063848359
831.000000,0.01339563642
832.000000,0.01567535265
833.000000,0.01379329232
834.000000,0.0139995152
835.000000,0.01466170495
836.000000,0.01621544944
837.000000,0.01296090502
838.000000,0.01503220071
839.000000,0.01236604199
840.000000,0.01132876222
841.000000,0.01298254839
842.000000,0.01107776992
843.000000,0.01108394495
844.000000,0.01095952051
845.000000,0.007532646252
846.000000,0.01228641307
847.000000,0.009502846759
848.000000,0.01177404621
849.000000,0.01484935238
850.000000,0.01087082568
851.000000,0.01079463454
852.000000,0.01457456155
853.000000,0.01290956908
854.000000,0.01374222461
855.000000,0.01105268283
856.000000,0.01323530224
857.000000,0.01034434715
858.000000,0.01034381778
859.000000,0.01286895274
860.000000,0.01046179115
861.000000,0.01317620863
862.000000,0.01641007137
863.000000,0.008240365758
864.000000,0.01009541415
865.000000,0.01382840099
866.000000,0.01128732574
867.000000,0.01389008078
868.000000,0.009539198286
869.000000,0.01221441209
870.000000,0.0112439465
871.000000,0.01182004459
872.000000,0.01219666049
873.000000,0.009090397422
874.000000,0.009378950616
875.000000,0.01432334227
876.000000,0.01210970509
877.000000,0.01173517186
878.000000,0.01143429461
879.000000,0.01223624416
880.000000,0.009212739578
881.000000,0.009528741206
882.000000,0.01413871572
883.000000,0.01183586663
884.000000,0.01323824298
885.000000,0.0103313422
886.000000,0.01430185104
887.000000,0.0122453867
888.000000,0.01252445041
889.000000,0.01266724661
890.000000,0.009984301098
891.000000,0.007856115445
892.000000,0.009447900067
893.000000,0.01486921589
894.000000,0.01422092659
895.000000,0.01093783648
896.000000,0.01104118887
897.000000,0.01373136826
898.000000,0.01133571665
899.000000,0.009089175033
900.000000,0.01423473275
901.000000,0.01267476526
902.000000,0.006705317778
903.000000,0.01113005295
904.000000,0.01206307722
905.000000,0.0127584243
906.000000,0.01212134122
907.000000,0.01056760372
908.000000,0.01163058577
909.000000,0.01247571884
910.000000,0.01137515395
911.000000,0.0111934681
912.000000,0.01446864452
913.000000,0.01009960666
914.000000,0.0113234199
915.000000,0.007990556897
916.000000,0.01316705289
917.000000,0.01377497964
918.000000,0.01325013484
919.000000,0.01402464577
920.000000,0.01310834323
921.000000,0.01295114289
922.000000,0.01325481038
923.000000,0.01181479817
924.000000,0.01477034197
925.000000,0.01174266873
926.000000,0.009563179686
927.000000,0.0142375602
928.000000,0.016291648
929.000000,0.01072443804
930.000000,0.01249834024
931.000000,0.01139006937
932.000000,0.01206175975
933.000000,0.01297985004
934.000000,0.01047170371
935.000000,0.01247075365
936.000000,0.01016812826
937.000000,0.01204106299
938.000000,0.01088649396
939.000000,0.01122550965
940.000000,0.009992931286
941.000000,0.01596496809
942.000000,0.01464255063
943.000000,0.009892651825
944.000000,0.01264237917
945.000000,0.01260928094
946.000000,0.01268845777
947.000000,0.0113032617
948.000000,0.01583944836
949.000000,0.01368007819
950.000000,0.01555727795
951.000000,0.01583233195
952.000000,0.01769689993
953.000000,0.01149355484
954.000000,0.01878872632
955.000000,0.01804922825
956.000000,0.01687067916
957.000000,0.02071869012
958.000000,0.01660369547
959.000000,0.0180956163
960.000000,0.01525302149
961.000000,0.01929580427
962.000000,0.01768203331
963.000000,0.01678758757
964.000000,0.02229435145
965.000000,0.01785115291
966.000000,0.01891187414
967.000000,0.01896991936
968.000000,0.01836477153
969.000000,0.02149665104
970.000000,0.02252113353
971.000000,0.02242230182
972.000000,0.01772865566
973.000000,0.02527845786
974.000000,0.02346213081
975.000000,0.02273079377
976.000000,0.02748732039
977.000000,0.02865929135
978.000000,0.0268588904
979.000000,0.03548820909
980.000000,0.02994406659
981.000000,0.0309823118
982.000000,0.0345444316
983.000000,0.04248742129
984.000000,0.0425645388
985.000000,0.04603544527
986.000000,0.05126372468
987.000000,0.05575235898
988.000000,0.0623491916
989.000000,0.07084268838
990.000000,0.08409169906
991.000000,0.09820889707
992.000000,0.1116549772
993.000000,0.1377103373
994.000000,0.1708865548
995.000000,0.2121838065
996.000000,0.2782755375
997.000000,0.372746125
998.000000,0.5125100566
999.000000,0.7078985688
1000.000000,0.9142383259
1001.000000,1.01732845
1002.000000,0.9163995092
1003.000000,0.7100251966
1004.000000,0.5167894351
1005.000000,0.3766408902
1006.000000,0.2830361453
1007.000000,0.2191766666
1008.000000,0.1737094494
1009.000000,0.144954263
1010.000000,0.123292929
1011.000000,0.1058164741
1012.000000,0.09689618911
1013.000000,0.08331705905
1014.000000,0.07914198422
1015.000000,0.07272814104
1016.000000,0.07108331682
1017.000000,0.06747810121
1018.000000,0.07129105779
1019.000000,0.0707838304
1020.000000,0.07580080018
1021.000000,0.07579193126
1022.000000,0.08467506178
1023.000000,0.09443757228
1024.000000,0.1101604459
1025.000000,0.1311313197
1026.000000,0.1625793086
1027.000000,0.2057363999
1028.000000,0.2647435398
1029.000000,0.3373709266
1030.000000,0.4097869182
1031.000000,0.4421789521
1032.000000,0.4063073288
1033.000000,0.3358663338
1034.000000,0.2607080855
1035.000000,0.2013330961
1036.000000,0.1558390679
1037.000000,0.1240555702
1038.000000,0.09911298568
1039.000000,0.08428277453
1040.000000,0.06978878477
1041.000000,0.06304229851
1042.000000,0.05431919795
1043.000000,0.04867898865
1044.000000,0.04204962408
1045.000000,0.04154946262
1046.000000,0.03811133569
1047.000000,0.03576148198
1048.000000,0.03622212227
1049.000000,0.02972567335
1050.000000,0.03057208218
1051.000000,0.02647442249
1052.000000,0.02625092827
1053.000000,0.02508758995
1054.000000,0.02390942974
1055.000000,0.02382961865
1056.000000,0.02113161974
1057.000000,0.02112812494
1058.000000,0.0214931513
1059.000000,0.02335494975
1060.000000,0.0176640726
1061.000000,0.0152724811
1062.000000,0.01749350517
1063.000000,0.01825478435
1064.000000,0.01807046873
1065.000000,0.0175794389
1066.000000,0.01946100253
1067.000000,0.01877128909
1068.000000,0.01646551723
1069.000000,0.01538894744
1070.000000,0.0154174065
1071.000000,0.01519406737
1072.000000,0.01526724958
1073.000000,0.01239824815
1074.000000,0.01445883666
1075.000000,0.01437985207
1076.000000,0.01471102964
1077.000000,0.01444910219
1078.000000,0.01617969039
1079.000000,0.01365822429
1080.000000,0.01373931299
1081.000000,0.01560214318
1082.000000,0.01395644061
1083.000000,0.01477540432
1084.000000,0.01560286415
1085.000000,0.01503579338
1086.000000,0.01462552895
1087.000000,0.01367111398
1088.000000,0.01537180572
1089.000000,0.01430817585
1090.000000,0.01290130251
1091.000000,0.01356805428
1092.000000,0.01139669243
1093.000000,0.01187763424
1094.000000,0.01000716473
1095.000000,0.01238973546
1096.000000,0.01640165219
1097.000000,0.01260287498
1098.000000,0.0152805559
1099.000000,0.0136925485
1100.000000,0.01229671925
1101.000000,0.01637720285
1102.000000,0.01487242617
1103.000000,0.01021643638
1104.000000,0.0158196506
1105.000000,0.01160901721
1106.000000,0.01342965972
1107.000000,0.01515395435
1108.000000,0.01325586653
1109.000000,0.01613720201
1110.000000,0.0154718098
1111.000000,0.01085210446
1112.000000,0.01312459504
1113.000000,0.01470474005
1114.000000,0.01306979893
1115.000000,0.0138751489
1116.000000,0.01600459169
1117.000000,0.01514612862
1118.000000,0.01279001817
1119.000000,0.01511135671
1120.000000,0.0136818917
1121.000000,0.01263510954
1122.000000,0.0129808044
1123.000000,0.01600843133
1124.000000,0.01559218858
1125.000000,0.01589591535
1126.000000,0.01385486286
1127.000000,0.01607058433
1128.000000,0.01468813082
1129.000000,0.01527120103
1130.000000,0.01719826905
1131.000000,0.01521586933
1132.000000,0.01983281545
1133.000000,0.02404674368
1134.000000,0.02064802925
1135.000000,0.01839496094
1136.000000,0.02079938963
1137.000000,0.01922443699
1138.000000,0.02273374888
1139.000000,0.02585229466
1140.000000,0.02760473227
1141.000000,0.02624788262
1142.000000,0.0311669699
1143.000000,0.03560880665
1144.000000,0.0401330134
1145.000000,0.03931929931
1146.000000,0.04408901979
1147.000000,0.05231861465
1148.000000,0.05441899865
1149.000000,0.06939630623
1150.000000,0.08265341147
1151.000000,0.09776841985
1152.000000,0.1132338805
1153.000000,0.1338132127
1154.000000,0.1468480286
1155.000000,0.1554913487
1156.000000,0.146967404
1157.000000,0.1345518403
1158.000000,0.1171692623
1159.000000,0.1014959376
1160.000000,0.08024355911
1161.000000,0.07241788375
1162.000000,0.06497996271
1163.000000,0.05527217551
1164.000000,0.04721868899
1165.000000,0.04658462057
1166.000000,0.04336915762
1167.000000,0.03982396081
1168.000000,0.03648161765
1169.000000,0.03643784887
1170.000000,0.03705129924
1171.000000,0.03633134069
1172.000000,0.0353359254
1173.000000,0.03951825693
1174.000000,0.04375833072
1175.000000,0.04687269824
1176.000000,0.05325311008
1177.000000,0.06104143927
1178.000000,0.07260515521
1179.000000,0.08805331426
1180.000000,0.100707685
1181.000000,0.113168149
1182.000000,0.1244540074
1183.000000,0.1349058702
1184.000000,0.1293012976
1185.000000,0.1124258967
1186.000000,0.09792614113
1187.000000,0.07958847377
1188.000000,0.06839620354
1189.000000,0.05625605827
1190.000000,0.04942492235
1191.000000,0.03874194105
1192.000000,0.03636637645
1193.000000,0.03302239289
1194.000000,0.0273434742
1195.000000,0.03143558773
1196.000000,0.0245296069
1197.000000,0.02668971747
1198.000000,0.02116067953
1199.000000,0.0208318461
1200.000000,0.02264070111
1201.000000,0.02000643592
1202.000000,0.01902722506
1203.000000,0.01851713128
1204.000000,0.01467648338
1205.000000,0.01612158224
1206.000000,0.01453745901
1207.000000,0.01644401392
1208.000000,0.01460215273
1209.000000,0.01527929608
1210.000000,0.01492155391
1211.000000,0.01473952744
1212.000000,0.01450289218
1213.000000,0.01304884422
1214.000000,0.01204544043
1215.000000,0.0126411011
1216.000000,0.01594396571
1217.000000,0.01439342767
1218.000000,0.0146750089
1219.000000,0.01612762166
1220.000000,0.0108849681
1221.000000,0.014148525
1222.000000,0.01087110611
1223.000000,0.0122523583
1224.000000,0.01379577877
1225.000000,0.01596821254
1226.000000,0.01109286377
1227.000000,0.01239027557
1228.000000,0.01481961905
1229.000000,0.009459050077
1230.000000,0.01309833269
1231.000000,0.01169661831
1232.000000,0.01049221493
1233.000000,0.01249441924
1234.000000,0.01333946633
1235.000000,0.01027657776
1236.000000,0.01281444401
1237.000000,0.01235725049
1238.000000,0.00948513734
1239.000000,0.01503591155
1240.000000,0.01407115386
1241.000000,0.01013558123
1242.000000,0.01064797463
1243.000000,0.01333021432
1244.000000,0.01076669699
1245.000000,0.008048537786
1246.000000,0.01379747903
1247.000000,0.01169030435
1248.000000,0.01546103971
1249.000000,0.01233732359
1250.000000,0.01198087401
1251.000000,0.01732543286
1252.000000,0.01121123251
1253.000000,0.009630816077
1254.000000,0.01197322489
1255.000000,0.0137675797
1256.000000,0.009147891639
1257.000000,0.009644448709
1258.000000,0.0123441313
1259.000000,0.005034204006
1260.000000,0.009228544992
1261.000000,0.01299053999
1262.000000,0.01021239737
1263.000000,0.008119827654
1264.000000,0.01521143225
1265.000000,0.008527300263
1266.000000,0.01029025741
1267.000000,0.01058067058
1268.000000,0.01148207657
1269.000000,0.01056692377
1270.000000,0.01113462668
1271.000000,0.01140262991
1272.000000,0.01110581896
1273.000000,0.01145768444
1274.000000,0.006505671698
1275.000000,0.01213844842
1276.000000,0.008440600166
1277.000000,0.006909805278
1278.000000,0.0139997533
1279.000000,0.008660357407
1280.000000,0.01158581736
1281.000000,0.009676000001
1282.000000,0.009859579488
1283.000000,0.01217954847
1284.000000,0.009111847515
1285.000000,0.01195002984
1286.000000,0.01196276976
1287.000000,0.01352729852
1288.000000,0.0105233036
1289.000000,0.01328652685
1290.000000,0.01463268487
1291.000000,0.01436289014
1292.000000,0.01236020319
1293.000000,0.01208519556
1294.000000,0.01688487514
1295.000000,0.0156497041
1296.000000,0.00965178758
1297.000000,0.01303219131
1298.000000,0.01238912234
1299.000000,0.01133024769
1300.000000,0.01149312349
1301.000000,0.01216313175
1302.000000,0.01306361717
1303.000000,0.01162805449
1304.000000,0.0118719927
1305.000000,0.01397885272
1306.000000,0.01183245632
1307.000000,0.01228978236
1308.000000,0.01318319812
1309.000000,0.0144725437
1310.000000,0.01366366375
1311.000000,0.01196785888
1312.000000,0.01163319326
1313.000000,0.008774777383
1314.000000,0.01181082342
1315.000000,0.009157367298
1316.000000,0.009188934478
1317.000000,0.01254363948
1318.000000,0.01104738122
1319.000000,0.01219917852
1320.000000,0.01000737178
1321.000000,0.01367056401
1322.000000,0.01156288306
1323.000000,0.01365830839
1324.000000,0.01263758202
1325.000000,0.01162939101
1326.000000,0.01035037927
1327.000000,0.01137934678
1328.000000,0.01298161397
1329.000000,0.0127305416
1330.000000,0.008954070056
1331.000000,0.0134070056
1332.000000,0.01093862592
1333.000000,0.01300817749
1334.000000,0.0099943
1335.000000,0.01267704261
1336.000000,0.009820644215
1337.000000,0.01168548998
1338.000000,0.01084413003
1339.000000,0.01088293605
1340.000000,0.01033529036
1341.000000,0.01117619707
1342.000000,0.00801749842
1343.000000,0.013267918
1344.000000,0.01345459787
1345.000000,0.01066275616
1346.000000,0.008806465752
1347.000000,0.01029083921
1348.000000,0.01349840158
1349.000000,0.01287378391
1350.000000,0.01104228194
1351.000000,0.01345848681
1352.000000,0.009602650881
1353.000000,0.01048276869
1354.000000,0.0126804669
1355.000000,0.01156344871
1356.000000,0.01060169028
1357.000000,0.006781629039
1358.000000,0.01317497149
1359.000000,0.01250758521
1360.000000,0.008402887148
1361.000000,0.0131190021
1362.000000,0.01192031444
1363.000000,0.01253852116
1364.000000,0.01390421489
1365.000000,0.01056825067
1366.000000,0.01351062222
1367.000000,0.01348800337
1368.000000,0.01368152121
1369.000000,0.01547005475
1370.000000,0.01355679461
1371.000000,0.01115899337
1372.000000,0.0159233422
1373.000000,0.01015817716
1374.000000,0.01149543739
1375.000000,0.01054197589
1376.000000,0.01231747422
1377.000000,0.01474167286
1378.000000,0.01522931832
1379.000000,0.0136196907
1380.000000,0.01153531298
1381.000000,0.01171096484
1382.000000,0.01167874859
1383.000000,0.01486074436
1384.000000,0.01121506937
1385.000000,0.01483363739
1386.000000,0.01311938872
1387.000000,0.01361244553
1388.000000,0.01637955781
1389.000000,0.01249749752
1390.000000,0.01686821067
1391.000000,0.01082727908
1392.000000,0.01210325579
1393.000000,0.01070811972
1394.000000,0.0124893622
1395.000000,0.01527303524
1396.000000,0.01571385118
1397.000000,0.01499033971
1398.000000,0.01505718677
1399.000000,0.01233097582
1400.000000,0.0121876595
1401.000000,0.01562258099
1402.000000,0.01789446749
1403.000000,0.01466608299
1404.000000,0.01306514175
1405.000000,0.01275708421
1406.000000,0.01469838438
1407.000000,0.01947079128
1408.000000,0.01616567822
1409.000000,0.01479379737
1410.000000,0.01596017255
1411.000000,0.01654441087
1412.000000,0.01840037988
1413.000000,0.016934642
1414.000000,0.01689113165
1415.000000,0.01874546562
1416.000000,0.02054727932
1417.000000,0.02157474779
1418.000000,0.02181968665
1419.000000,0.02043452576
1420.000000,0.01864975853
1421.000000,0.02120035758
1422.000000,0.02419892372
1423.000000,0.02188302211
1424.000000,0.02607323776
1425.000000,0.02551804691
1426.000000,0.02679262521
1427.000000,0.03160362807
1428.000000,0.03138196776
1429.000000,0.03546526839
1430.000000,0.03286068322
1431.000000,0.03929010331
1432.000000,0.04146069652
1433.000000,0.03665114931
1434.000000,0.04592145899
1435.000000,0.05318747224
1436.000000,0.05632244067
1437.000000,0.05933974504
1438.000000,0.06616886328
1439.000000,0.07159202386
1440.000000,0.08355493293
1441.000000,0.09013725233
1442.000000,0.1041754721
1443.000000,0.1230536954
1444.000000,0.1376054567
1445.000000,0.1557797559
1446.000000,0.1764733276
1447.000000,0.2021931102
1448.000000,0.2163223116
1449.000000,0.2249130862
1450.000000,0.2342067375
1451.000000,0.226304732
1452.000000,0.2157672866
1453.000000,0.1955899655
1454.000000,0.1748813632
1455.000000,0.1582004255
1456.000000,0.1362169296
1457.000000,0.1193790397
1458.000000,0.1081463369
1459.000000,0.09156240712
1460.000000,0.08048526304
1461.000000,0.0754882363
1462.000000,0.06293340286
1463.000000,0.05895651553
1464.000000,0.05429162486
1465.000000,0.04768817959
1466.000000,0.044158349
1467.000000,0.04428758392
1468.000000,0.04056188653
1469.000000,0.03549162633
1470.000000,0.03617280902
1471.000000,0.03615843361
1472.000000,0.02879552656
1473.000000,0.02992400713
1474.000000,0.03236845819
1475.000000,0.02840015772
1476.000000,0.02769657864
1477.000000,0.02467411745
1478.000000,0.02258165417
1479.000000,0.02565403341
1480.000000,0.02394075063
1481.000000,0.02186377869
1482.000000,0.02042962448
1483.000000,0.01731172382
1484.000000,0.02061360181
1485.000000,0.01845578141
1486.000000,0.01915141135
1487.000000,0.02036770769
1488.000000,0.02030781188
1489.000000,0.01977635452
1490.000000,0.02254494973
1491.000000,0.02008517091
1492.000000,0.01600451402
1493.000000,0.01562163079
1494.000000,0.02169432857
1495.000000,0.01550796843
1496.000000,0.01655846954
1497.000000,0.01996296244
1498.000000,0.019743742
1499.000000,0.01605615692
1500.000000,0.0165132393
1501.000000,0.0126339487
1502.000000,0.01397250191
1503.000000,0.01495333433
1504.000000,0.0155762713
1505.000000,0.01485329523
1506.000000,0.01572504418
1507.000000,0.01973417055
1508.000000,0.01621320961
1509.000000,0.01584484811
1510.000000,0.01518086992
1511.000000,0.01478982844
1512.000000,0.01756239867
1513.000000,0.01308311737
1514.000000,0.01478973007
1515.000000,0.01283058115
1516.000000,0.01518354385
1517.000000,0.01524036537
1518.000000,0.01684204237
1519.000000,0.01740087786
1520.000000,0.01634196858
1521.000000,0.01827642639
1522.000000,0.01823081071
1523.000000,0.01571231598
1524.000000,0.01586207868
1525.000000,0.01128271887
1526.000000,0.01584192205
1527.000000,0.01524383462
1528.000000,0.01193623972
1529.000000,0.01451653331
1530.000000,0.01736735689
1531.000000,0.01305559338
1532.000000,0.01820744662
1533.000000,0.01666769604
1534.000000,0.01536645277
1535.000000,0.01565276238
1536.000000,0.01772104938
1537.000000,0.0133323705
1538.000000,0.02042149667
1539.000000,0.01486953821
1540.000000,0.01513463297
1541.000000,0.01928889953
1542.000000,0.01862400617
1543.000000,0.01990675513
1544.000000,0.01957683433
1545.000000,0.01848485415
1546.000000,0.01544641803
1547.000000,0.01734242134
1548.000000,0.01899778815
1549.000000,0.01890563366
1550.000000,0.01520252357
1551.000000,0.02179710006
1552.000000,0.02360645003
1553.000000,0.02354801297
1554.000000,0.01910429005
1555.000000,0.0225821723
1556.000000,0.01808394761
1557.000000,0.02640770402
1558.000000,0.01991154935
1559.000000,0.02545941039
1560.000000,0.02790667107
1561.000000,0.02921839854
1562.000000,0.02850730937
1563.000000,0.02630326452
1564.000000,0.0304662449
1565.000000,0.03185853498
1566.000000,0.03511305948
1567.000000,0.03864052309
1568.000000,0.04065255688
1569.000000,0.04669611455
1570.000000,0.04747191203
1571.000000,0.04978724011
1572.000000,0.05914946678
1573.000000,0.06174742845
1574.000000,0.07092302625
1575.000000,0.08063479412
1576.000000,0.08808319498
1577.000000,0.1087525616
1578.000000,0.128080834
1579.000000,0.1504683902
1580.000000,0.1773407776
1581.000000,0.202266306
1582.000000,0.2270235375
1583.000000,0.2400140544
1584.000000,0.2318154781
1585.000000,0.2145708353
1586.000000,0.1929817017
1587.000000,0.1778062024
1588.000000,0.154732365
1589.000000,0.1479207299
1590.000000,0.1404241571
1591.000000,0.1430560325
1592.000000,0.1459273923
1593.000000,0.1527014773
1594.000000,0.1657661288
1595.000000,0.1956555237
1596.000000,0.2300462914
1597.000000,0.2729464874
1598.000000,0.3420641038
1599.000000,0.4235588331
1600.000000,0.5209312253
1601.000000,0.6051908673
1602.000000,0.6453661342
1603.000000,0.6063769736
1604.000000,0.5182529745
1605.000000,0.420056372
1606.000000,0.3308847507
1607.000000,0.2619561446
1608.000000,0.2104706271
1609.000000,0.1681237632
1610.000000,0.14106164
1611.000000,0.1165297741
1612.000000,0.09997948641
1613.000000,0.08811363869
1614.000000,0.07967267697
1615.000000,0.07297729285
1616.000000,0.05957817532
1617.000000,0.05620503106
1618.000000,0.05078676164
1619.000000,0.04781729937
1620.000000,0.04437663025
1621.000000,0.04088544625
1622.000000,0.03558535205
1623.000000,0.03600799898
1624.000000,0.03498604384
1625.000000,0.03039615678
1626.000000,0.03380318051
1627.000000,0.02797354313
1628.000000,0.02592028874
1629.000000,0.0266532355
1630.000000,0.02452866614
1631.000000,0.02138955439
1632.000000,0.02323632735
1633.000000,0.0257192825
1634.000000,0.02583797746
1635.000000,0.02006220422
1636.000000,0.02242212263
1637.000000,0.02033826873
1638.000000,0.02014413674
1639.000000,0.02165156109
1640.000000,0.02039502742
1641.000000,0.01860395845
1642.000000,0.01606977116
1643.000000,0.01533622098
1644.000000,0.01713580788
1645.000000,0.01761147608
1646.000000,0.01768996326
1647.000000,0.01798430184
1648.000000,0.01813222415
1649.000000,0.01113425631
1650.000000,0.01752815646
1651.000000,0.01341971409
1652.000000,0.01754760531
1653.000000,0.01580828509
1654.000000,0.01622153763
1655.000000,0.01371317477
1656.000000,0.01520347981
1657.000000,0.01075485736
1658.000000,0.01653829753
1659.000000,0.01355157214
1660.000000,0.008907005573
1661.000000,0.01608610539
1662.000000,0.0172003309
1663.000000,0.01198349008
1664.000000,0.0160551297
1665.000000,0.01202885435
1666.000000,0.008898395664
1667.000000,0.0126228823
1668.000000,0.01390209015
1669.000000,0.01343176723
1670.000000,0.01329020004
1671.000000,0.01359748848
1672.000000,0.01336251334
1673.000000,0.01242503849
1674.000000,0.01158486359
1675.000000,0.01218918856
1676.000000,0.01195312568
1677.000000,0.0119886954
1678.000000,0.01032897358
1679.000000,0.01139218953
1680.000000,0.01258638158
1681.000000,0.01298727231
1682.000000,0.01218874354
1683.000000,0.01189962296
1684.000000,0.01328767615
1685.000000,0.01380116221
1686.000000,0.01348737502
1687.000000,0.008583860488
1688.000000,0.01113073988
1689.000000,0.0134120772
1690.000000,0.01299206912
1691.000000,0.01328263564
1692.000000,0.01251463891
1693.000000,0.01014291597
1694.000000,0.01426025781
1695.000000,0.009062131367
1696.000000,0.01372000422
1697.000000,0.01168387713
1698.000000,0.008740379012
1699.000000,0.01086331519
1700.000000,0.0140339326
1701.000000,0.01042124045
1702.000000,0.009149240991
1703.000000,0.01096602494
1704.000000,0.009881344862
1705.000000,0.008990886764
1706.000000,0.01234243121
1707.000000,0.01303962188
1708.000000,0.01031636522
1709.000000,0.01244423162
1710.000000,0.01060067506
1711.000000,0.01115360937
1712.000000,0.01157869675
1713.000000,0.0142978404
1714.000000,0.0123062817
1715.000000,0.009273320569
1716.000000,0.01228406388
1717.000000,0.01079134761
1718.000000,0.01028276715
1719.000000,0.009518159747
1720.000000,0.01112777326
1721.000000,0.0110430438
1722.000000,0.01034234964
1723.000000,0.008348203968
1724.000000,0.007700305177
1725.000000,0.01135512538
1726.000000,0.01144041721
1727.000000,0.01543545061
1728.000000,0.01069737692
1729.000000,0.01308337533
1730.000000,0.01341706405
1731.000000,0.01089094879
1732.000000,0.01115339763
1733.000000,0.01012710079
1734.000000,0.01452437063
1735.000000,0.007944715412
1736.000000,0.01087007115
1737.000000,0.0137056421
1738.000000,0.01071031069
1739.000000,0.009772305888
1740.000000,0.01136868515
1741.000000,0.01194585757
1742.000000,0.01201594603
1743.000000,0.01143373572
1744.000000,0.01236022578
1745.000000,0.01274123993
1746.000000,0.008626060845
1747.000000,0.01007222138
1748.000000,0.01255975065
1749.000000,0.01178815088
1750.000000,0.01127082914
1751.000000,0.01213747564
1752.000000,0.01268788077
1753.000000,0.009058697
1754.000000,0.008312278436
1755.000000,0.008450334904
1756.000000,0.01446672729
1757.000000,0.008632342055
1758.000000,0.01026400454
1759.000000,0.01035433375
1760.000000,0.01277965886
1761.000000,0.007233277899
1762.000000,0.01062389548
1763.000000,0.0131238476
1764.000000,0.01291763366
1765.000000,0.01149934271
1766.000000,0.0101518437
1767.000000,0.01418220778
1768.000000,0.00731617877
1769.000000,0.01261538659
1770.000000,0.01166322292
1771.000000,0.01182249739
1772.000000,0.01116570201
1773.000000,0.01103820612
1774.000000,0.01248328224
1775.000000,0.008309573886
1776.000000,0.008116611481
1777.000000,0.01092876641
1778.000000,0.01070239677
1779.000000,0.01091973951
1780.000000,0.01376769602
1781.000000,0.009422707266
1782.000000,0.01207854269
1783.000000,0.0113394613
1784.000000,0.01529843128
1785.000000,0.007755751978
1786.000000,0.009463006463
1787.000000,0.00963641111
1788.000000,0.01318624099
1789.000000,0.008900314146
1790.000000,0.013851224
1791.000000,0.01372681056
1792.000000,0.01225714302
1793.000000,0.01139606011
1794.000000,0.007404407171
1795.000000,0.01087658203
1796.000000,0.007646521884
1797.000000,0.009778256108
1798.000000,0.01090541437
1799.000000,0.00987723333
1800.000000,0.01239240858
1801.000000,0.01022832324
1802.000000,0.007385445192
1803.000000,0.008358484126
1804.000000,0.007926824575
1805.000000,0.009837876213
1806.000000,0.01296205416
1807.000000,0.01147457494
1808.000000,0.01113835017
1809.000000,0.007884865914
1810.000000,0.01519030208
1811.000000,0.01039184106
1812.000000,0.01527863222
1813.000000,0.008706449161
1814.000000,0.009302129122
1815.000000,0.01563371916
1816.000000,0.008281025626
1817.000000,0.01126508517
1818.000000,0.00974796474
1819.000000,0.008794293454
1820.000000,0.01474006055
1821.000000,0.008406462179
1822.000000,0.01220645622
1823.000000,0.01261711171
1824.000000,0.008381821606
1825.000000,0.006607949019
1826.000000,0.006838131349
1827.000000,0.008797291604
1828.000000,0.01083887053
1829.000000,0.01106154279
1830.000000,0.01000971683
1831.000000,0.01017438181
1832.000000,0.01233030771
1833.000000,0.01191576944
1834.000000,0.01113425437
1835.000000,0.009140125568
1836.000000,0.01192655018
1837.000000,0.01073119924
1838.000000,0.008870514827
1839.000000,0.009209828092
1840.000000,0.01281837912
1841.000000,0.01404933986
1842.000000,0.009296642936
1843.000000,0.006197508256
1844.000000,0.01152614743
1845.000000,0.008542296632
1846.000000,0.01181144733
1847.000000,0.009592191223
1848.000000,0.01480098315
1849.000000,0.01056398087
1850.000000,0.0121429238
1851.000000,0.007904869987
1852.000000,0.004694173761
1853.000000,0.01060122184
1854.000000,0.01085231219
1855.000000,0.01176683476
1856.000000,0.009216484814
1857.000000,0.007738325355
1858.000000,0.007118928344
1859.000000,0.01142413942
1860.000000,0.0117363994
1861.000000,0.008562281985
1862.000000,0.00925573134
1863.000000,0.008853452179
1864.000000,0.006517450834
1865.000000,0.01070415972
1866.000000,0.01199604312
1867.000000,0.009855413266
1868.000000,0.007455289013
1869.000000,0.009901729659
1870.000000,0.01302537722
1871.000000,0.01455452073
1872.000000,0.01083109775
1873.000000,0.008713234125
1874.000000,0.006318195582
1875.000000,0.007195722001
1876.000000,0.01010808391
1877.000000,0.01073567159
1878.000000,0.01079571897
1879.000000,0.009754799024
1880.000000,0.007192640813
1881.000000,0.007124520244
1882.000000,0.01057044371
1883.000000,0.008625037692
1884.000000,0.0128822384
1885.000000,0.00735315085
1886.000000,0.01364359623
1887.000000,0.008934846839
1888.000000,0.01071267062
1889.000000,0.01071108431
1890.000000,0.009575227401
1891.000000,0.006234772905
1892.000000,0.009295457777
1893.000000,0.01330369258
1894.000000,0.007695722792
1895.000000,0.00657164154
1896.000000,0.009816676505
1897.000000,0.009428226039
1898.000000,0.007665906169
1899.000000,0.008745046453
1900.000000,0.00928664844
1901.000000,0.009421684773
1902.000000,0.01057162066
1903.000000,0.01165805089
1904.000000,0.0110175375
1905.000000,0.01092556023
1906.000000,0.01360103537
1907.000000,0.0124300541
1908.000000,0.00441247688
1909.000000,0.009510554251
1910.000000,0.007082509386
1911.000000,0.008856079613
1912.000000,0.01177525386
1913.000000,0.009829498156
1914.000000,0.00937386671
1915.000000,0.01286337356
1916.000000,0.007220670199
1917.000000,0.01003940315
1918.000000,0.01132336541
1919.000000,0.01027294289
1920.000000,0.007896958687
1921.000000,0.01017721934
1922.000000,0.01183623378
1923.000000,0.01093457384
1924.000000,0.01085433059
1925.000000,0.01083272694
1926.000000,0.01048710658
1927.000000,0.00773310298
1928.000000,0.009596330572
1929.000000,0.01107512956
1930.000000,0.003983363765
1931.000000,0.01172567477
1932.000000,0.010885113
1933.000000,0.008040858376
1934.000000,0.0087154797
1935.000000,0.0097994677
1936.000000,0.0110329988
1937.000000,0.009457062291
1938.000000,0.01253811652
1939.000000,0.01102936418
1940.000000,0.008628980639
1941.000000,0.009258777868
1942.000000,0.01065532688
1943.000000,0.01165594922
1944.000000,0.01155827314
1945.000000,0.01000210315
1946.000000,0.01049533656
1947.000000,0.01014520746
1948.000000,0.01183845967
1949.000000,0.008221068181
1950.000000,0.01139832703
1951.000000,0.006486926923
1952.000000,0.01109289726
1953.000000,0.01070236209
1954.000000,0.01018830002
1955.000000,0.005922948212
1956.000000,0.01332074017
1957.000000,0.01198324602
1958.000000,0.01023645856
1959.000000,0.01110212113
1960.000000,0.008305093087
1961.000000,0.01120756089
1962.000000,0.01330235228
1963.000000,0.007825176359
1964.000000,0.01556603814
1965.000000,0.009305846917
1966.000000,0.01183370821
1967.000000,0.008525864425
1968.000000,0.01095809662
1969.000000,0.007628611734
1970.000000,0.008857713365
1971.000000,0.009717763383
1972.000000,0.008862496885
1973.000000,0.009690507892
1974.000000,0.01212450678
1975.000000,0.007617669279
1976.000000,0.007779577439
1977.000000,0.0102644517
1978.000000,0.009041208546
1979.000000,0.00816134971
1980.000000,0.01043217852
1981.000000,0.009038649489
1982.000000,0.01083893894
1983.000000,0.01008641878
1984.000000,0.009762794489
1985.000000,0.01002803469
1986.000000,0.01221029064
1987.000000,0.01279131885
1988.000000,0.009843206135
1989.000000,0.008101789182
1990.000000,0.007138455434
1991.000000,0.005693201315
1992.000000,0.007807769325
1993.000000,0.008454370007
1994.000000,0.01005327103
1995.000000,0.006396601687
1996.000000,0.01301640341
1997.000000,0.01228347857
1998.000000,0.01264605823
1999.000000,0.009129291858
2000.000000,0.01064243387
