raman_shift_cm-1,intensity
200.000000,0.008469355383
201.000000,0.007424721497
202.000000,0.00957693867
203.000000,0.010914776
204.000000,0.01234620338
205.000000,0.01029374911
206.000000,0.008969268872
207.000000,0.008505231224
208.000000,0.01157251313
209.000000,0.01334481856
210.000000,0.01062102216
211.000000,0.007609060674
212.000000,0.008159422253
213.000000,0.01327622678
214.000000,0.01048219072
215.000000,0.00661239468
216.000000,0.009909511819
217.000000,0.007750693419
218.000000,0.008818811671
219.000000,0.009101620049
220.000000,0.008651250144
221.000000,0.01118488038
222.000000,0.009952199434
223.000000,0.008899758184
224.000000,0.01089814708
225.000000,0.01173883417
226.000000,0.006793330373
227.000000,0.009566171859
228.000000,0.008118393843
229.000000,0.009733836009
230.000000,0.007501568343
231.000000,0.01012204749
232.000000,0.01000515758
233.000000,0.009472517434
234.000000,0.007985605324
235.000000,0.00928934461
236.000000,0.007899335955
237.000000,0.007371846319
238.000000,0.01053210691
239.000000,0.007864108792
240.000000,0.0124236757
241.000000,0.01151653526
242.000000,0.006088004653
243.000000,0.01062817551
244.000000,0.007880765921
245.000000,0.0101505967
246.000000,0.01017203102
247.000000,0.006108193942
248.000000,0.009618496681
249.000000,0.009574051618
250.000000,0.01200992445
251.000000,0.007723323254
252.000000,0.01156259594
253.000000,0.007888863691
254.000000,0.00942452633
255.000000,0.008406462515
256.000000,0.01298517402
257.000000,0.01122444211
258.000000,0.01495178728
259.000000,0.01137246329
260.000000,0.0117789262
261.000000,0.01177061862
262.000000,0.008876343894
263.000000,0.009949826154
264.000000,0.01279097887
265.000000,0.009297419701
266.000000,0.01046844243
267.000000,0.01004872065
268.000000,0.01130992684
269.000000,0.009362004742
270.000000,0.009787428943
271.000000,0.01057724821
272.000000,0.01029886643
273.000000,0.008363211635
274.000000,0.01188506239
275.000000,0.007496875296
276.000000,0.007691950266
277.000000,0.007529543695
278.000000,0.01202882006
279.000000,0.009374009287
280.000000,0.008153506133
281.000000,0.007823891329
282.000000,0.010938554
283.000000,0.007986970426
284.000000,0.007552857787
285.000000,0.01132536525
286.000000,0.007704331068
287.000000,0.00945324013
288.000000,0.0100849658
289.000000,0.00920819315
290.000000,0.009991053556
291.000000,0.01277716869
292.000000,0.00906621624
293.000000,0.007581775752
294.000000,0.006427286883
295.000000,0.009691637012
296.000000,0.009397048933
297.000000,0.01063214126
298.000000,0.009173869574
299.000000,0.009145483986
300.000000,0.008660534449
301.000000,0.00906405434
302.000000,0.01042443818
303.000000,0.009343693159
304.000000,0.01030569917
305.000000,0.01390760976
306.000000,0.01106389462
307.000000,0.006953904694
308.000000,0.01357357276
309.000000,0.01080256671
310.000000,0.00822455498
311.000000,0.0119219183
312.000000,0.01014357372
313.000000,0.008878270864
314.000000,0.008842138867
315.000000,0.008122745321
316.000000,0.01020630249
317.000000,0.012248157
318.000000,0.009460882013
319.000000,0.01095310062
320.000000,0.01386321423
321.000000,0.007683214241
322.000000,0.01062791722
323.000000,0.009500479512
324.000000,0.007995325724
325.000000,0.008062631893
326.000000,0.01008424823
327.000000,0.01098304147
328.000000,0.009052635082
329.000000,0.01022509989
330.000000,0.01156124423
331.000000,0.01071046163
332.000000,0.01185519587
333.000000,0.01104116726
334.000000,0.0110949122
335.000000,0.01377269808
336.000000,0.01136630715
337.000000,0.01037944352
338.000000,0.01154093119
339.000000,0.008283343065
340.000000,0.009446732257
341.000000,0.01170913958
342.000000,0.01138483201
343.000000,0.01322054747
344.000000,0.01014534045
345.000000,0.00720031398
346.000000,0.01402004353
347.000000,0.0123119204
348.000000,0.008009250081
349.000000,0.01287896759
350.000000,0.01019272635
351.000000,0.006500668989
352.000000,0.009288429796
353.000000,0.009111946489
354.000000,0.01331207248
355.000000,0.008546866319
356.000000,0.009624402212
357.000000,0.009578754168
358.000000,0.009374974927
359.000000,0.008305422866
360.000000,0.01057240128
361.000000,0.01228849926
362.000000,0.01138351388
363.000000,0.008281235148
364.000000,0.007837282948
365.000000,0.01037554902
366.000000,0.008725135494
367.000000,0.008878664981
368.000000,0.006780314221
369.000000,0.01404140042
370.000000,0.01197437619
371.000000,0.008194050826
372.000000,0.01195902066
373.000000,0.01282831611
374.000000,0.005364984211
375.000000,0.009046957698
376.000000,0.009369664647
377.000000,0.0114428914
378.000000,0.009904230675
379.000000,0.009687085699
380.000000,0.01003200035
381.000000,0.01385619734
382.000000,0.01447031781
383.000000,0.009101523219
384.000000,0.008299515733
385.000000,0.01553794618
386.000000,0.008194195441
387.000000,0.009007734299
388.000000,0.01022856392
389.000000,0.01112276504
390.000000,0.01221522452
391.000000,0.0109399981
392.000000,0.008414177273
393.000000,0.0111726175
394.000000,0.01066060727
395.000000,0.01391553934
396.000000,0.01013264115
397.000000,0.007489644665
398.000000,0.008074510837
399.000000,0.01306582764
400.000000,0.009086240811
401.000000,0.005958563923
402.000000,0.009007100454
403.000000,0.01016954538
404.000000,0.01254820344
405.000000,0.008142644494
406.000000,0.0115059981
407.000000,0.01176429251
408.000000,0.008775992972
409.000000,0.009800678076
410.000000,0.0137158587
411.000000,0.01361904153
412.000000,0.01189024317
413.000000,0.01084423253
414.000000,0.01245811349
415.000000,0.009901308145
416.000000,0.009993659339
417.000000,0.008464322492
418.000000,0.01019738165
419.000000,0.01002344883
420.000000,0.01573598798
421.000000,0.009804296532
422.000000,0.01273289301
423.000000,0.01283354198
424.000000,0.009820896995
425.000000,0.01253397262
426.000000,0.005842891965
427.000000,0.01038773219
428.000000,0.01191377704
429.000000,0.005404918337
430.000000,0.007883719699
431.000000,0.01231564148
432.000000,0.009690924184
433.000000,0.00801001951
434.000000,0.009460716838
435.000000,0.009124243347
436.000000,0.0116598473
437.000000,0.01112027849
438.000000,0.009653625915
439.000000,0.008884995328
440.000000,0.01010955019
441.000000,0.01286925738
442.000000,0.01091866543
443.000000,0.01150019626
444.000000,0.009922658447
445.000000,0.00764213094
446.000000,0.008805843947
447.000000,0.01153179807
448.000000,0.01043757798
449.000000,0.008425314398
450.000000,0.006999129767
451.000000,0.01045813966
452.000000,0.009559648489
453.000000,0.009539614789
454.000000,0.00958377079
455.000000,0.01081250788
456.000000,0.01083565225
457.000000,0.01217310598
458.000000,0.01210781785
459.000000,0.01291732118
460.000000,0.01186805679
461.000000,0.009586346458
462.000000,0.01015129353
463.000000,0.01125056848
464.000000,0.009643899489
465.000000,0.01136574718
466.000000,0.01257651499
467.000000,0.008669272284
468.000000,0.006733507377
469.000000,0.01266414056
470.000000,0.01031495075
471.000000,0.01169941713
472.000000,0.007620160814
473.000000,0.01375349939
474.000000,0.0117675468
475.000000,0.01004100273
476.000000,0.009592071757
477.000000,0.01052679046
478.000000,0.009968542448
479.000000,0.0097476884
480.000000,0.008068990891
481.000000,0.0128369922
482.000000,0.0102354624
483.000000,0.01046719722
484.000000,0.01050713162
485.000000,0.005608306077
486.000000,0.01138253412
487.000000,0.009673523171
488.000000,0.009757031388
489.000000,0.01047879498
490.000000,0.008398076826
491.000000,0.01203367869
492.000000,0.008959159507
493.000000,0.008547629519
494.000000,0.008634711109
495.000000,0.01068083092
496.000000,0.01185921308
497.000000,0.009181972598
498.000000,0.007356230054
499.000000,0.01250621173
500.000000,0.00825579603
501.000000,0.01278046624
502.000000,0.01028716904
503.000000,0.009004133095
504.000000,0.009125945791
505.000000,0.01133507566
506.000000,0.01219553363
507.000000,0.01002602987
508.000000,0.01232195761
509.000000,0.01460790688
510.000000,0.01002334359
511.000000,0.008147230332
512.000000,0.008343645348
513.000000,0.007678262687
514.000000,0.009186260873
515.000000,0.009024869096
516.000000,0.007829240822
517.000000,0.01154702704
518.000000,0.005271390064
519.000000,0.007860085904
520.000000,0.01454001757
521.000000,0.01259317178
522.000000,0.01157143507
523.000000,0.01144889581
524.000000,0.01408502915
525.000000,0.01162345272
526.000000,0.01071665877
527.000000,0.008110779486
528.000000,0.01043365763
529.000000,0.009123423813
530.000000,0.009189364462
531.000000,0.009184097322
532.000000,0.01053449374
533.000000,0.009975946218
534.000000,0.01238955429
535.000000,0.008007338746
536.000000,0.01033355152
537.000000,0.01440471924
538.000000,0.01077721463
539.000000,0.01311083217
540.000000,0.0130020206
541.000000,0.01337681682
542.000000,0.01223555002
543.000000,0.008014802035
544.000000,0.0102579239
545.000000,0.0100496891
546.000000,0.0077310015
547.000000,0.009920029175
548.000000,0.008367481678
549.000000,0.00755719899
550.000000,0.01133161258
551.000000,0.01084506272
552.000000,0.009580000653
553.000000,0.009078859893
554.000000,0.009922966048
555.000000,0.0102439566
556.000000,0.01024375634
557.000000,0.0109836928
558.000000,0.010248533
559.000000,0.01192552865
560.000000,0.01223085813
561.000000,0.01193605389
562.000000,0.009931086517
563.000000,0.01006316532
564.000000,0.01220683023
565.000000,0.01098612875
566.000000,0.01133937214
567.000000,0.006489671511
568.000000,0.006124158785
569.000000,0.01225229802
570.000000,0.01229391695
571.000000,0.01448188101
572.000000,0.01320126385
573.000000,0.01227035121
574.000000,0.01193189684
575.000000,0.009122736581
576.000000,0.01382479008
577.000000,0.01093913995
578.000000,0.01324534107
579.000000,0.01274130013
580.000000,0.01299371188
581.000000,0.01435138241
582.000000,0.01171188199
583.000000,0.01205276289
584.000000,0.01126226717
585.000000,0.01237883623
586.000000,0.0166380017
587.000000,0.01276794242
588.000000,0.01607165288
589.000000,0.01557786537
590.000000,0.0156319678
591.000000,0.01605212153
592.000000,0.0127188527
593.000000,0.01582837151
594.000000,0.01863001856
595.000000,0.01447679838
596.000000,0.01623983833
597.000000,0.01548029402
598.000000,0.01808633294
599.000000,0.01597061177
600.000000,0.02211949975
601.000000,0.01903523454
602.000000,0.0177326962
603.000000,0.02559950112
604.000000,0.02536852909
605.000000,0.0261339156
606.000000,0.02815678811
607.000000,0.02878239847
608.000000,0.03198460234
609.000000,0.03749443836
610.000000,0.04238988967
611.000000,0.0481097358
612.000000,0.05393545218
613.000000,0.06195062553
614.000000,0.07466563903
615.000000,0.09302331442
616.000000,0.1136850289
617.000000,0.1341880931
618.000000,0.159611894
619.000000,0.1842836513
620.000000,0.1917083814
621.000000,0.1831869819
622.000000,0.1579496629
623.000000,0.1341349482
624.000000,0.1097908671
625.000000,0.09123951471
626.000000,0.07170345066
627.000000,0.06545436562
628.000000,0.05414201739
629.000000,0.04714954309
630.000000,0.03822568179
631.000000,0.03603685815
632.000000,0.03514778198
633.000000,0.02640989386
634.000000,0.02775845751
635.000000,0.02655384492
636.000000,0.02210698318
637.000000,0.02371486627
638.000000,0.0202294363
639.000000,0.0223241041
640.000000,0.02003496515
641.000000,0.01866036382
642.000000,0.02155828586
643.000000,0.01861475996
644.000000,0.01904791755
645.000000,0.01359021308
646.000000,0.01426514206
647.000000,0.01686410822
648.000000,0.01667248996
649.000000,0.01445287369
650.000000,0.01585555915
651.000000,0.01193631521
652.000000,0.01425978986
653.000000,0.01133627249
654.000000,0.01412812727
655.000000,0.01230631381
656.000000,0.01184221167
657.000000,0.01309479689
658.000000,0.01648630062
659.000000,0.01070712926
660.000000,0.01141554768
661.000000,0.01465104453
662.000000,0.01157276679
663.000000,0.01586945962
664.000000,0.0126932728
665.000000,0.01235247971
666.000000,0.01281323188
667.000000,0.01551489019
668.000000,0.01328075898
669.000000,0.01294505874
670.000000,0.01236073214
671.000000,0.00868106461
672.000000,0.009987493971
673.000000,0.01467988239
674.000000,0.01331491877
675.000000,0.01264388201
676.000000,0.01286891752
677.000000,0.01047293798
678.000000,0.01220353325
679.000000,0.009695513436
680.000000,0.01225122266
681.000000,0.01001341056
682.000000,0.01098891068
683.000000,0.01229984408
684.000000,0.01071741288
685.000000,0.01264555823
686.000000,0.01224323793
687.000000,0.01203214013
688.000000,0.01394534455
689.000000,0.008333230732
690.000000,0.0080740437
691.000000,0.01248578363
692.000000,0.01312262132
693.000000,0.0152530497
694.000000,0.01273198554
695.000000,0.01287054035
696.000000,0.009435494944
697.000000,0.01269932333
698.000000,0.01253503884
699.000000,0.009069747213
700.000000,0.009383775997
701.000000,0.0109500825
702.000000,0.01174517265
703.000000,0.005276388653
704.000000,0.01130462975
705.000000,0.01162454322
706.000000,0.01080872752
707.000000,0.01169636254
708.000000,0.01207558206
709.000000,0.00914229451
710.000000,0.01200047768
711.000000,0.01066879905
712.000000,0.009283706811
713.000000,0.01159855912
714.000000,0.01416115082
715.000000,0.008271999094
716.000000,0.007893175005
717.000000,0.007901039498
718.000000,0.01517080264
719.000000,0.01072266969
720.000000,0.0111173953
721.000000,0.009674647979
722.000000,0.009379261655
723.000000,0.007219753028
724.000000,0.01162859462
725.000000,0.01182224047
726.000000,0.007366462746
727.000000,0.009250758691
728.000000,0.009867520937
729.000000,0.01132365364
730.000000,0.01188510395
731.000000,0.01367095907
732.000000,0.01417222228
733.000000,0.01360564124
734.000000,0.01417877815
735.000000,0.009191532807
736.000000,0.01044578141
737.000000,0.01387424319
738.000000,0.01219858027
739.000000,0.01169503865
740.000000,0.00773819709
741.000000,0.008018658564
742.000000,0.01324245323
743.000000,0.01251009847
744.000000,0.01128404343
745.000000,0.01110259034
746.000000,0.008532108719
747.000000,0.01278619756
748.000000,0.01417603173
749.000000,0.01545925271
750.000000,0.01234556929
751.000000,0.01191634961
752.000000,0.01021571653
753.000000,0.01494318732
754.000000,0.01600598576
755.000000,0.0114687269
756.000000,0.01338730502
757.000000,0.01310657804
758.000000,0.01190666928
759.000000,0.008199173763
760.000000,0.01261365442
761.000000,0.01472528368
762.000000,0.01080322174
763.000000,0.01220793218
764.000000,0.007532899091
765.000000,0.01690419185
766.000000,0.01559430814
767.000000,0.01496999685
768.000000,0.01465374798
769.000000,0.01427051446
770.000000,0.01577774202
771.000000,0.01575101473
772.000000,0.0163645602
773.000000,0.01734541681
774.000000,0.01828887249
775.000000,0.02184574515
776.000000,0.01666062737
777.000000,0.02101606113
778.000000,0.02032063392
779.000000,0.02054341228
780.000000,0.01955121053
781.000000,0.02722638135
782.000000,0.02607654536
783.000000,0.02897799417
784.000000,0.03434816284
785.000000,0.03478327941
786.000000,0.04130219115
787.000000,0.04633240706
788.000000,0.05444015833
789.000000,0.06250623953
790.000000,0.06776913945
791.000000,0.0815531313
792.000000,0.09029613712
793.000000,0.1007369105
794.000000,0.1073653375
795.000000,0.1120459643
796.000000,0.1053696646
797.000000,0.1010188858
798.000000,0.09285229207
799.000000,0.07916624368
800.000000,0.07357690133
801.000000,0.05903536718
802.000000,0.05328979594
803.000000,0.04554659723
804.000000,0.04004596486
805.000000,0.03475577057
806.000000,0.03236908703
807.000000,0.0304174392
808.000000,0.02647939525
809.000000,0.02780941913
810.000000,0.02736398759
811.000000,0.01980412341
812.000000,0.02328274995
813.000000,0.02091532654
814.000000,0.02009699963
815.000000,0.02372344571
816.000000,0.02050468095
817.000000,0.01814393233
818.000000,0.01729359863
819.000000,0.01213014115
820.000000,0.01757391293
821.000000,0.01414534122
822.000000,0.0156476645
823.000000,0.01517968868
824.000000,0.01662374259
825.000000,0.01850933674
826.000000,0.01618434385
827.000000,0.01655265075
828.000000,0.01334575272
829.000000,0.01455092602
830.000000,0.01501712043
831.000000,0.01045178928
832.000000,0.01727840226
833.000000,0.01164053088
834.000000,0.01039978519
835.000000,0.01611631256
836.000000,0.01698640053
837.000000,0.01125184738
838.000000,0.01134657908
839.000000,0.0187182063
840.000000,0.01264633407
841.000000,0.008384790186
842.000000,0.01106485812
843.000000,0.01623444095
844.000000,0.0134932499
845.000000,0.0136276928
846.000000,0.01452452897
847.000000,0.01338207486
848.000000,0.01132217549
849.000000,0.008760791379
850.000000,0.01280556801
851.000000,0.009646583028
852.000000,0.01173426575
853.000000,0.01533489971
854.000000,0.01287047099
855.000000,0.01188224836
856.000000,0.01187049592
857.000000,0.01317826982
858.000000,0.01353828876
859.000000,0.009042836635
860.000000,0.01202949614
861.000000,0.01507326569
862.000000,0.01313543959
863.000000,0.01008241903
864.000000,0.01024056753
865.000000,0.007464263637
866.000000,0.0099907244
867.000000,0.01478183162
868.000000,0.01142027903
869.000000,0.009841701814
870.000000,0.01039281809
871.000000,0.01131781212
872.000000,0.01132133611
873.000000,0.01082246272
874.000000,0.009989036706
875.000000,0.01279799443
876.000000,0.0146003468
877.000000,0.01038656519
878.000000,0.01043990032
879.000000,0.01390186529
880.000000,0.00859712576
881.000000,0.01034400647
882.000000,0.01077350503
883.000000,0.01186887937
884.000000,0.01098776362
885.000000,0.009769463532
886.000000,0.01216941297
887.000000,0.009179409081
888.000000,0.008076931498
889.000000,0.007513272825
890.000000,0.01307571665
891.000000,0.00811384608
892.000000,0.01249161997
893.000000,0.01294958842
894.000000,0.01323335728
895.000000,0.01128231377
896.000000,0.01054814128
897.000000,0.01182949918
898.000000,0.01048506658
899.000000,0.009115290249
900.000000,0.01421452643
901.000000,0.009931533191
902.000000,0.01532977521
903.000000,0.01278596226
904.000000,0.0108666233
905.000000,0.01267122594
906.000000,0.01427733779
907.000000,0.009082148811
908.000000,0.01000855796
909.000000,0.009787583101
910.000000,0.01224122492
911.000000,0.01274577128
912.000000,0.01202241333
913.000000,0.01053640235
914.000000,0.01096544421
915.000000,0.01442718146
916.000000,0.01431899831
917.000000,0.0123811613
918.000000,0.009531943293
919.000000,0.01344555438
920.000000,0.01280224809
921.000000,0.01277157309
922.000000,0.01576697946
923.000000,0.0139904945
924.000000,0.01044471533
925.000000,0.01051029175
926.000000,0.01524851123
927.000000,0.01294942601
928.000000,0.01436435845
929.000000,0.01243194109
930.000000,0.0108026208
931.000000,0.01340935622
932.000000,0.01606075723
933.000000,0.01368593579
934.000000,0.0108241911
935.000000,0.01253434349
936.000000,0.01224323761
937.000000,0.01367220631
938.000000,0.01545474155
939.000000,0.01745221085
940.000000,0.01406173509
941.000000,0.01285328572
942.000000,0.01396762878
943.000000,0.01394931225
944.000000,0.01317644167
945.000000,0.01418736646
946.000000,0.01426092919
947.000000,0.01203599125
948.000000,0.01561832593
949.000000,0.01393840064
950.000000,0.01284549199
951.000000,0.01595078686
952.000000,0.01416282338
953.000000,0.01879980984
954.000000,0.01645333553
955.000000,0.01584887119
956.000000,0.01439299465
957.000000,0.01531472326
958.000000,0.01806479485
959.000000,0.01524768636
960.000000,0.01841713199
961.000000,0.01299116137
962.000000,0.01790728653
963.000000,0.01948059217
964.000000,0.01889306108
965.000000,0.01860623262
966.000000,0.02106683154
967.000000,0.01780589687
968.000000,0.01806027527
969.000000,0.0207945344
970.000000,0.02359956173
971.000000,0.02272655953
972.000000,0.02221104744
973.000000,0.02401260706
974.000000,0.02519693286
975.000000,0.02282252475
976.000000,0.02080655586
977.000000,0.02563237184
978.000000,0.02610567382
979.000000,0.02953329912
980.000000,0.03010828897
981.000000,0.03286578552
982.000000,0.03787032975
983.000000,0.03999284189
984.000000,0.04302299405
985.000000,0.05025976566
986.000000,0.050630981
987.000000,0.05635182331
988.000000,0.06643202027
989.000000,0.07007442039
990.000000,0.07959063323
991.000000,0.09896264441
992.000000,0.1146221171
993.000000,0.1386197757
994.000000,0.1707749464
995.000000,0.2163483358
996.000000,0.2785338282
997.000000,0.3748717858
998.000000,0.5130709307
999.000000,0.7081806284
1000.000000,0.916385499
1001.000000,1.015373417
1002.000000,0.918011494
1003.000000,0.7153291899
1004.000000,0.5152948581
1005.000000,0.3798007965
1006.000000,0.2853393012
1007.000000,0.2215597992
1008.000000,0.1737581626
1009.000000,0.1467438786
1010.000000,0.1233626967
1011.000000,0.1055098201
1012.000000,0.09304868537
1013.000000,0.08534211602
1014.000000,0.08024384141
1015.000000,0.07559395948
1016.000000,0.07547977879
1017.000000,0.0687250626
1018.000000,0.07060077653
1019.000000,0.06987689907
1020.000000,0.07528872562
1021.000000,0.07889675313
1022.000000,0.08477735822
1023.000000,0.09388123993
1024.000000,0.1099980737
1025.000000,0.1333109136
1026.000000,0.1660743266
1027.000000,0.2076325045
1028.000000,0.2627427709
1029.000000,0.337814749
1030.000000,0.4097801975
1031.000000,0.4404503735
1032.000000,0.4084922322
1033.000000,0.3376471668
1034.000000,0.261483963
1035.000000,0.1991940696
1036.000000,0.152277411
1037.000000,0.1235555155
1038.000000,0.0978696907
1039.000000,0.08403044025
1040.000000,0.07235942144
1041.000000,0.0594111386
1042.000000,0.05429393805
1043.000000,0.04794493863
1044.000000,0.04764416248
1045.000000,0.04083948364
1046.000000,0.03292513889
1047.000000,0.03487936755
1048.000000,0.03253994631
1049.000000,0.02936084652
1050.000000,0.02733774882
1051.000000,0.02783101317
1052.000000,0.02669045395
1053.000000,0.02512097523
1054.000000,0.02127599255
1055.000000,0.02188465257
1056.000000,0.01848857408
1057.000000,0.01791248083
1058.000000,0.01915294531
1059.000000,0.01759407905
1060.000000,0.01835756536
1061.000000,0.02367029078
1062.000000,0.01926676143
1063.000000,0.01611312461
1064.000000,0.01319759496
1065.000000,0.01550933464
1066.000000,0.01400869632
1067.000000,0.01219612955
1068.000000,0.01777414239
1069.000000,0.01512294998
1070.000000,0.01674232681
1071.000000,0.0218391521
1072.000000,0.01601160017
1073.000000,0.01552871163
1074.000000,0.01582925009
1075.000000,0.01444661731
1076.000000,0.0131847861
1077.000000,0.01428271448
1078.000000,0.01687214551
1079.000000,0.0139353786
1080.000000,0.01163237048
1081.000000,0.01178115147
1082.000000,0.01212758312
1083.000000,0.01412807595
1084.000000,0.01499560895
1085.000000,0.01492853203
1086.000000,0.01628734315
1087.000000,0.01345069098
1088.000000,0.01548686043
1089.000000,0.01443077184
1090.000000,0.01515989824
1091.000000,0.01003821972
1092.000000,0.01619120832
1093.000000,0.01058885509
1094.000000,0.01141056335
1095.000000,0.0152066778
1096.000000,0.01286725466
1097.000000,0.01717375699
1098.000000,0.01395957989
1099.000000,0.01158489646
1100.000000,0.01395460348
1101.000000,0.01284865678
1102.000000,0.01676812099
1103.000000,0.01693839834
1104.000000,0.01517710162
1105.000000,0.01291360253
1106.000000,0.01392411809
1107.000000,0.01588824618
1108.000000,0.01222826274
1109.000000,0.01228585415
1110.000000,0.01562656117
1111.000000,0.01545783991
1112.000000,0.01358543714
1113.000000,0.01358405993
1114.000000,0.01029754634
1115.000000,0.01665499942
1116.000000,0.01415281546
1117.000000,0.01164002456
1118.000000,0.01236121386
1119.000000,0.01296154179
1120.000000,0.01830035494
1121.000000,0.01643560921
1122.000000,0.01255803149
1123.000000,0.01913708889
1124.000000,0.01831877435
1125.000000,0.01376256994
1126.000000,0.0108252967
1127.000000,0.01836144066
1128.000000,0.01555690975
1129.000000,0.01685141912
1130.000000,0.0164787062
1131.000000,0.02050122648
1132.000000,0.02145223431
1133.000000,0.02069321356
1134.000000,0.01942910904
1135.000000,0.02100445439
1136.000000,0.0225841238
1137.000000,0.0191860401
1138.000000,0.02597574467
1139.000000,0.02420026731
1140.000000,0.02695210397
1141.000000,0.02859137194
1142.000000,0.03238531133
1143.000000,0.03543895414
1144.000000,0.04104922985
1145.000000,0.04002593196
1146.000000,0.04402431565
1147.000000,0.05249940738
1148.000000,0.05899152563
1149.000000,0.07220857978
1150.000000,0.08161351712
1151.000000,0.09898783002
1152.000000,0.118319276
1153.000000,0.13637297
1154.000000,0.1488541084
1155.000000,0.1568446551
1156.000000,0.1514261198
1157.000000,0.1317665441
1158.000000,0.1184057914
1159.000000,0.1007760809
1160.000000,0.08479575555
1161.000000,0.07188458815
1162.000000,0.06361088819
1163.000000,0.05683303108
1164.000000,0.0508898719
1165.000000,0.04873119747
1166.000000,0.04475201181
1167.000000,0.03925842091
1168.000000,0.03735624938
1169.000000,0.03968765858
1170.000000,0.03635890889
1171.000000,0.03848997776
1172.000000,0.04020362712
1173.000000,0.04319252497
1174.000000,0.04499155972
1175.000000,0.0508540798
1176.000000,0.05256443271
1177.000000,0.06229420463
1178.000000,0.06957616874
1179.000000,0.08409938356
1180.000000,0.09957298756
1181.000000,0.1142009859
1182.000000,0.1246413404
1183.000000,0.1370889796
1184.000000,0.1299669793
1185.000000,0.1151141247
1186.000000,0.09606378767
1187.000000,0.08053943313
1188.000000,0.06858469861
1189.000000,0.0570302089
1190.000000,0.05103168559
1191.000000,0.0425447348
1192.000000,0.03568261435
1193.000000,0.03462083129
1194.000000,0.02900606279
1195.000000,0.02818190967
1196.000000,0.02206669595
1197.000000,0.02328466042
1198.000000,0.02367538992
1199.000000,0.0200582239
1200.000000,0.02028402142
1201.000000,0.02064177582
1202.000000,0.01883936433
1203.000000,0.02161669225
1204.000000,0.01694935998
1205.000000,0.01659944254
1206.000000,0.01618599218
1207.000000,0.01215222896
1208.000000,0.01267857082
1209.000000,0.01648866604
1210.000000,0.01447256846
1211.000000,0.01764458069
1212.000000,0.01447061065
1213.000000,0.0140677495
1214.000000,0.01626502682
1215.000000,0.01457683604
1216.000000,0.01706269196
1217.000000,0.01158530759
1218.000000,0.01443567364
1219.000000,0.01478247714
1220.000000,0.01441280634
1221.000000,0.01549155519
1222.000000,0.01514266171
1223.000000,0.01306116988
1224.000000,0.01178390022
1225.000000,0.01477848016
1226.000000,0.01284312856
1227.000000,0.01459225293
1228.000000,0.01531590969
1229.000000,0.01295566204
1230.000000,0.01069582922
1231.000000,0.01193577288
1232.000000,0.01397114117
1233.000000,0.01187373086
1234.000000,0.01466033
1235.000000,0.01234484227
1236.000000,0.01249125707
1237.000000,0.01093701997
1238.000000,0.01195249249
1239.000000,0.01430163563
1240.000000,0.01138978071
1241.000000,0.01136913621
1242.000000,0.0104394269
1243.000000,0.0135211158
1244.000000,0.00888145448
1245.000000,0.01058166088
1246.000000,0.01367467074
1247.000000,0.01466737273
1248.000000,0.01134770137
1249.000000,0.01369035658
1250.000000,0.007768909504
1251.000000,0.01322409473
1252.000000,0.01226952389
1253.000000,0.009215871913
1254.000000,0.008081308324
1255.000000,0.01060903356
1256.000000,0.01211845926
1257.000000,0.01231808594
1258.000000,0.0117852348
1259.000000,0.01308895356
1260.000000,0.01293229182
1261.000000,0.008749263017
1262.000000,0.01073452982
1263.000000,0.0104634302
1264.000000,0.01352543237
1265.000000,0.01047475448
1266.000000,0.01345858102
1267.000000,0.01161989447
1268.000000,0.01611672238
1269.000000,0.01131742561
1270.000000,0.01141559144
1271.000000,0.01117408715
1272.000000,0.01168281414
1273.000000,0.0162368924
1274.000000,0.01036435551
1275.000000,0.009619869305
1276.000000,0.01095954504
1277.000000,0.01269034668
1278.000000,0.009363201104
1279.000000,0.01292350293
1280.000000,0.01285149043
1281.000000,0.01098739609
1282.000000,0.01080662204
1283.000000,0.009728937892
1284.000000,0.0107505867
1285.000000,0.00969495394
1286.000000,0.01377427787
1287.000000,0.01453702982
1288.000000,0.01071249162
1289.000000,0.01119416698
1290.000000,0.007475736798
1291.000000,0.01021094096
1292.000000,0.01194245048
1293.000000,0.01180745034
1294.000000,0.01150548535
1295.000000,0.01294735012
1296.000000,0.01143805064
1297.000000,0.01047941342
1298.000000,0.01445380287
1299.000000,0.007420917077
1300.000000,0.008940293042
1301.000000,0.009775465483
1302.000000,0.009791100644
1303.000000,0.00969957617
1304.000000,0.01079513728
1305.000000,0.00981931589
1306.000000,0.01112786295
1307.000000,0.01241902091
1308.000000,0.01129628373
1309.000000,0.01150558606
1310.000000,0.009374066578
1311.000000,0.008976529331
1312.000000,0.0106616857
1313.000000,0.01309429423
1314.000000,0.01200066682
1315.000000,0.01342212968
1316.000000,0.01323930518
1317.000000,0.01350296198
1318.000000,0.009661973943
1319.000000,0.01374384972
1320.000000,0.01279206815
1321.000000,0.0154227174
1322.000000,0.01247075893
1323.000000,0.0119537726
1324.000000,0.01105583531
1325.000000,0.01164986782
1326.000000,0.00804234642
1327.000000,0.01084265563
1328.000000,0.0112734613
1329.000000,0.01332827784
1330.000000,0.01006415289
1331.000000,0.01164306168
1332.000000,0.01502154337
1333.000000,0.01034958782
1334.000000,0.01308902911
1335.000000,0.01036519745
1336.000000,0.01123947729
1337.000000,0.01236675145
1338.000000,0.01321861433
1339.000000,0.01050052156
1340.000000,0.009464268646
1341.000000,0.01452107796
1342.000000,0.01189474806
1343.000000,0.01311524046
1344.000000,0.01336838203
1345.000000,0.01307692255
1346.000000,0.01107366038
1347.000000,0.01134044096
1348.000000,0.008548231416
1349.000000,0.01200541148
1350.000000,0.01073903512
1351.000000,0.01164472668
1352.000000,0.01541311433
1353.000000,0.01309554127
1354.000000,0.01186219522
1355.000000,0.009089786065
1356.000000,0.01324756385
1357.000000,0.01484219118
1358.000000,0.01023160393
1359.000000,0.01272529091
1360.000000,0.01089258886
1361.000000,0.01164509483
1362.000000,0.01125318679
1363.000000,0.008827905787
1364.000000,0.01102768619
1365.000000,0.008877514581
1366.000000,0.01483994677
1367.000000,0.01419807383
1368.000000,0.01226862545
1369.000000,0.01277169776
1370.000000,0.01237678334
1371.000000,0.0126973432
1372.000000,0.01273638402
1373.000000,0.0119256208
1374.000000,0.01211713239
1375.000000,0.009850050233
1376.000000,0.01057692619
1377.000000,0.011409495
1378.000000,0.01306660162
1379.000000,0.0119859631
1380.000000,0.01652586336
1381.000000,0.01247071736
1382.000000,0.01220943234
1383.000000,0.01383093833
1384.000000,0.01507724006
1385.000000,0.01677135839
1386.000000,0.01512633784
1387.000000,0.01214156563
1388.000000,0.01305208716
1389.000000,0.01554170579
1390.000000,0.0140827545
1391.000000,0.01524909703
1392.000000,0.01364108212
1393.000000,0.01704136183
1394.000000,0.01685826345
1395.000000,0.01635357521
1396.000000,0.0145870544
1397.000000,0.01126273011
1398.000000,0.0119248493
1399.000000,0.01536242244
1400.000000,0.01616896371
1401.000000,0.009362371439
1402.000000,0.01432063757
1403.000000,0.01769875257
1404.000000,0.01752223677
1405.000000,0.01490395825
1406.000000,0.01735982305
1407.000000,0.01642601292
1408.000000,0.01620999084
1409.000000,0.01911664817
1410.000000,0.01946517519
1411.000000,0.01654452568
1412.000000,0.01608146557
1413.000000,0.01575916886
1414.000000,0.01595334356
1415.000000,0.02179130116
1416.000000,0.0233395912
1417.000000,0.02062163996
1418.000000,0.02284446767
1419.000000,0.02008363675
1420.000000,0.02197642153
1421.000000,0.02466001857
1422.000000,0.02432072006
1423.000000,0.02455536642
1424.000000,0.0223954883
1425.000000,0.02393642612
1426.000000,0.02722420889
1427.000000,0.0283601732
1428.000000,0.03087657013
1429.000000,0.0315562825
1430.000000,0.0343910817
1431.000000,0.03722394357
1432.000000,0.04072457928
1433.000000,0.04284572543
1434.000000,0.04510393319
1435.000000,0.04963577048
1436.000000,0.05660489039
1437.000000,0.05989422781
1438.000000,0.06482228121
1439.000000,0.07230603322
1440.000000,0.08376466503
1441.000000,0.09488298114
1442.000000,0.1086587803
1443.000000,0.1202560617
1444.000000,0.140393661
1445.000000,0.1558946491
1446.000000,0.1762958361
1447.000000,0.19566578
1448.000000,0.2153342404
1449.000000,0.2285646683
1450.000000,0.2308832288
1451.000000,0.2255652011
1452.000000,0.2113419942
1453.000000,0.197107485
1454.000000,0.1761443538
1455.000000,0.1562585425
1456.000000,0.1365796845
1457.000000,0.1192905221
1458.000000,0.1055653997
1459.000000,0.09480564581
1460.000000,0.08523306457
1461.000000,0.07442069659
1462.000000,0.0675252795
1463.000000,0.06011988553
1464.000000,0.05482325804
1465.000000,0.04776459373
1466.000000,0.0481490936
1467.000000,0.04415435941
1468.000000,0.04284584283
1469.000000,0.03623393525
1470.000000,0.03540314308
1471.000000,0.03136798638
1472.000000,0.03186827927
1473.000000,0.029603542
1474.000000,0.02976865237
1475.000000,0.02693703287
1476.000000,0.02735977545
1477.000000,0.02416512599
1478.000000,0.02537388904
1479.000000,0.02282401606
1480.000000,0.02182942934
1481.000000,0.02218104733
1482.000000,0.02211828044
1483.000000,0.01811840772
1484.000000,0.01740743474
1485.000000,0.02025058065
1486.000000,0.01935091549
1487.000000,0.01513176089
1488.000000,0.01541313344
1489.000000,0.01689673238
1490.000000,0.01870162548
1491.000000,0.01819776594
1492.000000,0.01949633126
1493.000000,0.01957680302
1494.000000,0.02167809224
1495.000000,0.01408990094
1496.000000,0.01661916997
1497.000000,0.01858768146
1498.000000,0.0139301765
1499.000000,0.0134841391
1500.000000,0.01646298641
1501.000000,0.01807954399
1502.000000,0.01827050979
1503.000000,0.01228821716
1504.000000,0.01328396242
1505.000000,0.0153652197
1506.000000,0.01444689926
1507.000000,0.01602768103
1508.000000,0.0155980386
1509.000000,0.01869925578
1510.000000,0.01511033229
1511.000000,0.01554358914
1512.000000,0.01530043529
1513.000000,0.01726892818
1514.000000,0.01294173542
1515.000000,0.01582975045
1516.000000,0.01356994582
1517.000000,0.01231159388
1518.000000,0.01735360306
1519.000000,0.01609092144
1520.000000,0.01779677642
1521.000000,0.01559743883
1522.000000,0.01638802481
1523.000000,0.01542034492
1524.000000,0.01629888171
1525.000000,0.0144334635
1526.000000,0.01860464069
1527.000000,0.01361362373
1528.000000,0.01872475099
1529.000000,0.01508213345
1530.000000,0.01723686281
1531.000000,0.0158947515
1532.000000,0.01658611536
1533.000000,0.01871615842
1534.000000,0.01620070579
1535.000000,0.01419762591
1536.000000,0.01663079708
1537.000000,0.01756501348
1538.000000,0.01165262405
1539.000000,0.01850741725
1540.000000,0.01890241303
1541.000000,0.01349582621
1542.000000,0.01684817896
1543.000000,0.01896851684
1544.000000,0.01532632988
1545.000000,0.01701446713
1546.000000,0.01744018212
1547.000000,0.01948901986
1548.000000,0.02088813647
1549.000000,0.01898589836
1550.000000,0.01953882584
1551.000000,0.02163217672
1552.000000,0.02131488742
1553.000000,0.02051192435
1554.000000,0.0238570968
1555.000000,0.01903965345
1556.000000,0.02274107451
1557.000000,0.02230685842
1558.000000,0.02290630675
1559.000000,0.02513110194
1560.000000,0.02576060103
1561.000000,0.03156956065
1562.000000,0.02918809318
1563.000000,0.02994848515
1564.000000,0.03401787739
1565.000000,0.03449391857
1566.000000,0.03081381153
1567.000000,0.03700593066
1568.000000,0.04089220161
1569.000000,0.04136119789
1570.000000,0.04682957318
1571.000000,0.04976168891
1572.000000,0.05672180099
1573.000000,0.05926134484
1574.000000,0.06661079751
1575.000000,0.07927857511
1576.000000,0.09319950075
1577.000000,0.1109052011
1578.000000,0.1270371908
1579.000000,0.1494915879
1580.000000,0.179507397
1581.000000,0.204980718
1582.000000,0.2304894474
1583.000000,0.2369067252
1584.000000,0.228400982
1585.000000,0.2141127008
1586.000000,0.1923869386
1587.000000,0.1710922008
1588.000000,0.1559778746
1589.000000,0.144933388
1590.000000,0.1397003082
1591.000000,0.1381909122
1592.000000,0.1441679326
1593.000000,0.1537499104
1594.000000,0.1692534257
1595.000000,0.1932406644
1596.000000,0.22346172
1597.000000,0.2719132725
1598.000000,0.3388861359
1599.000000,0.4257138351
1600.000000,0.5196404611
1601.000000,0.6076266969
1602.000000,0.644039772
1603.000000,0.6098081319
1604.000000,0.5178275124
1605.000000,0.41613957
1606.000000,0.3317523033
1607.000000,0.2612356977
1608.000000,0.2084206957
1609.000000,0.1724925714
1610.000000,0.1393491931
1611.000000,0.119353165
1612.000000,0.1019668126
1613.000000,0.09011176314
1614.000000,0.07530047537
1615.000000,0.06631508269
1616.000000,0.06099185916
1617.000000,0.05532558697
1618.000000,0.05101983234
1619.000000,0.04602528613
1620.000000,0.04407002561
1621.000000,0.04152979569
1622.000000,0.0379621168
1623.000000,0.03312576129
1624.000000,0.03548374614
1625.000000,0.02837478031
1626.000000,0.02942894427
1627.000000,0.03019817779
1628.000000,0.02595161699
1629.000000,0.02860986258
1630.000000,0.02882541029
1631.000000,0.02723427477
1632.000000,0.02413486744
1633.000000,0.02445790543
1634.000000,0.02079613334
1635.000000,0.02197292423
1636.000000,0.02149778801
1637.000000,0.0202402088
1638.000000,0.01986515816
1639.000000,0.01868652259
1640.000000,0.01477517828
1641.000000,0.01907160563
1642.000000,0.01853168219
1643.000000,0.02164279355
1644.000000,0.01865927539
1645.000000,0.01708046557
1646.000000,0.0184025719
1647.000000,0.0176401535
1648.000000,0.01612193751
1649.000000,0.01516570887
1650.000000,0.01278527759
1651.000000,0.0157414167
1652.000000,0.01853432447
1653.000000,0.01140768815
1654.000000,0.0130531313
1655.000000,0.01628158346
1656.000000,0.01500537609
1657.000000,0.01530803854
1658.000000,0.01063225682
1659.000000,0.01302406887
1660.000000,0.01507424569
1661.000000,0.01511893586
1662.000000,0.01441840842
1663.000000,0.01196358007
1664.000000,0.01468777518
1665.000000,0.011134732
1666.000000,0.0115433582
1667.000000,0.01100320971
1668.000000,0.01610175969
1669.000000,0.01232585906
1670.000000,0.01317501243
1671.000000,0.008607794784
1672.000000,0.01509201152
1673.000000,0.01376148733
1674.000000,0.009471580171
1675.000000,0.009501145945
1676.000000,0.01594231654
1677.000000,0.01069214787
1678.000000,0.01618295931
1679.000000,0.01152157504
1680.000000,0.007450256744
1681.000000,0.01455511726
1682.000000,0.01329577378
1683.000000,0.01360328362
1684.000000,0.01118095838
1685.000000,0.01172156389
1686.000000,0.01401151
1687.000000,0.01041772752
1688.000000,0.008091092125
1689.000000,0.01378546136
1690.000000,0.01069677954
1691.000000,0.01443883124
1692.000000,0.0108946764
1693.000000,0.01096848188
1694.000000,0.01128287961
1695.000000,0.007048678412
1696.000000,0.01406576877
1697.000000,0.01043013074
1698.000000,0.01126424177
1699.000000,0.01454891335
1700.000000,0.01182635778
1701.000000,0.01335619142
1702.000000,0.01221093182
1703.000000,0.01305702355
1704.000000,0.01204208467
1705.000000,0.01376967376
1706.000000,0.011019078
1707.000000,0.01233630531
1708.000000,0.009976984823
1709.000000,0.01373973346
1710.000000,0.006987224581
1711.000000,0.01169854671
1712.000000,0.01202770384
1713.000000,0.01196935701
1714.000000,0.01125158209
1715.000000,0.01392365705
1716.000000,0.01545526331
1717.000000,0.0100189325
1718.000000,0.00737531253
1719.000000,0.008999324613
1720.000000,0.009531528228
1721.000000,0.01086710412
1722.000000,0.01101144039
1723.000000,0.01326142946
1724.000000,0.01023604314
1725.000000,0.01099989764
1726.000000,0.01127827453
1727.000000,0.009287833291
1728.000000,0.01039403228
1729.000000,0.0165257097
1730.000000,0.01081639116
1731.000000,0.0090624459
1732.000000,0.006619402859
1733.000000,0.01303503602
1734.000000,0.01030279233
1735.000000,0.009666673136
1736.000000,0.01581105032
1737.000000,0.01377395116
1738.000000,0.007475010296
1739.000000,0.01019133526
1740.000000,0.01287058737
1741.000000,0.01253338513
1742.000000,0.00862686014
1743.000000,0.01439463772
1744.000000,0.01453165784
1745.000000,0.0086043072
1746.000000,0.007279166587
1747.000000,0.008018627623
1748.000000,0.01212193162
1749.000000,0.01293528228
1750.000000,0.01113646303
1751.000000,0.00956658826
1752.000000,0.01056127115
1753.000000,0.01186530083
1754.000000,0.008300813577
1755.000000,0.007324026325
1756.000000,0.01053815089
1757.000000,0.0131678236
1758.000000,0.01107286066
1759.000000,0.01107055422
1760.000000,0.00932505463
1761.000000,0.01250541437
1762.000000,0.007242029573
1763.000000,0.01051821042
1764.000000,0.00945317683
1765.000000,0.01032336973
1766.000000,0.00876934031
1767.000000,0.0121120911
1768.000000,0.01045097464
1769.000000,0.009404483415
1770.000000,0.01160778251
1771.000000,0.01047723438
1772.000000,0.009533873212
1773.000000,0.009384809591
1774.000000,0.01211417277
1775.000000,0.008671781625
1776.000000,0.01009833501
1777.000000,0.009998894003
1778.000000,0.0111557462
1779.000000,0.0101355018
1780.000000,0.014829305
1781.000000,0.007016617527
1782.000000,0.01168853057
1783.000000,0.01043257583
1784.000000,0.01270922421
1785.000000,0.007237091618
1786.000000,0.01291354279
1787.000000,0.007709162391
1788.000000,0.01185035302
1789.000000,0.01148611233
1790.000000,0.01051967724
1791.000000,0.008978583784
1792.000000,0.008814939503
1793.000000,0.01063853646
1794.000000,0.008935740308
1795.000000,0.006531549835
1796.000000,0.006813726193
1797.000000,0.0120248801
1798.000000,0.01207021426
1799.000000,0.01145242121
1800.000000,0.01051531548
1801.000000,0.01117919452
1802.000000,0.01140686713
1803.000000,0.01091835097
1804.000000,0.008829577856
1805.000000,0.008945025215
1806.000000,0.008105623244
1807.000000,0.01071046129
1808.000000,0.00842253418
1809.000000,0.01008520748
1810.000000,0.01303116664
1811.000000,0.009646834387
1812.000000,0.0123402092
1813.000000,0.01351458541
1814.000000,0.006745407042
1815.000000,0.007524388502
1816.000000,0.01133817029
1817.000000,0.008972554521
1818.000000,0.01145932818
1819.000000,0.01180287247
1820.000000,0.009359824916
1821.000000,0.01203940903
1822.000000,0.01387337923
1823.000000,0.01229745042
1824.000000,0.008634888782
1825.000000,0.0100931584
1826.000000,0.009310207095
1827.000000,0.0135191433
1828.000000,0.009996332806
1829.000000,0.009001814341
1830.000000,0.01047515357
1831.000000,0.01140993216
1832.000000,0.00962955041
1833.000000,0.01059357932
1834.000000,0.0103817295
1835.000000,0.01185722316
1836.000000,0.01232720447
1837.000000,0.01092815029
1838.000000,0.009445469264
1839.000000,0.01119153312
1840.000000,0.008595924168
1841.000000,0.01252807118
1842.000000,0.01107682841
1843.000000,0.01086853122
1844.000000,0.005530623543
1845.000000,0.01511719419
1846.000000,0.01328876956
1847.000000,0.01292105463
1848.000000,0.01063590493
1849.000000,0.01172718152
1850.000000,0.01609978336
1851.000000,0.009023006548
1852.000000,0.01188463273
1853.000000,0.01159914904
1854.000000,0.01068133091
1855.000000,0.01110916482
1856.000000,0.00844592594
1857.000000,0.01170508062
1858.000000,0.007793565839
1859.000000,0.01408219079
1860.000000,0.01202008807
1861.000000,0.008720301406
1862.000000,0.006239120126
1863.000000,0.01063670155
1864.000000,0.01144395372
1865.000000,0.008440359955
1866.000000,0.01378700801
1867.000000,0.01098022013
1868.000000,0.009510883982
1869.000000,0.007647859913
1870.000000,0.01020182306
1871.000000,0.01004590913
1872.000000,0.01174503185
1873.000000,0.01254268873
1874.000000,0.01050539212
1875.000000,0.01136542181
1876.000000,0.01329198506
1877.000000,0.01167768764
1878.000000,0.009924328017
1879.000000,0.01167735608
1880.000000,0.009394318228
1881.000000,0.01134002354
1882.000000,0.01053650596
1883.000000,0.008236590356
1884.000000,0.0116386265
1885.000000,0.01059743239
1886.000000,0.01189072418
1887.000000,0.007770609583
1888.000000,0.01263864434
1889.000000,0.01272238447
1890.000000,0.009714925517
1891.000000,0.01021683882
1892.000000,0.01050531136
1893.000000,0.01036362387
1894.000000,0.01207207446
1895.000000,0.008969725465
1896.000000,0.008092625913
1897.000000,0.009900967299
1898.000000,0.01417753291
1899.000000,0.009594974207
1900.000000,0.008367749271
1901.000000,0.008522699955
1902.000000,0.0106879306
1903.000000,0.01270111186
1904.000000,0.008870901453
1905.000000,0.01068675032
1906.000000,0.01076171497
1907.000000,0.011261344
1908.000000,0.01061606638
1909.000000,0.01242521566
1910.000000,0.01169511979
1911.000000,0.009087673518
1912.000000,0.01516759893
1913.000000,0.007588158883
1914.000000,0.00767612511
1915.000000,0.01238043129
1916.000000,0.01068025659
1917.000000,0.009809153045
1918.000000,0.01070483541
1919.000000,0.01167364224
1920.000000,0.009452430021
1921.000000,0.009025693846
1922.000000,0.008196100339
1923.000000,0.008566921042
1924.000000,0.008686990429
1925.000000,0.01257553006
1926.000000,0.01083993571
1927.000000,0.01136693854
1928.000000,0.009150403951
1929.000000,0.01237148428
1930.000000,0.007150663108
1931.000000,0.01121871811
1932.000000,0.01165715692
1933.000000,0.009106755277
1934.000000,0.008210209844
1935.000000,0.01130046527
1936.000000,0.008837417634
1937.000000,0.008464564742
1938.000000,0.01020814758
1939.000000,0.008011679913
1940.000000,0.009974184863
1941.000000,0.01429934156
1942.000000,0.009370316047
1943.000000,0.01205880317
1944.000000,0.008135808542
1945.000000,0.01040795365
1946.000000,0.009697399563
1947.000000,0.00990413679
1948.000000,0.01175099163
1949.000000,0.01453322488
1950.000000,0.009980031517
1951.000000,0.01284114896
1952.000000,0.01093166248
1953.000000,0.011702927
1954.000000,0.009291654456
1955.000000,0.008813714543
1956.000000,0.009824153176
1957.000000,0.008679100295
1958.000000,0.01020380924
1959.000000,0.008109632017
1960.000000,0.01023014875
1961.000000,0.01057228301
1962.000000,0.01384998126
1963.000000,0.01366534269
1964.000000,0.01123715844
1965.000000,0.009212311063
1966.000000,0.01143248545
1967.000000,0.0118497815
1968.000000,0.009823924851
1969.000000,0.008517747829
1970.000000,0.006633148259
1971.000000,0.01013691779
1972.000000,0.01405749399
1973.000000,0.009800000699
1974.000000,0.01098397389
1975.000000,0.01094319333
1976.000000,0.01118134069
1977.000000,0.01175941455
1978.000000,0.006202245712
1979.000000,0.009911329551
1980.000000,0.01096578815
1981.000000,0.0100332823
1982.000000,0.01264407581
1983.000000,0.009469817956
1984.000000,0.01205912296
1985.000000,0.0137485974
1986.000000,0.009712992987
1987.000000,0.01027862924
1988.000000,0.009637793197
1989.000000,0.01175664073
1990.000000,0.00594505208
1991.000000,0.007299326391
1992.000000,0.009639523994
1993.000000,0.01197396814
1994.000000,0.01141391663
1995.000000,0.008593997891
1996.000000,0.0134465435
1997.000000,0.0104580687
1998.000000,0.00898560304
1999.000000,0.01129984085
2000.000000,0.01284938356
