raman_shift_cm-1,intensity
200.000000,0.01217944974
201.000000,0.0136264221
202.000000,0.004967078237
203.000000,0.009797955397
204.000000,0.01210154913
205.000000,0.01277861996
206.000000,0.01138214028
207.000000,0.01306902764
208.000000,0.01065493677
209.000000,0.01117778674
210.000000,0.01043295998
211.000000,0.007928000599
212.000000,0.008382694731
213.000000,0.0108353571
214.000000,0.008916035431
215.000000,0.01261976712
216.000000,0.01266167739
217.000000,0.01367471804
218.000000,0.01002524018
219.000000,0.01284505121
220.000000,0.008266190605
221.000000,0.008445493984
222.000000,0.01024097749
223.000000,0.01064148237
224.000000,0.006880894771
225.000000,0.006617675178
226.000000,0.01078953392
227.000000,0.008355255966
228.000000,0.01249660266
229.000000,0.01086923885
230.000000,0.01069477506
231.000000,0.01049755196
232.000000,0.01187187925
233.000000,0.009775100645
234.000000,0.01225272031
235.000000,0.009029896632
236.000000,0.009631998324
237.000000,0.008721253421
238.000000,0.01127785921
239.000000,0.01015457716
240.000000,0.008358549385
241.000000,0.01408711984
242.000000,0.00935620998
243.000000,0.009851318227
244.000000,0.01087252872
245.000000,0.01357978408
246.000000,0.009787999766
247.000000,0.01149142001
248.000000,0.0102829324
249.000000,0.007158044347
250.000000,0.01166987791
251.000000,0.01212749544
252.000000,0.00960653959
253.000000,0.01005593654
254.000000,0.007084475847
255.000000,0.007041504911
256.000000,0.009304671562
257.000000,0.01133988267
258.000000,0.009149173058
259.000000,0.01067267629
260.000000,0.01202447543
261.000000,0.01028077765
262.000000,0.01123850368
263.000000,0.01298563006
264.000000,0.00759814489
265.000000,0.01157867138
266.000000,0.006321474167
267.000000,0.01095445273
268.000000,0.01049748313
269.000000,0.009005152695
270.000000,0.007937526627
271.000000,0.00996882324
272.000000,0.009272342832
273.000000,0.01028840032
274.000000,0.008277892822
275.000000,0.01118489238
276.000000,0.008022480871
277.000000,0.009486056737
278.000000,0.009310899387
279.000000,0.01263100101
280.000000,0.007104191278
281.000000,0.00926788646
282.000000,0.01246121306
283.000000,0.008779969275
284.000000,0.007618071949
285.000000,0.0106630621
286.000000,0.009517685706
287.000000,0.01176762628
288.000000,0.008257708575
289.000000,0.01048070231
290.000000,0.01143149612
291.000000,0.01217106537
292.000000,0.007887714065
293.000000,0.0129479676
294.000000,0.008299384987
295.000000,0.007076068148
296.000000,0.008192424546
297.000000,0.01041165802
298.000000,0.009458790559
299.000000,0.01098367215
300.000000,0.0110943725
301.000000,0.01073986289
302.000000,0.009594928954
303.000000,0.01373255458
304.000000,0.005672748386
305.000000,0.006636537271
306.000000,0.009091886415
307.000000,0.007595649843
308.000000,0.004994662884
309.000000,0.008516808916
310.000000,0.008608859377
311.000000,0.005210721722
312.000000,0.01182564838
313.000000,0.01270693206
314.000000,0.01257775895
315.000000,0.009092927527
316.000000,0.01040528885
317.000000,0.007868903136
318.000000,0.01052386083
319.000000,0.008763101656
320.000000,0.01093168855
321.000000,0.00942645093
322.000000,0.01218038743
323.000000,0.01176656886
324.000000,0.01259172734
325.000000,0.006903734799
326.000000,0.006475604088
327.000000,0.01092479929
328.000000,0.008961494368
329.000000,0.01091197662
330.000000,0.01071458864
331.000000,0.010477769
332.000000,0.01195636256
333.000000,0.01123160907
334.000000,0.0110637929
335.000000,0.008331790212
336.000000,0.01356929398
337.000000,0.01037372847
338.000000,0.01233514217
339.000000,0.01077572467
340.000000,0.01266087271
341.000000,0.01042976853
342.000000,0.01055847994
343.000000,0.01039945085
344.000000,0.008707035712
345.000000,0.008980936612
346.000000,0.009831652001
347.000000,0.009892171905
348.000000,0.008161336321
349.000000,0.01484045414
350.000000,0.008165179945
351.000000,0.00951652929
352.000000,0.01501971227
353.000000,0.008810378318
354.000000,0.01166225268
355.000000,0.01145277136
356.000000,0.009715595615
357.000000,0.007274417726
358.000000,0.007026871689
359.000000,0.01011773655
360.000000,0.01097585963
361.000000,0.005822651031
362.000000,0.01044125484
363.000000,0.008827987287
364.000000,0.01192732238
365.000000,0.01049032535
366.000000,0.008535434156
367.000000,0.009291925862
368.000000,0.01023667364
369.000000,0.01284005005
370.000000,0.01624309734
371.000000,0.01087469647
372.000000,0.01040265877
373.000000,0.01156876835
374.000000,0.01023593818
375.000000,0.0115657031
376.000000,0.01108370933
377.000000,0.01032129504
378.000000,0.008734222203
379.000000,0.01064737707
380.000000,0.01213743516
381.000000,0.01048535978
382.000000,0.01336650352
383.000000,0.01222588547
384.000000,0.01008251795
385.000000,0.01382443615
386.000000,0.008101300839
387.000000,0.01269633933
388.000000,0.01407026915
389.000000,0.009854444355
390.000000,0.01016076368
391.000000,0.01224600776
392.000000,0.01323744263
393.000000,0.01126552413
394.000000,0.01087090879
395.000000,0.01222929053
396.000000,0.01091903244
397.000000,0.007984476641
398.000000,0.01002653417
399.000000,0.010373944
400.000000,0.007405160062
401.000000,0.01120473324
402.000000,0.008922091129
403.000000,0.01189228079
404.000000,0.007428537996
405.000000,0.008584058696
406.000000,0.007493254442
407.000000,0.01297814824
408.000000,0.01295831956
409.000000,0.01334828822
410.000000,0.01336342601
411.000000,0.01222199753
412.000000,0.01220319214
413.000000,0.007018379018
414.000000,0.01107474384
415.000000,0.00941832811
416.000000,0.009777290877
417.000000,0.007964199786
418.000000,0.01304967671
419.000000,0.01074177647
420.000000,0.007453061269
421.000000,0.01144182758
422.000000,0.01025323562
423.000000,0.008301595885
424.000000,0.009764583158
425.000000,0.008794029148
426.000000,0.00573141468
427.000000,0.007250713206
428.000000,0.01129155621
429.000000,0.0109465702
430.000000,0.01078122026
431.000000,0.007869974355
432.000000,0.009015943884
433.000000,0.01033779345
434.000000,0.01158913243
435.000000,0.008523395989
436.000000,0.008091051517
437.000000,0.01249211488
438.000000,0.01034719527
439.000000,0.009453823981
440.000000,0.008736956337
441.000000,0.008903694107
442.000000,0.01338982405
443.000000,0.01216106226
444.000000,0.009388480467
445.000000,0.007718011358
446.000000,0.01357450578
447.000000,0.01336982081
448.000000,0.0126394365
449.000000,0.01191608643
450.000000,0.006460686414
451.000000,0.007654536659
452.000000,0.01136858907
453.000000,0.009670844856
454.000000,0.01075360145
455.000000,0.009193802683
456.000000,0.008932736198
457.000000,0.01135553018
458.000000,0.009449601928
459.000000,0.01024763473
460.000000,0.01076607846
461.000000,0.01072085914
462.000000,0.01257709469
463.000000,0.01299868935
464.000000,0.007527598145
465.000000,0.009727913759
466.000000,0.00897163525
467.000000,0.01177833899
468.000000,0.00813372656
469.000000,0.01182327497
470.000000,0.01167617452
471.000000,0.01143340692
472.000000,0.00833266277
473.000000,0.009852140461
474.000000,0.008123621488
475.000000,0.01108096402
476.000000,0.01220019837
477.000000,0.007251124226
478.000000,0.008642029759
479.000000,0.009972058795
480.000000,0.009239706623
481.000000,0.0132914433
482.000000,0.01001788248
483.000000,0.01081715719
484.000000,0.008091932441
485.000000,0.01340510392
486.000000,0.01065395334
487.000000,0.01187405351
488.000000,0.01050374098
489.000000,0.006092227815
490.000000,0.007141750439
491.000000,0.007765579318
492.000000,0.01128836794
493.000000,0.009330591079
494.000000,0.01121176561
495.000000,0.0109328793
496.000000,0.01086257999
497.000000,0.0122063743
498.000000,0.01073767983
499.000000,0.007093913444
500.000000,0.00902422372
501.000000,0.01370933975
502.000000,0.008248430767
503.000000,0.01312482861
504.000000,0.0137108638
505.000000,0.009221131752
506.000000,0.01110528771
507.000000,0.007617597609
508.000000,0.0119726495
509.000000,0.008878295775
510.000000,0.007819062441
511.000000,0.00966004637
512.000000,0.009537670392
513.000000,0.009288288301
514.000000,0.01085811765
515.000000,0.01013445304
516.000000,0.009152486678
517.000000,0.01238425503
518.000000,0.0153370958
519.000000,0.0106317702
520.000000,0.009100707422
521.000000,0.008532016885
522.000000,0.01170576809
523.000000,0.0100212694
524.000000,0.01057326854
525.000000,0.0065627772
526.000000,0.008297376355
527.000000,0.008246603554
528.000000,0.01246832733
529.000000,0.01005050227
530.000000,0.005630652303
531.000000,0.01157636913
532.000000,0.01288878397
533.000000,0.01324370875
534.000000,0.005043669525
535.000000,0.01096518084
536.000000,0.01229488323
537.000000,0.01189700763
538.000000,0.01022741055
539.000000,0.007110924351
540.000000,0.009861075586
541.000000,0.01009659277
542.000000,0.01190705453
543.000000,0.01205514369
544.000000,0.01030738726
545.000000,0.01250456111
546.000000,0.008715473325
547.000000,0.009482516991
548.000000,0.01080554227
549.000000,0.0120354847
550.000000,0.01026551567
551.000000,0.01339353893
552.000000,0.01177744445
553.000000,0.00908174101
554.000000,0.01117668871
555.000000,0.009257129839
556.000000,0.009134849159
557.000000,0.008234313503
558.000000,0.01391475653
559.000000,0.0129704127
560.000000,0.007983961346
561.000000,0.0134461456
562.000000,0.01317920749
563.000000,0.01056947028
564.000000,0.0123514798
565.000000,0.01587014296
566.000000,0.01199813748
567.000000,0.01231745838
568.000000,0.01376907427
569.000000,0.009508680239
570.000000,0.009102954054
571.000000,0.008876197589
572.000000,0.01160459433
573.000000,0.01357240042
574.000000,0.01018166606
575.000000,0.009237843644
576.000000,0.01249292596
577.000000,0.01144748245
578.000000,0.01349979552
579.000000,0.01214489029
580.000000,0.01215171522
581.000000,0.01247335929
582.000000,0.0128426207
583.000000,0.0109827098
584.000000,0.0108105967
585.000000,0.01639685928
586.000000,0.0195740343
587.000000,0.0158255185
588.000000,0.01053368633
589.000000,0.01408169879
590.000000,0.01665087256
591.000000,0.01130503493
592.000000,0.01387522573
593.000000,0.01436743089
594.000000,0.0137260818
595.000000,0.0142995778
596.000000,0.01847011939
597.000000,0.01606382255
598.000000,0.01710718284
599.000000,0.02167496643
600.000000,0.0173122359
601.000000,0.01606975221
602.000000,0.022228067
603.000000,0.02615985041
604.000000,0.02396321244
605.000000,0.02582381628
606.000000,0.02462750883
607.000000,0.02773392779
608.000000,0.0354758279
609.000000,0.03867854139
610.000000,0.04184189447
611.000000,0.04506528593
612.000000,0.0512280588
613.000000,0.06088672804
614.000000,0.0727931683
615.000000,0.09211571228
616.000000,0.1093053547
617.000000,0.1339474997
618.000000,0.1620161252
619.000000,0.1831902978
620.000000,0.1904055168
621.000000,0.1827885594
622.000000,0.1606153418
623.000000,0.1310314565
624.000000,0.1106822791
625.000000,0.08998819033
626.000000,0.07437005467
627.000000,0.0634014034
628.000000,0.05241278229
629.000000,0.04873451836
630.000000,0.0402549593
631.000000,0.03642619291
632.000000,0.03314253673
633.000000,0.02920665545
634.000000,0.02844725881
635.000000,0.0266752046
636.000000,0.02475837487
637.000000,0.02066200808
638.000000,0.01906553053
639.000000,0.01863199839
640.000000,0.01896634225
641.000000,0.01443123348
642.000000,0.01581100909
643.000000,0.01460491515
644.000000,0.01503628141
645.000000,0.01407372269
646.000000,0.01714334057
647.000000,0.01603970403
648.000000,0.01673241219
649.000000,0.0125364878
650.000000,0.01268694304
651.000000,0.01340834285
652.000000,0.01710841885
653.000000,0.01695326601
654.000000,0.01216934371
655.000000,0.01450536792
656.000000,0.01739516625
657.000000,0.01089408442
658.000000,0.01244545669
659.000000,0.01531055964
660.000000,0.01404824748
661.000000,0.01050429477
662.000000,0.01544788281
663.000000,0.0142860039
664.000000,0.01362235348
665.000000,0.009673188115
666.000000,0.01175745726
667.000000,0.01466283269
668.000000,0.01294490982
669.000000,0.01350351408
670.000000,0.01131436129
671.000000,0.01482664445
672.000000,0.01126876018
673.000000,0.01355565993
674.000000,0.01231377213
675.000000,0.009695074408
676.000000,0.01456303744
677.000000,0.009031375037
678.000000,0.0100473776
679.000000,0.0117748623
680.000000,0.008647954763
681.000000,0.007817650134
682.000000,0.01116964965
683.000000,0.01052484117
684.000000,0.01080543972
685.000000,0.01233903038
686.000000,0.01583798271
687.000000,0.01045847771
688.000000,0.01617579286
689.000000,0.01174077356
690.000000,0.01104741704
691.000000,0.005813499719
692.000000,0.008140764917
693.000000,0.0117128462
694.000000,0.01228832034
695.000000,0.009491010022
696.000000,0.01175142826
697.000000,0.01293272739
698.000000,0.009992200497
699.000000,0.007867274895
700.000000,0.009140154004
701.000000,0.01049281926
702.000000,0.01166346795
703.000000,0.01264293724
704.000000,0.009230202567
705.000000,0.01115399343
706.000000,0.01056376893
707.000000,0.01115308337
708.000000,0.01328952524
709.000000,0.01368349023
710.000000,0.01013615395
711.000000,0.009877287232
712.000000,0.00971563374
713.000000,0.01004940782
714.000000,0.01028172723
715.000000,0.01077840371
716.000000,0.01011641614
717.000000,0.008987658114
718.000000,0.008803455973
719.000000,0.01126932557
720.000000,0.01605327379
721.000000,0.01229586065
722.000000,0.01249201587
723.000000,0.01190803316
724.000000,0.01089945224
725.000000,0.01524352031
726.000000,0.01062584805
727.000000,0.009320883565
728.000000,0.008817627693
729.000000,0.01168159627
730.000000,0.009335046551
731.000000,0.009605565898
732.000000,0.009636697352
733.000000,0.008769168988
734.000000,0.01176501873
735.000000,0.008097216141
736.000000,0.01605659256
737.000000,0.005993365725
738.000000,0.008767207263
739.000000,0.01172310402
740.000000,0.01247573883
741.000000,0.01099732018
742.000000,0.01230317865
743.000000,0.01213571459
744.000000,0.01209410332
745.000000,0.01307079406
746.000000,0.01244815073
747.000000,0.01182638397
748.000000,0.01181164308
749.000000,0.01393470782
750.000000,0.01187279412
751.000000,0.01346385542
752.000000,0.01557192294
753.000000,0.01327449367
754.000000,0.01501812309
755.000000,0.01184422866
756.000000,0.01336580885
757.000000,0.01396233659
758.000000,0.01353366194
759.000000,0.01417230923
760.000000,0.01617695243
761.000000,0.01289586928
762.000000,0.01236402707
763.000000,0.01455412089
764.000000,0.01119452342
765.000000,0.01431438917
766.000000,0.01698222175
767.000000,0.01485768882
768.000000,0.01628913138
769.000000,0.01631352121
770.000000,0.01834071679
771.000000,0.0173841959
772.000000,0.01726749835
773.000000,0.01075120612
774.000000,0.01698652781
775.000000,0.02015895038
776.000000,0.01925719275
777.000000,0.0189725898
778.000000,0.02335197919
779.000000,0.02102134409
780.000000,0.02356259913
781.000000,0.02733086182
782.000000,0.02697092154
783.000000,0.03078006357
784.000000,0.03332467166
785.000000,0.0344959374
786.000000,0.04013431281
787.000000,0.04568171061
788.000000,0.05146501593
789.000000,0.06258915891
790.000000,0.0693687107
791.000000,0.078345961
792.000000,0.08761108182
793.000000,0.09974224001
794.000000,0.1103035202
795.000000,0.1097730182
796.000000,0.1091900045
797.000000,0.1012869823
798.000000,0.08934607833
799.000000,0.07771230065
800.000000,0.0704809296
801.000000,0.05702222712
802.000000,0.05388632801
803.000000,0.04402249285
804.000000,0.04288395431
805.000000,0.03609629038
806.000000,0.03316968956
807.000000,0.03252374564
808.000000,0.02598834551
809.000000,0.02605265272
810.000000,0.02359858704
811.000000,0.02379272594
812.000000,0.02296581011
813.000000,0.0210311356
814.000000,0.01994400424
815.000000,0.01791579431
816.000000,0.01922960013
817.000000,0.0169306963
818.000000,0.01711417558
819.000000,0.01674109237
820.000000,0.01322415355
821.000000,0.01329788054
822.000000,0.01565170846
823.000000,0.01486515571
824.000000,0.0171254312
825.000000,0.009515553936
826.000000,0.0145600507
827.000000,0.01610658097
828.000000,0.01392541332
829.000000,0.01512747814
830.000000,0.01345195433
831.000000,0.01315292397
832.000000,0.01493139543
833.000000,0.01042697042
834.000000,0.008423929085
835.000000,0.01373632926
836.000000,0.01293210066
837.000000,0.01282359663
838.000000,0.01308364078
839.000000,0.01368123221
840.000000,0.01143776048
841.000000,0.01323372911
842.000000,0.01285744078
843.000000,0.009890265999
844.000000,0.01182037159
845.000000,0.01261183955
846.000000,0.01045177491
847.000000,0.01405340517
848.000000,0.0113414893
849.000000,0.01350142208
850.000000,0.01476215384
851.000000,0.008896487931
852.000000,0.009168535122
853.000000,0.01294868576
854.000000,0.011376535
855.000000,0.01275600842
856.000000,0.01514838824
857.000000,0.01072386152
858.000000,0.01338516108
859.000000,0.01114064137
860.000000,0.01035397833
861.000000,0.01256281831
862.000000,0.01212159274
863.000000,0.01374124469
864.000000,0.01220687013
865.000000,0.01331399688
866.000000,0.01260838833
867.000000,0.008164779811
868.000000,0.01083069877
869.000000,0.01090373883
870.000000,0.01331693557
871.000000,0.009446625429
872.000000,0.01190810882
873.000000,0.01070779458
874.000000,0.007905905881
875.000000,0.01122362558
876.000000,0.01279585013
877.000000,0.0107951205
878.000000,0.01337368285
879.000000,0.01229705723
880.000000,0.01215177992
881.000000,0.01051415458
882.000000,0.01121037845
883.000000,0.01246913011
884.000000,0.01158909161
885.000000,0.009096023515
886.000000,0.01120742233
887.000000,0.01235473481
888.000000,0.01380886929
889.000000,0.01325201917
890.000000,0.009629362521
891.000000,0.01298265944
892.000000,0.008399983297
893.000000,0.01032016072
894.000000,0.01000318002
895.000000,0.01467261199
896.000000,0.01301762185
897.000000,0.0122574022
898.000000,0.01044230093
899.000000,0.01416732401
900.000000,0.01122123704
901.000000,0.01267221738
902.000000,0.01395209917
903.000000,0.01117104527
904.000000,0.01286837836
905.000000,0.007860805859
906.000000,0.01298905228
907.000000,0.00847218796
908.000000,0.01270315279
909.000000,0.01248683346
910.000000,0.01288843764
911.000000,0.01658129611
912.000000,0.007021794966
913.000000,0.01293489469
914.000000,0.01126031124
915.000000,0.01359187532
916.000000,0.01274296023
917.000000,0.01236166658
918.000000,0.01118375695
919.000000,0.01080571776
920.000000,0.01297078818
921.000000,0.009290451925
922.000000,0.01448990323
923.000000,0.01124133432
924.000000,0.01335420207
925.000000,0.01011746806
926.000000,0.01345006163
927.000000,0.01212041149
928.000000,0.01418041704
929.000000,0.01514133284
930.000000,0.01166933857
931.000000,0.01302201809
932.000000,0.01335963172
933.000000,0.01584869123
934.000000,0.01041833048
935.000000,0.01427050259
936.000000,0.01311699124
937.000000,0.01083461786
938.000000,0.0126570478
939.000000,0.01206816668
940.000000,0.01570332814
941.000000,0.0117062819
942.000000,0.01572632431
943.000000,0.01287626087
944.000000,0.01526204535
945.000000,0.01060617856
946.000000,0.01261943073
947.000000,0.0145912139
948.000000,0.01257452154
949.000000,0.01143503586
950.000000,0.01473488183
951.000000,0.01641641157
952.000000,0.01504111455
953.000000,0.0147748599
954.000000,0.01619679774
955.000000,0.01473576562
956.000000,0.01764418223
957.000000,0.01823191331
958.000000,0.01372413205
959.000000,0.01861996212
960.000000,0.01817070655
961.000000,0.01768381896
962.000000,0.01880664963
963.000000,0.0206301719
964.000000,0.02199347022
965.000000,0.02179223979
966.000000,0.0185041662
967.000000,0.02213791404
968.000000,0.01663924565
969.000000,0.02233630126
970.000000,0.0225631637
971.000000,0.02378442778
972.000000,0.02077346922
973.000000,0.0262593383
974.000000,0.02683438931
975.000000,0.02570096283
976.000000,0.02356406966
977.000000,0.02830996811
978.000000,0.02737032575
979.000000,0.02753580593
980.000000,0.03104599066
981.000000,0.03924512437
982.000000,0.03400913315
983.000000,0.0390532184
984.000000,0.04337373906
985.000000,0.04873181582
986.000000,0.04945221056
987.000000,0.05503506297
988.000000,0.0655430723
989.000000,0.07269907585
990.000000,0.08516389393
991.000000,0.09386874077
992.000000,0.1135606943
993.000000,0.1390907914
994.000000,0.1695591009
995.000000,0.2121017302
996.000000,0.2795212035
997.000000,0.3710364185
998.000000,0.5135490392
999.000000,0.7092227019
1000.000000,0.9174742185
1001.000000,1.016852473
1002.000000,0.9178160311
1003.000000,0.7061686281
1004.000000,0.5160461957
1005.000000,0.3799668492
1006.000000,0.2877610488
1007.000000,0.2200603547
1008.000000,0.1732601184
1009.000000,0.1421570167
1010.000000,0.1241735846
1011.000000,0.1076445878
1012.000000,0.09103023415
1013.000000,0.08483237391
1014.000000,0.08083907036
1015.000000,0.07632801652
1016.000000,0.06955134399
1017.000000,0.06876242336
1018.000000,0.0699684761
1019.000000,0.06822494734
1020.000000,0.07014605215
1021.000000,0.07693958357
1022.000000,0.08805175242
1023.000000,0.09836861082
1024.000000,0.1121467449
1025.000000,0.1301460651
1026.000000,0.1588629471
1027.000000,0.2036435436
1028.000000,0.264831224
1029.000000,0.3404564787
1030.000000,0.4075561894
1031.000000,0.4404707585
1032.000000,0.4044186986
1033.000000,0.3315272346
1034.000000,0.2607069924
1035.000000,0.1978736287
1036.000000,0.1537339062
1037.000000,0.1193793771
1038.000000,0.1025278436
1039.000000,0.08045130639
1040.000000,0.07146397134
1041.000000,0.05878803587
1042.000000,0.0535151142
1043.000000,0.05102008386
1044.000000,0.04405496142
1045.000000,0.03991666402
1046.000000,0.03824913065
1047.000000,0.034838751
1048.000000,0.03428323701
1049.000000,0.02665810498
1050.000000,0.03062657327
1051.000000,0.02660955938
1052.000000,0.02314571427
1053.000000,0.02531780732
1054.000000,0.02422044871
1055.000000,0.02226819224
1056.000000,0.02322826536
1057.000000,0.01820718478
1058.000000,0.01689505679
1059.000000,0.01845972638
1060.000000,0.02132260226
1061.000000,0.01974631259
1062.000000,0.01827697079
1063.000000,0.0166274761
1064.000000,0.01752330181
1065.000000,0.01954911726
1066.000000,0.0158166117
1067.000000,0.01548544245
1068.000000,0.01727994897
1069.000000,0.01748055401
1070.000000,0.01625465968
1071.000000,0.01865049378
1072.000000,0.01600781729
1073.000000,0.01349953592
1074.000000,0.01088485252
1075.000000,0.01748820098
1076.000000,0.0146812078
1077.000000,0.01554163195
1078.000000,0.01568268695
1079.000000,0.017366625
1080.000000,0.01666033525
1081.000000,0.01647617587
1082.000000,0.01498433312
1083.000000,0.01389302674
1084.000000,0.01481220129
1085.000000,0.01257829581
1086.000000,0.01488287774
1087.000000,0.01622969176
1088.000000,0.0154815248
1089.000000,0.01429573326
1090.000000,0.01220267995
1091.000000,0.01214671241
1092.000000,0.01242436216
1093.000000,0.01303044655
1094.000000,0.01469527065
1095.000000,0.01476427993
1096.000000,0.0149122506
1097.000000,0.01576783877
1098.000000,0.01179317071
1099.000000,0.01330962882
1100.000000,0.01478504268
1101.000000,0.0153170603
1102.000000,0.01239363553
1103.000000,0.01235788218
1104.000000,0.01604801961
1105.000000,0.01515418395
1106.000000,0.01471102473
1107.000000,0.01328385452
1108.000000,0.01198516585
1109.000000,0.01387430354
1110.000000,0.01460074629
1111.000000,0.01503259558
1112.000000,0.01582128676
1113.000000,0.01439749276
1114.000000,0.01674495209
1115.000000,0.01367310551
1116.000000,0.01511251365
1117.000000,0.01467858401
1118.000000,0.01110254029
1119.000000,0.01219357667
1120.000000,0.01388274759
1121.000000,0.01538556192
1122.000000,0.01591725243
1123.000000,0.01799711668
1124.000000,0.01563534213
1125.000000,0.01524860909
1126.000000,0.01679834058
1127.000000,0.01402803545
1128.000000,0.01638581994
1129.000000,0.01511720374
1130.000000,0.01764287394
1131.000000,0.01658270511
1132.000000,0.01764668135
1133.000000,0.02284947739
1134.000000,0.02191152429
1135.000000,0.02542007918
1136.000000,0.02169798729
1137.000000,0.02195793342
1138.000000,0.02189776323
1139.000000,0.02474370276
1140.000000,0.02290788909
1141.000000,0.02845905637
1142.000000,0.02941896815
1143.000000,0.03059656045
1144.000000,0.03299850763
1145.000000,0.03888212763
1146.000000,0.04496234966
1147.000000,0.05209083301
1148.000000,0.05698741684
1149.000000,0.07030884399
1150.000000,0.08376311993
1151.000000,0.1030411047
1152.000000,0.1170791829
1153.000000,0.1360918795
1154.000000,0.1469398154
1155.000000,0.1539375738
1156.000000,0.147323523
1157.000000,0.1334271343
1158.000000,0.1185906668
1159.000000,0.0998793434
1160.000000,0.08820500604
1161.000000,0.07301678897
1162.000000,0.06428307345
1163.000000,0.05355619339
1164.000000,0.0482619468
1165.000000,0.04723394711
1166.000000,0.04131580382
1167.000000,0.04287810213
1168.000000,0.03715326958
1169.000000,0.03613942263
1170.000000,0.0414992611
1171.000000,0.03468249872
1172.000000,0.03814514225
1173.000000,0.04208158703
1174.000000,0.0450604392
1175.000000,0.04561736121
1176.000000,0.05767166533
1177.000000,0.05995908471
1178.000000,0.06698447043
1179.000000,0.08544630853
1180.000000,0.09827991157
1181.000000,0.1160944728
1182.000000,0.13128931
1183.000000,0.1332912187
1184.000000,0.1277186023
1185.000000,0.1145390247
1186.000000,0.09905026694
1187.000000,0.07849114136
1188.000000,0.07046254175
1189.000000,0.05762928436
1190.000000,0.0463822012
1191.000000,0.04230376217
1192.000000,0.03836567865
1193.000000,0.03576224962
1194.000000,0.03190713134
1195.000000,0.02990729203
1196.000000,0.0253226573
1197.000000,0.02536482022
1198.000000,0.01718246836
1199.000000,0.02330307795
1200.000000,0.02018968981
1201.000000,0.02257532638
1202.000000,0.01746124156
1203.000000,0.01703603012
1204.000000,0.0174977821
1205.000000,0.01852964879
1206.000000,0.01711523398
1207.000000,0.01811363203
1208.000000,0.01580151449
1209.000000,0.01746079006
1210.000000,0.02068001977
1211.000000,0.0173067759
1212.000000,0.01582826196
1213.000000,0.01146436679
1214.000000,0.01543648851
1215.000000,0.01616089262
1216.000000,0.0134771587
1217.000000,0.01575658257
1218.000000,0.00916790289
1219.000000,0.01204470889
1220.000000,0.01141797422
1221.000000,0.01422766467
1222.000000,0.01143736105
1223.000000,0.01103573191
1224.000000,0.01579920123
1225.000000,0.009877250028
1226.000000,0.01369751957
1227.000000,0.01480255038
1228.000000,0.01199540069
1229.000000,0.01065563143
1230.000000,0.01202319432
1231.000000,0.01118366168
1232.000000,0.01069359535
1233.000000,0.01267318114
1234.000000,0.01208771189
1235.000000,0.01836034123
1236.000000,0.01467342101
1237.000000,0.01241475182
1238.000000,0.01313214364
1239.000000,0.01532882732
1240.000000,0.01428090908
1241.000000,0.01200839432
1242.000000,0.0103074577
1243.000000,0.01538042746
1244.000000,0.01179271369
1245.000000,0.01226631251
1246.000000,0.01447878601
1247.000000,0.01210659977
1248.000000,0.01429668058
1249.000000,0.01110219817
1250.000000,0.01203253826
1251.000000,0.01124544875
1252.000000,0.01580598395
1253.000000,0.008680819445
1254.000000,0.01117821307
1255.000000,0.009769978171
1256.000000,0.01004488354
1257.000000,0.008910264763
1258.000000,0.00982641151
1259.000000,0.01386622307
1260.000000,0.01431900475
1261.000000,0.01009208234
1262.000000,0.008930887978
1263.000000,0.01039943696
1264.000000,0.01462089556
1265.000000,0.01118477413
1266.000000,0.007048700279
1267.000000,0.01299844541
1268.000000,0.01104246819
1269.000000,0.01250634605
1270.000000,0.01207998257
1271.000000,0.008658963795
1272.000000,0.01328963529
1273.000000,0.01257454664
1274.000000,0.009879142776
1275.000000,0.006671126755
1276.000000,0.008877895864
1277.000000,0.008924295019
1278.000000,0.01256889396
1279.000000,0.01000524265
1280.000000,0.01029093943
1281.000000,0.01123872649
1282.000000,0.01028003102
1283.000000,0.01194168521
1284.000000,0.01178786151
1285.000000,0.01303846836
1286.000000,0.008684719802
1287.000000,0.0118564932
1288.000000,0.01060367872
1289.000000,0.01537089071
1290.000000,0.01408264599
1291.000000,0.01034311939
1292.000000,0.01306002827
1293.000000,0.007636919361
1294.000000,0.009039158924
1295.000000,0.01061861763
1296.000000,0.01168520932
1297.000000,0.008944422105
1298.000000,0.01122178661
1299.000000,0.01365038401
1300.000000,0.007935990817
1301.000000,0.008445868901
1302.000000,0.007320722429
1303.000000,0.0134387861
1304.000000,0.008998338779
1305.000000,0.01037085921
1306.000000,0.009368509287
1307.000000,0.01096025365
1308.000000,0.0104755048
1309.000000,0.01151277092
1310.000000,0.01148715249
1311.000000,0.01434489848
1312.000000,0.009265691679
1313.000000,0.01150501463
1314.000000,0.01099677955
1315.000000,0.009333323915
1316.000000,0.01283601707
1317.000000,0.01480460586
1318.000000,0.008949125036
1319.000000,0.01604707254
1320.000000,0.01086692352
1321.000000,0.01099909598
1322.000000,0.005962206165
1323.000000,0.01130409389
1324.000000,0.01093346744
1325.000000,0.01067403195
1326.000000,0.01253169276
1327.000000,0.01085761104
1328.000000,0.01195219129
1329.000000,0.009915412222
1330.000000,0.008967023747
1331.000000,0.01147187389
1332.000000,0.01242607335
1333.000000,0.01265677938
1334.000000,0.011495054
1335.000000,0.00981441391
1336.000000,0.01139680859
1337.000000,0.01080840527
1338.000000,0.008823635953
1339.000000,0.01201302459
1340.000000,0.01100640178
1341.000000,0.009175704156
1342.000000,0.01079753769
1343.000000,0.01260994386
1344.000000,0.01443763092
1345.000000,0.007803399267
1346.000000,0.01073659498
1347.000000,0.01258731585
1348.000000,0.01382450142
1349.000000,0.01229552314
1350.000000,0.009501880635
1351.000000,0.01057764433
1352.000000,0.01151361726
1353.000000,0.01002772314
1354.000000,0.009507227968
1355.000000,0.009079450927
1356.000000,0.0168004518
1357.000000,0.01176094208
1358.000000,0.01125155536
1359.000000,0.01315120316
1360.000000,0.01191038065
1361.000000,0.01153814899
1362.000000,0.01232235124
1363.000000,0.0103827622
1364.000000,0.01113713964
1365.000000,0.0138152707
1366.000000,0.01325950947
1367.000000,0.009889055592
1368.000000,0.01510868447
1369.000000,0.01135897008
1370.000000,0.009012490268
1371.000000,0.0136707525
1372.000000,0.01359534614
1373.000000,0.01298178185
1374.000000,0.01044264841
1375.000000,0.01484998184
1376.000000,0.01355061424
1377.000000,0.01327610918
1378.000000,0.01309108245
1379.000000,0.01343446159
1380.000000,0.01720740134
1381.000000,0.01182624818
1382.000000,0.01350160719
1383.000000,0.01524442994
1384.000000,0.01463600478
1385.000000,0.01160252227
1386.000000,0.0130124577
1387.000000,0.01257018247
1388.000000,0.01051429912
1389.000000,0.0131218334
1390.000000,0.01552525446
1391.000000,0.01427898223
1392.000000,0.0160362226
1393.000000,0.01481251546
1394.000000,0.01262788561
1395.000000,0.01524287957
1396.000000,0.01083080768
1397.000000,0.01693574588
1398.000000,0.01380683625
1399.000000,0.01803110557
1400.000000,0.01213061584
1401.000000,0.0131019586
1402.000000,0.01433769313
1403.000000,0.01487595528
1404.000000,0.01242615673
1405.000000,0.01326935156
1406.000000,0.01701064813
1407.000000,0.01466303559
1408.000000,0.01830584695
1409.000000,0.02013186733
1410.000000,0.01419943838
1411.000000,0.01670717589
1412.000000,0.02133167831
1413.000000,0.02040854762
1414.000000,0.01594978153
1415.000000,0.01986317871
1416.000000,0.02293759573
1417.000000,0.01582071499
1418.000000,0.02144664179
1419.000000,0.02351769616
1420.000000,0.02105447234
1421.000000,0.02151886639
1422.000000,0.02514883723
1423.000000,0.0213593643
1424.000000,0.02670692041
1425.000000,0.02918311691
1426.000000,0.02816155967
1427.000000,0.02623957991
1428.000000,0.03414477738
1429.000000,0.03268457889
1430.000000,0.03588754524
1431.000000,0.03527882384
1432.000000,0.03947879174
1433.000000,0.04486548846
1434.000000,0.04305846501
1435.000000,0.04743897826
1436.000000,0.05057856349
1437.000000,0.06110352698
1438.000000,0.06751742166
1439.000000,0.07245924857
1440.000000,0.08380214025
1441.000000,0.09375247141
1442.000000,0.1100930405
1443.000000,0.1183873348
1444.000000,0.1381251848
1445.000000,0.1555915518
1446.000000,0.1803480147
1447.000000,0.1975915377
1448.000000,0.2118186826
1449.000000,0.2273145862
1450.000000,0.2305227054
1451.000000,0.2245300802
1452.000000,0.2150594224
1453.000000,0.1969930273
1454.000000,0.1743414324
1455.000000,0.1556252586
1456.000000,0.1400132496
1457.000000,0.1228955827
1458.000000,0.1060293825
1459.000000,0.09312245543
1460.000000,0.08382427827
1461.000000,0.07410901087
1462.000000,0.06436527232
1463.000000,0.06167361172
1464.000000,0.053344201
1465.000000,0.05325612105
1466.000000,0.04751681149
1467.000000,0.04435491163
1468.000000,0.03928933527
1469.000000,0.03767459841
1470.000000,0.03388796849
1471.000000,0.0322776936
1472.000000,0.02924019468
1473.000000,0.03261987419
1474.000000,0.02611531747
1475.000000,0.03054801339
1476.000000,0.02753535492
1477.000000,0.02322286428
1478.000000,0.02679470651
1479.000000,0.02419073899
1480.000000,0.0210215365
1481.000000,0.0224618951
1482.000000,0.02068793421
1483.000000,0.01927651569
1484.000000,0.02017812099
1485.000000,0.02038353776
1486.000000,0.01875791733
1487.000000,0.01894894811
1488.000000,0.02025129442
1489.000000,0.0180984942
1490.000000,0.01727770514
1491.000000,0.01516622912
1492.000000,0.01736748499
1493.000000,0.01632075681
1494.000000,0.01659701797
1495.000000,0.01843881916
1496.000000,0.01838750442
1497.000000,0.01655506942
1498.000000,0.01516826457
1499.000000,0.01645982634
1500.000000,0.01668657997
1501.000000,0.01641373314
1502.000000,0.01295479789
1503.000000,0.01633037932
1504.000000,0.01358819812
1505.000000,0.01614056704
1506.000000,0.01625531668
1507.000000,0.01567514118
1508.000000,0.01770023878
1509.000000,0.01525701476
1510.000000,0.01582952054
1511.000000,0.01337170139
1512.000000,0.01489645403
1513.000000,0.01462578341
1514.000000,0.01517069146
1515.000000,0.01468493237
1516.000000,0.01029712962
1517.000000,0.01661307748
1518.000000,0.01638963656
1519.000000,0.01084667622
1520.000000,0.01553633333
1521.000000,0.01705942612
1522.000000,0.0165247604
1523.000000,0.01651182046
1524.000000,0.01476094293
1525.000000,0.01414602847
1526.000000,0.01902575845
1527.000000,0.01613371302
1528.000000,0.01861355302
1529.000000,0.01527470707
1530.000000,0.017340394
1531.000000,0.01721565689
1532.000000,0.01725930273
1533.000000,0.0133407122
1534.000000,0.02060812481
1535.000000,0.01660844602
1536.000000,0.01546606877
1537.000000,0.0168447522
1538.000000,0.01287802186
1539.000000,0.01933409285
1540.000000,0.01597125679
1541.000000,0.01748847137
1542.000000,0.01749511125
1543.000000,0.01383967588
1544.000000,0.01692519059
1545.000000,0.02033243457
1546.000000,0.01653863358
1547.000000,0.0188948562
1548.000000,0.02073222472
1549.000000,0.02222093304
1550.000000,0.01776972128
1551.000000,0.02191154952
1552.000000,0.02163466163
1553.000000,0.02184140386
1554.000000,0.02321794752
1555.000000,0.02335062523
1556.000000,0.02053668706
1557.000000,0.02415158882
1558.000000,0.02274526682
1559.000000,0.02546137626
1560.000000,0.02491882264
1561.000000,0.02976761083
1562.000000,0.02985343897
1563.000000,0.03031768915
1564.000000,0.02950702656
1565.000000,0.03342287392
1566.000000,0.03236915161
1567.000000,0.03512200537
1568.000000,0.03618494514
1569.000000,0.0443801442
1570.000000,0.04534488539
1571.000000,0.05257091485
1572.000000,0.05832599271
1573.000000,0.06458916218
1574.000000,0.0697437083
1575.000000,0.08334917064
1576.000000,0.09519965831
1577.000000,0.1058900122
1578.000000,0.1284384287
1579.000000,0.1494975036
1580.000000,0.1775774783
1581.000000,0.2074424529
1582.000000,0.2277035314
1583.000000,0.2403748463
1584.000000,0.2336247405
1585.000000,0.2173150936
1586.000000,0.1977256858
1587.000000,0.1764588537
1588.000000,0.159266093
1589.000000,0.1491765476
1590.000000,0.1428619574
1591.000000,0.136726731
1592.000000,0.1414943403
1593.000000,0.1533047596
1594.000000,0.1712646282
1595.000000,0.1915573986
1596.000000,0.2240510449
1597.000000,0.2752663759
1598.000000,0.3396169911
1599.000000,0.428310578
1600.000000,0.5179878614
1601.000000,0.6102253162
1602.000000,0.6449947975
1603.000000,0.6007133342
1604.000000,0.5154184231
1605.000000,0.4168167633
1606.000000,0.3304474214
1607.000000,0.2609814115
1608.000000,0.2103520021
1609.000000,0.1708027278
1610.000000,0.1396998509
1611.000000,0.1224160163
1612.000000,0.1025077804
1613.000000,0.08674970575
1614.000000,0.07867677734
1615.000000,0.06873851215
1616.000000,0.06105886239
1617.000000,0.05474213182
1618.000000,0.04810504845
1619.000000,0.04514747231
1620.000000,0.0408238483
1621.000000,0.03636467948
1622.000000,0.03862159601
1623.000000,0.03594425596
1624.000000,0.03289967788
1625.000000,0.02934142505
1626.000000,0.02841331461
1627.000000,0.03170323995
1628.000000,0.02559608514
1629.000000,0.02788436681
1630.000000,0.02587634379
1631.000000,0.02525971576
1632.000000,0.02248941559
1633.000000,0.02221202617
1634.000000,0.02183958671
1635.000000,0.01915848986
1636.000000,0.023473979
1637.000000,0.01857185625
1638.000000,0.02005594079
1639.000000,0.02276310707
1640.000000,0.02177154645
1641.000000,0.01723301636
1642.000000,0.01907490222
1643.000000,0.01975901829
1644.000000,0.01348181943
1645.000000,0.0211856889
1646.000000,0.01789348493
1647.000000,0.01598817498
1648.000000,0.01614197601
1649.000000,0.01161210338
1650.000000,0.01726378247
1651.000000,0.01882180127
1652.000000,0.01509700297
1653.000000,0.01849129441
1654.000000,0.0164631101
1655.000000,0.01226341946
1656.000000,0.01589776016
1657.000000,0.01058232427
1658.000000,0.01073448984
1659.000000,0.01564093288
1660.000000,0.01534617945
1661.000000,0.0139136095
1662.000000,0.01376633525
1663.000000,0.01080300481
1664.000000,0.01578580102
1665.000000,0.01362548798
1666.000000,0.01316425544
1667.000000,0.0206775719
1668.000000,0.01395533908
1669.000000,0.01327015342
1670.000000,0.01726837087
1671.000000,0.01377851151
1672.000000,0.01216071116
1673.000000,0.01613520506
1674.000000,0.01271911827
1675.000000,0.01134668514
1676.000000,0.01218199098
1677.000000,0.01286803727
1678.000000,0.01463216666
1679.000000,0.01529793745
1680.000000,0.01025948111
1681.000000,0.01515825327
1682.000000,0.01131341851
1683.000000,0.01160890155
1684.000000,0.007238923726
1685.000000,0.01572509204
1686.000000,0.01357007404
1687.000000,0.01190458629
1688.000000,0.01194927648
1689.000000,0.01422335331
1690.000000,0.01226615031
1691.000000,0.006212641297
1692.000000,0.0126950711
1693.000000,0.01205853953
1694.000000,0.01232985506
1695.000000,0.0121404259
1696.000000,0.01373929656
1697.000000,0.01050871594
1698.000000,0.01658378074
1699.000000,0.01218459998
1700.000000,0.0104152386
1701.000000,0.01205070941
1702.000000,0.008373561523
1703.000000,0.01147157765
1704.000000,0.01026571818
1705.000000,0.009753363585
1706.000000,0.01335663349
1707.000000,0.01227073598
1708.000000,0.009707102565
1709.000000,0.01037382112
1710.000000,0.01227480289
1711.000000,0.01619428033
1712.000000,0.01131408064
1713.000000,0.01122469342
1714.000000,0.01248504485
1715.000000,0.008969086306
1716.000000,0.01127193131
1717.000000,0.01290860213
1718.000000,0.01223104756
1719.000000,0.01210903619
1720.000000,0.008962289773
1721.000000,0.01146212516
1722.000000,0.01426408208
1723.000000,0.01676491815
1724.000000,0.0133511272
1725.000000,0.01026881388
1726.000000,0.0104391309
1727.000000,0.0109760379
1728.000000,0.01563095178
1729.000000,0.008595514788
1730.000000,0.01084540466
1731.000000,0.007923144182
1732.000000,0.01042954978
1733.000000,0.0106487923
1734.000000,0.01306450774
1735.000000,0.01284130408
1736.000000,0.01164508443
1737.000000,0.01063918173
1738.000000,0.01035106787
1739.000000,0.01448233142
1740.000000,0.01092569394
1741.000000,0.008909428195
1742.000000,0.009615839899
1743.000000,0.01118440106
1744.000000,0.009507025947
1745.000000,0.007913131981
1746.000000,0.01296319488
1747.000000,0.009651461912
1748.000000,0.01077621866
1749.000000,0.0112129578
1750.000000,0.01047826799
1751.000000,0.01065956555
1752.000000,0.005785200708
1753.000000,0.01105344598
1754.000000,0.01048513573
1755.000000,0.01010921263
1756.000000,0.01078715075
1757.000000,0.01538667126
1758.000000,0.01426902806
1759.000000,0.0124017575
1760.000000,0.01404626483
1761.000000,0.01004456414
1762.000000,0.01077282365
1763.000000,0.01183644741
1764.000000,0.01269053965
1765.000000,0.01254330634
1766.000000,0.01458449131
1767.000000,0.01060442526
1768.000000,0.01358956698
1769.000000,0.009589027936
1770.000000,0.01196529114
1771.000000,0.008883624633
1772.000000,0.01336211255
1773.000000,0.009758356877
1774.000000,0.01348339642
1775.000000,0.006972388043
1776.000000,0.01447422089
1777.000000,0.01076282134
1778.000000,0.01169854461
1779.000000,0.01137640264
1780.000000,0.007398877514
1781.000000,0.009560763073
1782.000000,0.009515919377
1783.000000,0.01055963361
1784.000000,0.007580337973
1785.000000,0.009422065723
1786.000000,0.01086959564
1787.000000,0.01298148842
1788.000000,0.01215802507
1789.000000,0.008307498411
1790.000000,0.01242706107
1791.000000,0.01389340532
1792.000000,0.01224065369
1793.000000,0.009983224571
1794.000000,0.00886703385
1795.000000,0.009818342052
1796.000000,0.01395641667
1797.000000,0.0086476031
1798.000000,0.005660253945
1799.000000,0.01247852602
1800.000000,0.009339844419
1801.000000,0.01050753499
1802.000000,0.009838543334
1803.000000,0.01287078821
1804.000000,0.009846904993
1805.000000,0.009157257417
1806.000000,0.009021738964
1807.000000,0.01416999829
1808.000000,0.01365337224
1809.000000,0.009899949543
1810.000000,0.009635269351
1811.000000,0.01042627442
1812.000000,0.0117814122
1813.000000,0.008944175724
1814.000000,0.0137415751
1815.000000,0.01119872984
1816.000000,0.005340120188
1817.000000,0.008496184911
1818.000000,0.0100173893
1819.000000,0.01547583026
1820.000000,0.01383780378
1821.000000,0.0110393997
1822.000000,0.008287722333
1823.000000,0.01043392171
1824.000000,0.01063887256
1825.000000,0.00964727863
1826.000000,0.01079757065
1827.000000,0.01194569384
1828.000000,0.009526238513
1829.000000,0.008180488289
1830.000000,0.01075969606
1831.000000,0.007305427224
1832.000000,0.009475849268
1833.000000,0.01276320356
1834.000000,0.01073283251
1835.000000,0.007885965707
1836.000000,0.01019955627
1837.000000,0.009721464411
1838.000000,0.01049342211
1839.000000,0.01228769582
1840.000000,0.009179231226
1841.000000,0.007716187866
1842.000000,0.01337452182
1843.000000,0.008484964155
1844.000000,0.01143100778
1845.000000,0.01103316503
1846.000000,0.009559549217
1847.000000,0.01136108083
1848.000000,0.01089851007
1849.000000,0.01060941871
1850.000000,0.01176469373
1851.000000,0.00880619993
1852.000000,0.0121313508
1853.000000,0.008534409175
1854.000000,0.01222766221
1855.000000,0.01295304169
1856.000000,0.008625801541
1857.000000,0.01423081075
1858.000000,0.008959773783
1859.000000,0.01011741185
1860.000000,0.008564932844
1861.000000,0.009631708178
1862.000000,0.01035291642
1863.000000,0.008974225187
1864.000000,0.01215908857
1865.000000,0.008604270739
1866.000000,0.010830013
1867.000000,0.008020291722
1868.000000,0.008296348329
1869.000000,0.01036997002
1870.000000,0.01075316375
1871.000000,0.009396682673
1872.000000,0.01079060377
1873.000000,0.01106239718
1874.000000,0.008787380642
1875.000000,0.01021203687
1876.000000,0.008410538136
1877.000000,0.007508842624
1878.000000,0.008929061877
1879.000000,0.009689686841
1880.000000,0.01251536927
1881.000000,0.01118528393
1882.000000,0.01038922608
1883.000000,0.005822107796
1884.000000,0.008316032536
1885.000000,0.01116247894
1886.000000,0.01135168208
1887.000000,0.01018028864
1888.000000,0.007784865816
1889.000000,0.006277017835
1890.000000,0.006840772026
1891.000000,0.01052258187
1892.000000,0.01099414546
1893.000000,0.01380437859
1894.000000,0.00888525926
1895.000000,0.01088480889
1896.000000,0.008669218967
1897.000000,0.009827808901
1898.000000,0.01043214332
1899.000000,0.009183352522
1900.000000,0.01308663976
1901.000000,0.00806921448
1902.000000,0.01184633872
1903.000000,0.009828118299
1904.000000,0.009266510511
1905.000000,0.01233586669
1906.000000,0.009078926814
1907.000000,0.0108655647
1908.000000,0.0102667983
1909.000000,0.01169607461
1910.000000,0.007896510476
1911.000000,0.01084127935
1912.000000,0.01124325807
1913.000000,0.008978935142
1914.000000,0.008258895098
1915.000000,0.008217366683
1916.000000,0.01020346803
1917.000000,0.008721724651
1918.000000,0.01134540718
1919.000000,0.01002507325
1920.000000,0.009748824128
1921.000000,0.01018101674
1922.000000,0.0104010977
1923.000000,0.01048337642
1924.000000,0.01142303346
1925.000000,0.01256658142
1926.000000,0.01112719627
1927.000000,0.0112960709
1928.000000,0.01331321782
1929.000000,0.01333054321
1930.000000,0.01045872073
1931.000000,0.008187261702
1932.000000,0.01267220374
1933.000000,0.008724358735
1934.000000,0.008815566698
1935.000000,0.008714628478
1936.000000,0.009617205844
1937.000000,0.005652625607
1938.000000,0.009289618649
1939.000000,0.0125616846
1940.000000,0.0154439057
1941.000000,0.01127941238
1942.000000,0.0119539374
1943.000000,0.01213803263
1944.000000,0.009211326664
1945.000000,0.008472781788
1946.000000,0.01113089335
1947.000000,0.01265092344
1948.000000,0.01067207814
1949.000000,0.01110247317
1950.000000,0.01036361548
1951.000000,0.01014962062
1952.000000,0.00938669499
1953.000000,0.01259659958
1954.000000,0.01212527345
1955.000000,0.01018549369
1956.000000,0.01100124069
1957.000000,0.01168920388
1958.000000,0.01268849119
1959.000000,0.01435439426
1960.000000,0.01396556145
1961.000000,0.0105136234
1962.000000,0.01099393482
1963.000000,0.009968976766
1964.000000,0.01207002588
1965.000000,0.0127043062
1966.000000,0.007279537409
1967.000000,0.01074335091
1968.000000,0.01337799016
1969.000000,0.007655399847
1970.000000,0.01355301549
1971.000000,0.01275063304
1972.000000,0.009476685794
1973.000000,0.008484346401
1974.000000,0.0139343604
1975.000000,0.0097293745
1976.000000,0.007948408081
1977.000000,0.01059570426
1978.000000,0.007676674284
1979.000000,0.00841453463
1980.000000,0.01392553232
1981.000000,0.009527640179
1982.000000,0.0100745062
1983.000000,0.007049616689
1984.000000,0.008588531534
1985.000000,0.01237344233
1986.000000,0.01111393723
1987.000000,0.0123960765
1988.000000,0.0122346722
1989.000000,0.01073017019
1990.000000,0.009433377493
1991.000000,0.005910809686
1992.000000,0.01244368153
1993.000000,0.01046818639
1994.000000,0.01540367301
1995.000000,0.009977549236
1996.000000,0.01001070081
1997.000000,0.009288943405
1998.000000,0.007802995294
1999.000000,0.01028158099
2000.000000,0.01088262115
