pixel_index,raman_shift_cm-1,intensity
0,-225.296,0.11904518965655993
1,-222.228,0.11549495205858104
2,-219.160,0.11193878502743636
3,-216.094,0.10849111527520656
4,-213.029,0.10526636951397238
5,-209.965,0.10237897445581468
6,-206.902,0.09822756704045624
7,-203.840,0.09984692655561445
8,-200.780,0.10260446087825426
9,-197.721,0.09460406727915815
10,-194.663,0.09649245766817408
11,-191.606,0.0943145812411576
12,-188.551,0.09739293647445216
13,-185.497,0.10166686066215053
14,-182.444,0.08706165209827162
15,-179.392,0.08148753264772136
16,-176.341,0.0782529614619288
17,-173.292,0.06917937968719452
18,-170.243,0.0667348999329993
19,-167.196,0.05902341838715188
20,-164.150,0.06314568012296089
21,-161.106,0.06514663325536986
22,-158.062,0.07171789736291477
23,-155.020,0.07708301877958183
24,-151.979,0.07901150948663534
25,-148.939,0.08882762142004895
26,-145.900,0.09051735430066837
27,-142.862,0.08968566024615915
28,-139.826,0.08633257765517731
29,-136.791,0.08018014619175674
30,-133.757,0.06787102137634551
31,-130.724,0.05617891807198655
32,-127.693,0.04567580421116266
33,-124.662,0.03802031454476207
34,-121.633,0.03841704947198197
35,-118.605,0.04577937972122925
36,-115.578,0.04615225180540805
37,-112.553,0.06018237473677872
38,-109.528,0.06144662167926386
39,-106.505,0.06796082361555102
40,-103.483,0.07237941092456433
41,-100.462,0.07491418850696925
42,-97.442,0.07023827829128193
43,-94.424,0.06504329762184252
44,-91.406,0.06247489798313859
45,-88.390,0.05692820236009769
46,-85.375,0.05400816085680466
47,-82.361,0.053714809860293554
48,-79.349,0.049356605115855094
49,-76.337,0.046138145440749005
50,-73.327,0.05240964432990041
51,-70.318,0.055188327650080374
52,-67.310,0.05338756434033833
53,-64.304,0.04809405708498632
54,-61.298,0.043940474218707185
55,-58.294,0.04510187510803517
56,-55.290,0.04804683860553068
57,-52.288,0.038923410110065323
58,-49.288,0.030142505002145915
59,-46.288,0.029825563855428727
60,-43.289,0.04294841235765995
61,-40.292,0.04051423644420833
62,-37.296,0.06347325610625466
63,-34.301,0.11571462979654726
64,-31.307,0.1634446523510397
65,-28.315,0.18710815728356153
66,-25.323,0.18783058308697445
67,-22.333,0.16219160832641047
68,-19.344,0.13118331749422682
69,-16.356,0.09866389642691456
70,-13.369,0.05603407544737286
71,-10.384,0.004517260092516194
72,-7.399,0.0
73,-4.416,0.021892850289343187
74,-1.434,0.0279874134740723
75,1.547,0.025767032139338772
76,4.527,0.029983581363256094
77,7.506,0.028889302311418695
78,10.483,0.03283266587206583
79,13.459,0.030519294662176257
80,16.434,0.025615379851347757
81,19.408,0.017956832270216168
82,22.381,0.013381011346065893
83,25.353,0.015233024862592178
84,28.323,0.014432583998642725
85,31.293,0.013072888826445412
86,34.261,0.01636150780250695
87,37.228,0.016564400186343285
88,40.193,0.016253317141387724
89,43.158,0.015428258667640273
90,46.122,0.011321627696653189
91,49.084,0.013250432712132668
92,52.045,0.013868936787392377
93,55.005,0.015104364916555053
94,57.964,0.015029105745075185
95,60.922,0.019198486965614513
96,63.878,0.024150808961187924
97,66.834,0.03108894446589009
98,69.788,0.04067583453204995
99,72.741,0.059211389981971195
100,75.693,0.0723809633785052
101,78.644,0.08835448630922764
102,81.594,0.10194144997231928
103,84.542,0.1064882014861307
104,87.490,0.11293331258730067
105,90.436,0.11685967896265828
106,93.381,0.11300557535397167
107,96.325,0.10800541958095719
108,99.268,0.10643468150716491
109,102.209,0.11698672661260417
110,105.150,0.12347596700061625
111,108.089,0.1309354162077284
112,111.027,0.13318826044801393
113,113.964,0.1348671620893173
114,116.900,0.13951811647664686
115,119.835,0.13318606206826034
116,122.769,0.12050366093819062
117,125.701,0.11073620774213133
118,128.632,0.11057531221626389
119,131.562,0.10978345717085006
120,134.492,0.11207821635294726
121,137.419,0.11637295174477671
122,140.346,0.11019961901901107
123,143.272,0.11883755113884782
124,146.196,0.12312712304593836
125,149.120,0.11786380061924534
126,152.042,0.11848972121204483
127,154.963,0.11419543689769235
128,157.883,0.11333115332697435
129,160.802,0.10548777335244852
130,163.719,0.10404848608370146
131,166.636,0.11107226731774086
132,169.551,0.10539773636238854
133,172.466,0.09909264312971394
134,175.379,0.09530263005327555
135,178.291,0.09648702351825392
136,181.202,0.09389532258984969
137,184.111,0.08546860677449371
138,187.020,0.08459006441435686
139,189.927,0.08920077482484065
140,192.834,0.0884912888315799
141,195.739,0.10104935713047596
142,198.643,0.09467534983709168
143,201.546,0.101168599542797
144,204.448,0.112693692486995
145,207.348,0.11283626540796299
146,210.248,0.11389283896225787
147,213.146,0.11420484267758078
148,216.044,0.10199054568768563
149,218.940,0.10252927846702906
150,221.835,0.09500281658598743
151,224.729,0.09445294403896659
152,227.622,0.09212915837282952
153,230.513,0.1004995585719548
154,233.404,0.10097644667606631
155,236.293,0.09396019931697663
156,239.182,0.09500733698388454
157,242.069,0.0962824446912545
158,244.955,0.09240940618984712
159,247.840,0.10512158526087029
160,250.724,0.10502180713079767
161,253.607,0.1070374688653607
162,256.488,0.10035911921835493
163,259.369,0.09894187413671876
164,262.248,0.09088961526357736
165,265.126,0.0772890342507785
166,268.004,0.07152331680649335
167,270.880,0.07262020653980589
168,273.754,0.07646183218502331
169,276.628,0.08808120175078235
170,279.501,0.09855623211923493
171,282.373,0.10731501750248237
172,285.243,0.10240424580823156
173,288.112,0.11522289585197246
174,290.981,0.1135713347587752
175,293.848,0.1164376610194358
176,296.714,0.11095347423777727
177,299.579,0.10026441281780171
178,302.442,0.09420769560896781
179,305.305,0.09592896083249534
180,308.167,0.09559103651686197
181,311.027,0.08798938327880382
182,313.886,0.08444823750012832
183,316.745,0.09068692185961207
184,319.602,0.09944194884370176
185,322.458,0.11317264017524177
186,325.313,0.10957375020032677
187,328.167,0.10723302534447682
188,331.019,0.10409154037168343
189,333.871,0.09660335205854055
190,336.722,0.09203199334335091
191,339.571,0.08259923911530145
192,342.419,0.0740816042355041
193,345.266,0.0655640229382749
194,348.113,0.05927704415043977
195,350.958,0.058938234606223064
196,353.801,0.06031533450044145
197,356.644,0.060262750863223156
198,359.486,0.0639850680574292
199,362.327,0.061645112397629515
200,365.166,0.059534134993028065
201,368.004,0.0622847899785426
202,370.842,0.06509288705321307
203,373.678,0.06069493699741317
204,376.513,0.05166464582195663
205,379.347,0.05453081048321514
206,382.180,0.060542923598495633
207,385.012,0.05574591505684125
208,387.843,0.06021454730386036
209,390.672,0.06090883798866889
210,393.501,0.0566849478489489
211,396.328,0.06870430599067257
212,399.155,0.07780727922235282
213,401.980,0.07152581480156711
214,404.804,0.07883765217598047
215,407.627,0.08008769820025785
216,410.449,0.07211536478879839
217,413.270,0.05749435680788482
218,416.090,0.0615039984651049
219,418.909,0.05829307541939422
220,421.726,0.05718406580832831
221,424.543,0.060096039344062116
222,427.358,0.05241332916194521
223,430.173,0.04423275546245228
224,432.986,0.05414206139452119
225,435.798,0.05070011191897022
226,438.609,0.048757827995199385
227,441.419,0.039926988233438085
228,444.228,0.053204460716473306
229,447.036,0.0529018349175465
230,449.843,0.057092116503179094
231,452.649,0.05387918112797105
232,455.453,0.037798879538302646
233,458.257,0.03290376121422764
234,461.059,0.03759739904769483
235,463.861,0.02998450038315408
236,466.661,0.036773095954632344
237,469.460,0.0330270578054724
238,472.259,0.04511237534332101
239,475.056,0.051238535223412096
240,477.852,0.06107117183895931
241,480.647,0.05796714131896573
242,483.440,0.05256435881956355
243,486.233,0.05538635342005899
244,489.025,0.08136051481034376
245,491.815,0.10538025218695062
246,494.605,0.1513426491093133
247,497.393,0.2675391653483166
248,500.181,0.5117347442916913
249,502.967,0.7643960415132331
250,505.752,0.9455672657636943
251,508.537,1.0
252,511.320,0.9540602324470161
253,514.102,0.8121518407658174
254,516.883,0.6234036254386163
255,519.663,0.3819819176678792
256,522.441,0.15503131152210226
257,525.219,0.03611956515782898
258,527.996,0.04034564607895507
259,530.771,0.0602439311885459
260,533.546,0.07579688825470383
261,536.319,0.06435610714471837
262,539.092,0.062124770570184736
263,541.863,0.06858815770113429
264,544.633,0.08025751183084354
265,547.403,0.07968898513589748
266,550.171,0.07511838493331169
267,552.938,0.06328689207831266
268,555.704,0.05159407937185195
269,558.469,0.03862013478983711
270,561.233,0.03475988953174134
271,563.996,0.025543531075646924
272,566.757,0.025498095811114046
273,569.518,0.02547271968471738
274,572.278,0.029013383682781325
275,575.036,0.038007471824972675
276,577.794,0.046073746961417916
277,580.550,0.04416804110217755
278,583.306,0.04761794856047211
279,586.060,0.04973692919083053
280,588.813,0.04661692389376119
281,591.566,0.049095512258035975
282,594.317,0.048250601484190705
283,597.067,0.04556922397176382
284,599.816,0.04322472799228071
285,602.564,0.04899537534895804
286,605.311,0.05464540061579867
287,608.057,0.05012188233456776
288,610.802,0.05397158457517085
289,613.546,0.04287309246611506
290,616.288,0.03425189872759974
291,619.030,0.04264259482496769
292,621.771,0.04629633254951192
293,624.510,0.046700143500254594
294,627.249,0.04271018137880707
295,629.986,0.057546816121237535
296,632.723,0.06850444176271059
297,635.458,0.07001466836218857
298,638.192,0.06513824578918101
299,640.926,0.0489019186534199
300,643.658,0.05102340874696938
301,646.389,0.053947541952101774
302,649.119,0.05858270511941467
303,651.848,0.05718105092013049
304,654.576,0.05564325886960787
305,657.304,0.05149136854738995
306,660.029,0.04456289439097638
307,662.754,0.03485784899889641
308,665.478,0.027008877571029665
309,668.201,0.022503010447014322
310,670.923,0.020367979058852737
311,673.644,0.0304409910127294
312,676.363,0.046430828953390985
313,679.082,0.051398342073591625
314,681.800,0.056467328975320155
315,684.516,0.04986684650466222
316,687.232,0.04636012772804123
317,689.946,0.04715281542889576
318,692.660,0.04704035871315839
319,695.372,0.042476803495068646
320,698.084,0.03140321350915034
321,700.794,0.03555293876664596
322,703.503,0.03891195181456237
323,706.212,0.04359046792104325
324,708.919,0.043459546377269495
325,711.625,0.03651922377389029
326,714.330,0.04082499924438275
327,717.034,0.05643184815930749
328,719.737,0.06012122120206729
329,722.439,0.050755747340818266
330,725.141,0.04929308116759596
331,727.841,0.04435182722405413
332,730.539,0.045769191507814534
333,733.237,0.05039956983952922
334,735.934,0.04202470132122505
335,738.630,0.04056428854230081
336,741.325,0.04179718431864785
337,744.019,0.04074456257531954
338,746.712,0.03700766081992949
339,749.403,0.03216089938047324
340,752.094,0.033857492847506325
341,754.784,0.027678117390531526
342,757.473,0.02446850827433543
343,760.160,0.02678589093436596
344,762.847,0.024221149870653862
345,765.532,0.031560844849239746
346,768.217,0.030745628844843227
347,770.900,0.023257515034912638
348,773.583,0.03082646440738909
349,776.264,0.04166802319836999
350,778.945,0.04222612867232828
351,781.624,0.04136212130916058
352,784.303,0.03401147617062271
353,786.980,0.04013372675760132
354,789.657,0.044862704467281446
355,792.332,0.05843596455998088
356,795.006,0.06046351170256043
357,797.680,0.052608410550558676
358,800.352,0.055853183098249305
359,803.023,0.052124851273467505
360,805.693,0.051080885117250244
361,808.363,0.04394446542052271
362,811.031,0.028890352930883673
363,813.698,0.04046312564458788
364,816.364,0.05784454131708685
365,819.029,0.06502056929918404
366,821.694,0.07274350101721777
367,824.357,0.08316323764041957
368,827.019,0.09134230511205953
369,829.680,0.08827202591052068
370,832.340,0.0823025853411639
371,834.999,0.06941120773928335
372,837.657,0.052814379592813404
373,840.314,0.041447352783775905
374,842.970,0.03667557737816066
375,845.625,0.03260818231019778
376,848.279,0.045259213927123794
377,850.932,0.050035691315515836
378,853.584,0.057747098041046094
379,856.235,0.06507624757632138
380,858.885,0.06821662282493565
381,861.534,0.07060302913091922
382,864.182,0.061242780580086385
383,866.829,0.040391760267248826
384,869.475,0.04315173198215723
385,872.120,0.044631509573132534
386,874.764,0.04225741496915643
387,877.407,0.030252962250968053
388,880.049,0.045793605456959964
389,882.690,0.05427758852328049
390,885.330,0.05982281363683889
391,887.969,0.06099561078358404
392,890.607,0.056934872876297164
393,893.243,0.04824432266920349
394,895.879,0.047334846497961644
395,898.514,0.0484299578878412
396,901.148,0.05193001386766442
397,903.781,0.05148971851655355
398,906.413,0.05284683173626481
399,909.044,0.04400825068930044
400,911.674,0.04447679280762059
401,914.303,0.05459562178070284
402,916.930,0.05200228180104929
403,919.557,0.06083222277495802
404,922.183,0.06856018407774028
405,924.808,0.08702512133050394
406,927.432,0.10055615899027609
407,930.055,0.11452944398965795
408,932.677,0.11743176888010722
409,935.298,0.11850994981104014
410,937.918,0.12050613504213477
411,940.536,0.12187611871461285
412,943.154,0.12244832680738083
413,945.771,0.12165083425983479
414,948.387,0.11330680233215265
415,951.002,0.10874044900631488
416,953.616,0.11258441166049454
417,956.229,0.12432395796229105
418,958.841,0.11719277032938143
419,961.452,0.11858629836449916
420,964.062,0.10116629439180798
421,966.671,0.09038364601572936
422,969.279,0.09556081589058653
423,971.886,0.08158130867997962
424,974.492,0.0748682927224825
425,977.097,0.07793667711294146
426,979.701,0.07480618069781478
427,982.304,0.07822365701608515
428,984.906,0.07206068508786903
429,987.507,0.07547692242555165
430,990.107,0.062621138591098
431,992.706,0.05934457150296609
432,995.305,0.06730582168864221
433,997.902,0.0601389215499384
434,1000.498,0.05494458041543903
435,1003.093,0.06361894490896834
436,1005.687,0.05637165602292936
437,1008.280,0.057190021709621335
438,1010.873,0.053893523897253236
439,1013.464,0.05060006148918763
440,1016.054,0.05004180750857389
441,1018.643,0.04333921284247825
442,1021.232,0.042603161482467865
443,1023.819,0.0379964610405704
444,1026.405,0.03157806224150187
445,1028.991,0.0389616558079839
446,1031.575,0.03280899237147491
447,1034.158,0.03268007925405809
448,1036.741,0.03337035642807562
449,1039.322,0.03333181715585072
450,1041.903,0.03127566804055055
451,1044.482,0.025345983109184372
452,1047.061,0.026180177470891325
453,1049.638,0.027011382605486665
454,1052.215,0.021623894636146425
455,1054.790,0.01889283403692933
456,1057.365,0.014128377239391306
457,1059.938,0.021228424326015866
458,1062.511,0.037188162688207606
459,1065.083,0.04164683099871951
460,1067.653,0.05194617269644582
461,1070.223,0.058442216819128937
462,1072.792,0.05993192821692418
463,1075.360,0.05248656461940518
464,1077.927,0.044211076429057944
465,1080.492,0.04583696750258609
466,1083.057,0.04933747080265882
467,1085.621,0.06199656277969646
468,1088.184,0.07576931212516856
469,1090.746,0.06883108487178098
470,1093.307,0.0691493139784335
471,1095.867,0.06475003260867573
472,1098.426,0.05707197317495891
473,1100.984,0.049046836946563095
474,1103.541,0.04021708094964792
475,1106.097,0.061066573008201105
476,1108.653,0.07070232182522804
477,1111.207,0.08307941924727198
478,1113.760,0.08777831701520367
479,1116.312,0.08655271892595794
480,1118.864,0.08344286379965343
481,1121.414,0.07598945337736714
482,1123.964,0.06116125937965299
483,1126.512,0.06611074033008633
484,1129.059,0.05854145626089441
485,1131.606,0.06614019115998311
486,1134.152,0.06362764104823063
487,1136.696,0.0691787449602478
488,1139.240,0.07075189286963586
489,1141.782,0.067290946840691
490,1144.324,0.05416327422767096
491,1146.865,0.033942559826933255
492,1149.405,0.02984915994687855
493,1151.944,0.04148272347164299
494,1154.481,0.0439589233480132
495,1157.018,0.04715454522501864
496,1159.554,0.051255382818008725
497,1162.089,0.05732981641482856
498,1164.623,0.0447457772025313
499,1167.157,0.045387515640213094
500,1169.689,0.037762898581155
501,1172.220,0.03576982345190986
502,1174.750,0.04249671136907338
503,1177.279,0.05679970168420318
504,1179.808,0.07644826676622475
505,1182.335,0.08634345481690839
506,1184.861,0.10165160608239618
507,1187.387,0.10297974955766795
508,1189.911,0.09526638206556777
509,1192.435,0.08512034744968991
510,1194.958,0.07253833980880117
511,1197.479,0.0631252715675953
512,1200.000,0.05539412358456181
513,1202.520,0.057195486229410675
514,1205.039,0.05140800738226948
515,1207.556,0.04091374738734372
516,1210.073,0.04801797322952669
517,1212.589,0.047533166266062354
518,1215.104,0.04524036190134495
519,1217.618,0.04326709318192286
520,1220.132,0.06241201950321096
521,1222.644,0.06470501726883064
522,1225.155,0.09071976276526256
523,1227.665,0.09536787356240572
524,1230.175,0.09318245497548838
525,1232.683,0.09350660832835826
526,1235.190,0.09072026676384594
527,1237.697,0.08030518150741572
528,1240.202,0.07455784456548067
529,1242.707,0.07347825374019157
530,1245.211,0.07615131884187298
531,1247.714,0.06141562902697287
532,1250.215,0.06307224259323052
533,1252.716,0.06164704027048898
534,1255.216,0.06470979474803279
535,1257.715,0.06680332497298276
536,1260.213,0.0642100836208394
537,1262.710,0.06865463224397468
538,1265.206,0.07710573936162553
539,1267.702,0.08435883958920914
540,1270.196,0.0928732289576286
541,1272.689,0.08143030308242874
542,1275.182,0.0732504154497718
543,1277.673,0.0813163732005084
544,1280.164,0.07102641071493648
545,1282.653,0.06863211010829867
546,1285.142,0.07207452040160293
547,1287.630,0.06905714427095785
548,1290.116,0.07393593301491218
549,1292.602,0.07312588110139635
550,1295.087,0.06941485059587683
551,1297.571,0.06932283965965516
552,1300.054,0.07170598493153317
553,1302.536,0.08119691559775705
554,1305.018,0.07657702658096341
555,1307.498,0.0903891290305721
556,1309.977,0.08540057887243985
557,1312.455,0.08837769455090838
558,1314.933,0.09817661238961478
559,1317.409,0.09336454647126854
560,1319.885,0.09010018000868122
561,1322.360,0.09576089305931158
562,1324.834,0.10199650423747235
563,1327.306,0.10360244688802511
564,1329.778,0.10000678698357189
565,1332.249,0.10253373362187661
566,1334.719,0.0987152094958382
567,1337.188,0.10044735356085228
568,1339.657,0.10212524793226194
569,1342.124,0.10266222136158257
570,1344.590,0.09685370683428172
571,1347.056,0.09453689524391061
572,1349.520,0.09885739689629441
573,1351.984,0.08653765787518883
574,1354.446,0.10241698249960174
575,1356.908,0.10354342611374624
576,1359.369,0.10964856767331589
577,1361.829,0.10008573087812962
578,1364.287,0.1007061451598425
579,1366.746,0.09755471465485967
580,1369.203,0.09680827805632448
581,1371.659,0.08508366936116041
582,1374.114,0.07387667579471069
583,1376.568,0.07577733797178704
584,1379.022,0.08408371235445704
585,1381.474,0.07447140754981237
586,1383.926,0.07936884713637056
587,1386.377,0.0688068959616836
588,1388.826,0.07178239774329905
589,1391.275,0.07022236040722765
590,1393.723,0.07750993965354015
591,1396.170,0.0795184600372978
592,1398.616,0.08442651452112802
593,1401.061,0.0964663792921073
594,1403.506,0.0878596156525731
595,1405.949,0.10088219998311171
596,1408.391,0.10996127087325071
597,1410.833,0.09296313314114628
598,1413.273,0.08351726269763604
599,1415.713,0.07899277591496598
600,1418.152,0.08350756265038298
601,1420.590,0.08729653950695085
602,1423.027,0.07845794639820726
603,1425.463,0.06320475885960533
604,1427.898,0.05863767665916792
605,1430.332,0.07259213415870967
606,1432.765,0.06326004510837638
607,1435.198,0.055058740787588524
608,1437.629,0.03843591985075733
609,1440.060,0.05203580515926666
610,1442.489,0.0637159266060835
611,1444.918,0.0723896108881069
612,1447.346,0.06978492218639787
613,1449.773,0.06574466030496369
614,1452.199,0.0798710915362327
615,1454.624,0.09243262568125894
616,1457.048,0.09656609660422731
617,1459.471,0.10250904393965582
618,1461.894,0.08717372676189825
619,1464.315,0.09442823105504662
620,1466.736,0.09030563162854763
621,1469.156,0.07823214081117155
622,1471.574,0.05375722215276654
623,1473.992,0.03712718932021753
624,1476.409,0.040810108473248514
625,1478.825,0.042157546156509414
626,1481.240,0.04437230308031768
627,1483.655,0.048026302091907794
628,1486.068,0.047914973393231086
629,1488.480,0.05948041871240514
630,1490.892,0.06356297712736582
631,1493.303,0.06106720515451857
632,1495.712,0.055716000792208294
633,1498.121,0.05893350888099082
634,1500.529,0.05360341529290485
635,1502.936,0.04895227371900479
636,1505.343,0.0473821824780931
637,1507.748,0.05238190676964174
638,1510.152,0.06692547478472315
639,1512.556,0.07705778784209495
640,1514.958,0.07660199467839325
641,1517.360,0.08711984706684975
642,1519.761,0.09557133413175152
643,1522.161,0.10177650308640604
644,1524.560,0.07974982999056913
645,1526.958,0.07739760423017206
646,1529.355,0.07071155708866524
647,1531.751,0.08580517166852475
648,1534.147,0.09192846637098068
649,1536.541,0.07910805167508347
650,1538.935,0.07468217156551121
651,1541.327,0.07767853694353104
652,1543.719,0.08346450692115057
653,1546.110,0.08954009050878238
654,1548.500,0.06774970510037108
655,1550.889,0.0719421088521201
656,1553.278,0.06509566583978559
657,1555.665,0.06880515621577762
658,1558.052,0.050835521879676306
659,1560.437,0.04182234189673298
660,1562.822,0.04299036873228982
661,1565.206,0.04970696111977675
662,1567.589,0.05585245985398634
663,1569.971,0.053762994795134966
664,1572.352,0.06303944267933309
665,1574.732,0.0729259730357411
666,1577.112,0.07536601947269787
667,1579.490,0.06964218929089151
668,1581.868,0.0769368687406921
669,1584.245,0.07889685341501766
670,1586.620,0.08105902312037641
671,1588.995,0.07879073617934994
672,1591.370,0.0716147430785075
673,1593.743,0.059609346634191804
674,1596.115,0.05746942145403406
675,1598.486,0.04660723466494539
676,1600.857,0.048641729571169405
677,1603.227,0.04607184014430482
678,1605.596,0.05657019288180409
679,1607.963,0.058643043804787166
680,1610.330,0.0608063837254755
681,1612.697,0.058794496998806484
682,1615.062,0.05987088468404466
683,1617.426,0.048539951632264246
684,1619.790,0.040165485362751344
685,1622.152,0.04603419304641047
686,1624.514,0.039894479905050656
687,1626.875,0.04445195573335385
688,1629.235,0.049297485578888287
689,1631.594,0.06169457022739603
690,1633.952,0.06211737497376911
691,1636.310,0.05322866634002305
692,1638.666,0.04987380353087953
693,1641.022,0.04627628408050245
694,1643.377,0.04089188719190449
695,1645.731,0.055854292391287426
696,1648.084,0.05588273933709298
697,1650.436,0.06383059979002415
698,1652.787,0.0648077757233426
699,1655.137,0.06362899013742987
700,1657.487,0.055480903224188284
701,1659.835,0.039066960905430395
702,1662.183,0.02649865068753265
703,1664.530,0.01078260396881939
704,1666.876,0.017998536151146754
705,1669.221,0.031203923505101015
706,1671.565,0.03915485679723911
707,1673.909,0.05395771674488958
708,1676.251,0.06928788699693098
709,1678.593,0.07739973864846
710,1680.934,0.08634695221312023
711,1683.274,0.07567527333904059
712,1685.613,0.07363410258089939
713,1687.951,0.06486397041735331
714,1690.288,0.07492161243625578
715,1692.625,0.06186143051399776
716,1694.960,0.06235751097736197
717,1697.295,0.06279819052578026
718,1699.629,0.05912275564934978
719,1701.962,0.055449091236482645
720,1704.294,0.05383613428251389
721,1706.625,0.04032878285558703
722,1708.956,0.042951594083218046
723,1711.285,0.04923648386001518
724,1713.614,0.06518365562312031
725,1715.942,0.05709424013483595
726,1718.269,0.07149467251511765
727,1720.595,0.07155265220472418
728,1722.920,0.07585589177424577
729,1725.244,0.07714086954870335
730,1727.568,0.07746652217340463
731,1729.890,0.0628777473674967
732,1732.212,0.057166820203431085
733,1734.533,0.059933378393716895
734,1736.853,0.05161740594270869
735,1739.172,0.05306579461100576
736,1741.491,0.0690949281794161
737,1743.808,0.06939755743849546
738,1746.125,0.06998770979516923
739,1748.440,0.0734390585529114
740,1750.755,0.07397509955957407
741,1753.069,0.07456985702401142
742,1755.383,0.07876928508219452
743,1757.695,0.06907231529348584
744,1760.006,0.06782969881437463
745,1762.317,0.07359242651549372
746,1764.627,0.06039706884089422
747,1766.936,0.05655414704771634
748,1769.244,0.051654524040067554
749,1771.551,0.04941573271181846
750,1773.857,0.04892267324497049
751,1776.163,0.05131919364665875
752,1778.467,0.05048563139442924
753,1780.771,0.03709951615531507
754,1783.074,0.05188224910092494
755,1785.376,0.04844809600126697
756,1787.677,0.054127805745524206
757,1789.978,0.06322893086908798
758,1792.277,0.06624660789782286
759,1794.576,0.05557096631524989
760,1796.874,0.0521053375986291
761,1799.171,0.03926374066404383
762,1801.467,0.037120904859179016
763,1803.762,0.031149796895248643
764,1806.057,0.048860235543210416
765,1808.350,0.05101781316222354
766,1810.643,0.06444603250898491
767,1812.935,0.06759491715146002
768,1815.226,0.06991707159309857
769,1817.516,0.06042973011345358
770,1819.805,0.052417913684826824
771,1822.094,0.0434785224342552
772,1824.381,0.039388036392224095
773,1826.668,0.03473402835109982
774,1828.954,0.029848846600690253
775,1831.239,0.022974248091963526
776,1833.524,0.030792243702082736
777,1835.807,0.03460309466199102
778,1838.090,0.03936843018007499
779,1840.371,0.03704017506287366
780,1842.652,0.027653891044911443
781,1844.932,0.026496193464655274
782,1847.212,0.027790576855709553
783,1849.490,0.03508299407742896
784,1851.768,0.032630605806065166
785,1854.044,0.036687007021018
786,1856.320,0.04299898301714546
787,1858.595,0.04577580817877126
788,1860.869,0.04025993712316077
789,1863.143,0.03476600554527866
790,1865.415,0.02864619686015704
791,1867.687,0.03717000685837456
792,1869.958,0.04475596335619822
793,1872.228,0.048563523180996215
794,1874.497,0.03984214473009615
795,1876.765,0.043871119017902936
796,1879.033,0.04297779700363841
797,1881.299,0.03973585021771604
798,1883.565,0.04098303718813008
799,1885.830,0.03706185825368565
800,1888.094,0.05161339826155046
801,1890.357,0.06373069470542446
802,1892.620,0.059769056942146424
803,1894.881,0.05673937395363693
804,1897.142,0.046323486106085054
805,1899.402,0.04819577052907962
806,1901.661,0.04428322693786801
807,1903.920,0.04276444020431671
808,1906.177,0.05908150567111254
809,1908.434,0.0513691366205886
810,1910.690,0.06721189211827812
811,1912.944,0.0719644272426339
812,1915.199,0.0774971840307908
813,1917.452,0.08491791790121926
814,1919.704,0.07878450617717003
815,1921.956,0.06744711250953711
816,1924.207,0.058683970563122516
817,1926.457,0.050950855622331946
818,1928.706,0.06844039116494802
819,1930.954,0.061909393725621896
820,1933.202,0.06967715675385373
821,1935.449,0.06863769592501243
822,1937.694,0.07177380739183514
823,1939.939,0.08560547872937507
824,1942.184,0.08765584849460645
825,1944.427,0.08610350109820274
826,1946.670,0.07791719370198735
827,1948.911,0.08019761804998413
828,1951.152,0.09202967210859013
829,1953.392,0.0835014048266386
830,1955.632,0.07623175456246184
831,1957.870,0.0567803530765958
832,1960.108,0.055631053065712234
833,1962.344,0.06363296094554276
834,1964.580,0.07152079711591747
835,1966.815,0.07300331774712915
836,1969.050,0.07831805484196064
837,1971.283,0.08334709837317587
838,1973.516,0.0839725382901331
839,1975.748,0.08728629174309571
840,1977.979,0.08396588599510982
841,1980.209,0.07658499146283515
842,1982.438,0.08373131743166325
843,1984.667,0.08161256309706648
844,1986.895,0.08475573497978622
845,1989.122,0.08381231732873906
846,1991.348,0.07813772434918914
847,1993.573,0.0639755738973861
848,1995.798,0.06609041869544974
849,1998.021,0.0644075025463988
850,2000.244,0.05486610812280861
851,2002.466,0.04993429393129076
852,2004.687,0.05729613732667857
853,2006.908,0.05479507966592983
854,2009.127,0.05194291931851082
855,2011.346,0.04931157152709285
856,2013.564,0.033156332365678186
857,2015.781,0.031631589445240596
858,2017.997,0.04461073659056175
859,2020.213,0.04023288293925303
860,2022.428,0.04736481687444198
861,2024.641,0.05353845041349894
862,2026.855,0.05984043561478745
863,2029.067,0.06499473595551611
864,2031.278,0.05861506574857606
865,2033.489,0.057324341375843656
866,2035.699,0.06884114064182625
867,2037.908,0.07082528593767926
868,2040.116,0.08279400428923854
869,2042.323,0.07570889849071889
870,2044.530,0.09018135796541465
871,2046.736,0.08249697399184162
872,2048.941,0.08582262778841034
873,2051.145,0.07858433286079042
874,2053.348,0.06716541391126779
875,2055.551,0.055798137517781767
876,2057.752,0.06993337177031886
877,2059.953,0.06889403194155862
878,2062.153,0.06756573952536707
879,2064.353,0.06852721842835405
880,2066.551,0.06908024959358787
881,2068.749,0.06366455473182664
882,2070.946,0.059486087828148695
883,2073.142,0.043444765005547836
884,2075.337,0.043234192944119086
885,2077.532,0.031235180652034834
886,2079.725,0.050342459822841384
887,2081.918,0.07973776454108222
888,2084.110,0.08662802066643349
889,2086.302,0.10689265779721449
890,2088.492,0.1041855814765142
891,2090.682,0.11060218007261828
892,2092.871,0.10628330321725377
893,2095.059,0.0985499871923918
894,2097.246,0.08949446417401376
895,2099.432,0.0605205100885472
896,2101.618,0.05889518781787427
897,2103.803,0.05482093089009154
898,2105.987,0.058020533081010864
899,2108.170,0.06780766286970576
900,2110.353,0.0687401957394318
901,2112.534,0.08401124727024786
902,2114.715,0.08544164548372818
903,2116.895,0.08069473078767256
904,2119.074,0.07480347118130226
905,2121.253,0.056189202127139466
906,2123.430,0.05866145346120067
907,2125.607,0.04259165142093761
908,2127.783,0.060826108631202566
909,2129.959,0.06280620085705219
910,2132.133,0.06403121427592505
911,2134.307,0.062442185264524025
912,2136.480,0.05392170775221703
913,2138.652,0.054352428152029106
914,2140.823,0.05821383524568013
915,2142.994,0.06030135056508006
916,2145.163,0.0714244345184992
917,2147.332,0.06984973275111957
918,2149.500,0.07119091730830863
919,2151.668,0.06052060033401741
920,2153.834,0.061459473289468276
921,2156.000,0.058908569300684784
922,2158.165,0.06419208565029076
923,2160.329,0.07416439160767252
924,2162.492,0.07956020585119562
925,2164.655,0.08152337232441004
926,2166.817,0.07913878709902421
927,2168.978,0.06983274934730165
928,2171.138,0.05358521995472451
929,2173.298,0.03322082000355708
930,2175.456,0.0260771790035225
931,2177.614,0.030605816819042564
932,2179.771,0.034209484584709085
933,2181.927,0.043197241178411276
934,2184.083,0.04304204950293182
935,2186.238,0.0506158272746366
936,2188.391,0.06923575213466415
937,2190.545,0.0894077705975732
938,2192.697,0.09454589765563332
939,2194.848,0.09979300967382364
940,2196.999,0.0942767628093715
941,2199.149,0.09947710622337753
942,2201.298,0.08792354020644348
943,2203.447,0.0660936307525128
944,2205.594,0.054695479377444144
945,2207.741,0.05430099979727817
946,2209.887,0.05690315630950221
947,2212.033,0.06255912564133889
948,2214.177,0.060345029267905075
949,2216.321,0.07223485253271884
950,2218.464,0.058871477598244515
951,2220.606,0.06492821088879072
952,2222.747,0.06570274544672512
953,2224.888,0.056165750266992526
954,2227.028,0.05489300850661648
955,2229.167,0.044640557712536354
956,2231.305,0.03209996204794987
957,2233.442,0.045231853108206856
958,2235.579,0.046324998382739034
959,2237.715,0.049420733056528665
960,2239.850,0.041228150901284503
961,2241.984,0.05617317061675317
962,2244.118,0.06707721148777343
963,2246.251,0.07434060803713435
964,2248.383,0.06838377475187649
965,2250.514,0.07152388782356653
966,2252.645,0.06499795908372696
967,2254.774,0.07219790742293303
968,2256.903,0.06718622157212949
969,2259.031,0.06371023579400739
970,2261.159,0.06520824041511124
971,2263.285,0.07070793797277926
972,2265.411,0.08226825978497708
973,2267.536,0.08896532705867592
974,2269.660,0.08616649055606782
975,2271.784,0.08839875470408975
976,2273.907,0.06832385081784742
977,2276.029,0.061115454877138785
978,2278.150,0.0521317505479697
979,2280.270,0.03822838288936347
980,2282.390,0.02684578676088343
981,2284.509,0.02879342179321442
982,2286.627,0.0394386386771737
983,2288.744,0.049516155415729034
984,2290.861,0.055365603615597024
985,2292.976,0.057558896582341
986,2295.091,0.04322759354353564
987,2297.206,0.049547125255349746
988,2299.319,0.04077185251262018
989,2301.432,0.03582727833169077
990,2303.544,0.04100333913747534
991,2305.655,0.05715830592074756
992,2307.765,0.0697470419325193
993,2309.875,0.08046007687106871
994,2311.984,0.07398464526538534
995,2314.092,0.06551419796795467
996,2316.199,0.04927222563972678
997,2318.306,0.03726924070366006
998,2320.411,0.034137859086399665
999,2322.516,0.03879139710359466
1000,2324.621,0.04413790647979168
1001,2326.724,0.05635421401465004
1002,2328.827,0.0676620554671127
1003,2330.929,0.06841454027944945
1004,2333.030,0.06216155962916879
1005,2335.131,0.052319058773362855
1006,2337.230,0.04825064987633587
1007,2339.329,0.041034208745242884
1008,2341.427,0.048857091305206844
1009,2343.525,0.049013661305632776
1010,2345.621,0.05945619601978388
1011,2347.717,0.06025911787761942
1012,2349.812,0.070751999126123
1013,2351.907,0.07217552021950914
1014,2354.000,0.06916229698785681
1015,2356.093,0.06319933047378294
1016,2358.185,0.06606993455111282
1017,2360.276,0.05843774565984914
1018,2362.367,0.04228941504161704
1019,2364.457,0.03161600097227135
1020,2366.546,0.026918894864223386
1021,2368.634,0.03157964053109195
1022,2370.722,0.04897978178649576
1023,2372.808,0.08250086244405344
