raman_shift_cm-1,intensity
100.0,392.3177
101.8573,402.8283
103.7146,538.1055
105.5718,204.644
107.4291,28.7182
109.2864,182.9665
111.1437,239.6096
113.001,603.973
114.8583,450.7954
116.7155,349.6909
118.5728,224.198
120.4301,323.8197
122.2874,612.4982
124.1447,284.4293
126.002,363.4785
127.8592,303.2498
129.7165,492.8708
131.5738,590.8582
133.4311,996.913
135.2884,362.5185
137.1457,791.0017
139.0029,1098.181
140.8602,1114.2635
142.7175,1669.9542
144.5748,1498.9345
146.4321,2668.8053
148.2893,4492.8
150.1466,8045.8127
152.0039,11138.2116
153.8612,8419.818
155.7185,4377.0084
157.5758,2969.3907
159.433,1730.8336
161.2903,1468.5312
163.1476,1015.3443
165.0049,1117.8819
166.8622,948.4129
168.7195,940.9577
170.5767,343.4075
172.434,991.361
174.2913,680.2091
176.1486,329.3524
178.0059,674.2207
179.8631,1021.7474
181.7204,229.4982
183.5777,345.8172
185.435,808.055
187.2923,590.9926
189.1496,608.6333
191.0068,1026.1673
192.8641,534.8038
194.7214,1044.5174
196.5787,1450.8796
198.436,1769.849
200.2933,3038.8356
202.1505,5271.0322
204.0078,9521.6092
205.8651,13092.3274
207.7224,10006.8067
209.5797,5325.1823
211.437,3407.4935
213.2942,2140.6969
215.1515,1593.0473
217.0088,1003.5246
218.8661,1075.9464
220.7234,951.7484
222.5806,938.0469
224.4379,406.2054
226.2952,633.9431
228.1525,463.4752
230.0098,698.1368
231.8671,344.8552
233.7243,449.8837
235.5816,356.7816
237.4389,340.4756
239.2962,518.9247
241.1535,206.5827
243.0108,482.1459
244.868,543.6594
246.7253,424.1442
248.5826,130.2449
250.4399,546.5671
252.2972,336.6159
254.1544,404.7876
256.0117,285.6759
257.869,452.1969
259.7263,185.0585
261.5836,279.0179
263.4409,898.9639
265.2981,135.7491
267.1554,-228.047
269.0127,408.2207
270.87,290.6114
272.7273,517.3633
274.5846,130.7105
276.4418,493.8494
278.2991,337.7867
280.1564,108.2696
282.0137,138.7186
283.871,-9.7077
285.7283,318.8635
287.5855,240.3005
289.4428,705.3291
291.3001,25.9633
293.1574,404.6435
295.0147,-91.1583
296.8719,107.9506
298.7292,414.4898
300.5865,444.7722
302.4438,225.4913
304.3011,-132.9603
306.1584,42.9142
308.0156,520.6323
309.8729,-158.2523
311.7302,335.1236
313.5875,646.4104
315.4448,579.8238
317.3021,339.9328
319.1593,735.7021
321.0166,70.278
322.8739,294.4235
324.7312,248.4445
326.5885,421.4061
328.4457,334.9902
330.303,199.2475
332.1603,291.5694
334.0176,284.1922
335.8749,145.8273
337.7322,427.1378
339.5894,177.4569
341.4467,416.5934
343.304,428.2003
345.1613,466.8261
347.0186,48.6158
348.8759,141.0536
350.7331,570.7014
352.5904,343.221
354.4477,199.0755
356.305,266.0808
358.1623,239.9059
360.0196,-86.3038
361.8768,672.5594
363.7341,117.9794
365.5914,278.6484
367.4487,257.0633
369.306,683.8289
371.1632,198.6729
373.0205,512.5682
374.8778,209.0842
376.7351,549.2679
378.5924,235.4033
380.4497,238.1192
382.3069,112.3606
384.1642,587.7969
386.0215,516.5648
387.8788,344.3413
389.7361,264.2085
391.5934,260.2313
393.4506,177.7243
395.3079,616.6336
397.1652,-140.5586
399.0225,512.722
400.8798,-142.7723
402.737,96.336
404.5943,516.4926
406.4516,113.2969
408.3089,545.0772
410.1662,412.2543
412.0235,203.4317
413.8807,188.47
415.738,148.5236
417.5953,472.3308
419.4526,296.1513
421.3099,278.6722
423.1672,330.6945
425.0244,266.576
426.8817,277.8941
428.739,434.4962
430.5963,337.3444
432.4536,675.5672
434.3109,171.0276
436.1681,312.3999
438.0254,501.7233
439.8827,344.3206
441.74,629.3842
443.5973,255.814
445.4545,274.4436
447.3118,371.088
449.1691,223.0937
451.0264,511.8129
452.8837,145.6462
454.741,498.2835
456.5982,392.7063
458.4555,250.9568
460.3128,476.3915
462.1701,469.7603
464.0274,445.5671
465.8847,344.3949
467.7419,201.2577
469.5992,429.262
471.4565,460.0713
473.3138,308.4012
475.1711,250.3957
477.0283,344.453
478.8856,269.0321
480.7429,141.3181
482.6002,271.722
484.4575,-93.0098
486.3148,324.3164
488.172,-39.7094
490.0293,285.843
491.8866,41.85
493.7439,383.2647
495.6012,202.8275
497.4585,655.2181
499.3157,385.9865
501.173,311.0451
503.0303,75.2687
504.8876,222.3496
506.7449,426.3847
508.6022,285.6201
510.4594,123.1393
512.3167,628.5272
514.174,199.2811
516.0313,535.5026
517.8886,231.3055
519.7458,203.503
521.6031,338.529
523.4604,174.1044
525.3177,149.5852
527.175,384.4328
529.0323,281.8271
530.8895,740.12
532.7468,100.4182
534.6041,84.7259
536.4614,326.4434
538.3187,619.5102
540.176,500.2203
542.0332,123.7962
543.8905,-102.1338
545.7478,655.1836
547.6051,183.1448
549.4624,20.6801
551.3196,394.9986
553.1769,6.3143
555.0342,332.7034
556.8915,-37.3115
558.7488,-257.4773
560.6061,529.5154
562.4633,279.2476
564.3206,332.0957
566.1779,549.6306
568.0352,175.5299
569.8925,88.3784
571.7498,348.6625
573.607,48.4511
575.4643,241.718
577.3216,599.9955
579.1789,697.0865
581.0362,148.8949
582.8935,141.1304
584.7507,589.4135
586.608,308.0522
588.4653,513.5166
590.3226,642.2667
592.1799,163.7209
594.0371,113.6715
595.8944,343.9723
597.7517,84.5806
599.609,252.4035
601.4663,397.2715
603.3236,83.8357
605.1808,481.2918
607.0381,383.1242
608.8954,37.3119
610.7527,536.5038
612.61,313.5533
614.4673,410.8054
616.3245,288.3527
618.1818,401.3027
620.0391,90.5983
621.8964,284.7732
623.7537,449.3241
625.6109,488.384
627.4682,694.7245
629.3255,367.7165
631.1828,432.6141
633.0401,538.3452
634.8974,731.5801
636.7546,-29.2512
638.6119,-2.2085
640.4692,302.8459
642.3265,809.3078
644.1838,235.8295
646.0411,167.8326
647.8983,206.7976
649.7556,29.9567
651.6129,73.8945
653.4702,576.4571
655.3275,404.8468
657.1848,-190.018
659.042,254.0047
660.8993,151.3762
662.7566,465.2467
664.6139,665.464
666.4712,624.2357
668.3284,303.9721
670.1857,123.676
672.043,62.0778
673.9003,461.8922
675.7576,418.5524
677.6149,256.7437
679.4721,571.2511
681.3294,477.5801
683.1867,672.698
685.044,800.1087
686.9013,788.8674
688.7586,1058.6686
690.6158,1107.6632
692.4731,1626.3298
694.3304,1527.1712
696.1877,2555.978
698.045,3453.5669
699.9022,5502.9582
701.7595,9968.3953
703.6168,15271.3766
705.4741,12080.2453
707.3314,6765.5165
709.1887,3778.465
711.0459,2716.5137
712.9032,1497.017
714.7605,1413.158
716.6178,1202.4335
718.4751,780.9515
720.3324,841.7303
722.1896,760.521
724.0469,608.1089
725.9042,942.0604
727.7615,274.9265
729.6188,476.0585
731.4761,648.9237
733.3333,272.6144
735.1906,184.7919
737.0479,516.8115
738.9052,471.8497
740.7625,564.9505
742.6197,441.2457
744.477,154.2067
746.3343,243.2274
748.1916,327.0356
750.0489,438.3153
751.9062,431.2789
753.7634,113.6917
755.6207,371.3127
757.478,304.672
759.3353,161.9317
761.1926,-173.0162
763.0499,-63.7228
764.9071,476.1515
766.7644,331.3596
768.6217,536.914
770.479,221.2848
772.3363,105.8733
774.1935,262.7841
776.0508,467.326
777.9081,9.2903
779.7654,184.3015
781.6227,507.8513
783.48,664.4036
785.3372,497.7354
787.1945,111.9193
789.0518,384.0335
790.9091,42.8217
792.7664,-21.5277
794.6237,435.8354
796.4809,316.7432
798.3382,240.4573
800.1955,433.0008
802.0528,391.2891
803.9101,346.8227
805.7674,438.7398
807.6246,249.9417
809.4819,292.4256
811.3392,384.4279
813.1965,444.9942
815.0538,366.3522
816.911,254.7517
818.7683,378.4611
820.6256,536.5357
822.4829,486.6827
824.3402,-20.0164
826.1975,575.1779
828.0547,938.8854
829.912,523.6313
831.7693,-64.5086
833.6266,93.3501
835.4839,272.6425
837.3412,127.4581
839.1984,407.7661
841.0557,423.8433
842.913,327.6198
844.7703,111.5769
846.6276,150.0981
848.4848,519.2868
850.3421,552.3232
852.1994,389.6179
854.0567,332.3445
855.914,429.3876
857.7713,-220.3056
859.6285,126.3664
861.4858,309.3618
863.3431,457.9888
865.2004,260.417
867.0577,163.1925
868.915,106.9879
870.7722,455.9854
872.6295,397.7107
874.4868,194.7539
876.3441,145.1895
878.2014,389.9729
880.0587,128.2468
881.9159,399.3022
883.7732,523.5044
885.6305,246.1443
887.4878,27.0186
889.3451,453.1164
891.2023,587.3348
893.0596,457.8304
894.9169,637.9503
896.7742,214.7313
898.6315,112.1753
900.4888,115.0924
902.346,428.8256
904.2033,297.1697
906.0606,441.8129
907.9179,83.9306
909.7752,244.6444
911.6325,519.6963
913.4897,154.7705
915.347,180.0472
917.2043,452.187
919.0616,-41.6611
920.9189,408.9635
922.7761,-182.8101
924.6334,287.8577
926.4907,681.1941
928.348,241.5913
930.2053,194.2934
932.0626,290.8163
933.9198,209.9844
935.7771,835.2206
937.6344,109.0553
939.4917,415.3617
941.349,405.8789
943.2063,247.4999
945.0635,452.4619
946.9208,220.8972
948.7781,303.72
950.6354,343.8464
952.4927,377.4241
954.35,104.5193
956.2072,267.1316
958.0645,211.5261
959.9218,-20.563
961.7791,865.57
963.6364,320.3133
965.4936,314.0986
967.3509,139.7012
969.2082,199.3328
971.0655,496.4432
972.9228,550.0549
974.7801,266.0344
976.6373,402.3108
978.4946,216.2581
980.3519,924.2019
982.2092,221.8227
984.0665,267.3224
985.9238,438.4038
987.781,500.063
989.6383,136.066
991.4956,480.5062
993.3529,436.4503
995.2102,274.7205
997.0674,179.9522
998.9247,105.5962
1000.782,468.6692
1002.6393,336.332
1004.4966,432.5605
1006.3539,238.3969
1008.2111,584.8983
1010.0684,244.9333
1011.9257,265.1706
1013.783,206.4214
1015.6403,165.7224
1017.4976,196.51
1019.3548,354.1407
1021.2121,530.9017
1023.0694,156.5444
1024.9267,465.246
1026.784,362.8351
1028.6413,245.9967
1030.4985,443.6697
1032.3558,462.1073
1034.2131,546.9906
1036.0704,436.6003
1037.9277,348.2479
1039.7849,534.7065
1041.6422,611.6681
1043.4995,425.739
1045.3568,507.4743
1047.2141,304.3577
1049.0714,569.4397
1050.9286,521.9626
1052.7859,264.9642
1054.6432,382.7603
1056.5005,600.0038
1058.3578,747.1597
1060.2151,951.2997
1062.0723,600.3333
1063.9296,1216.299
1065.7869,947.9276
1067.6442,1230.2427
1069.5015,1266.9615
1071.3587,1552.0328
1073.216,2097.5313
1075.0733,2621.6231
1076.9306,3343.7152
1078.7879,6414.5878
1080.6452,10828.4757
1082.5024,21362.2526
1084.3597,40462.809
1086.217,35085.8802
1088.0743,17210.2078
1089.9316,8934.1284
1091.7889,5470.7182
1093.6461,3876.4882
1095.5034,2715.8785
1097.3607,1988.8649
1099.218,1677.5589
1101.0753,1854.596
1102.9326,918.6181
1104.7898,1224.4801
1106.6471,618.302
1108.5044,1317.583
1110.3617,446.9276
1112.219,636.7784
1114.0762,367.4533
1115.9335,517.4952
1117.7908,509.4803
1119.6481,240.4197
1121.5054,511.1022
1123.3627,531.4972
1125.2199,573.7275
1127.0772,500.2431
1128.9345,397.1635
1130.7918,354.7931
1132.6491,527.3088
1134.5064,403.6719
1136.3636,449.1686
1138.2209,646.5309
1140.0782,657.9616
1141.9355,300.8141
1143.7928,363.6377
1145.65,555.3989
1147.5073,102.4787
1149.3646,140.3654
1151.2219,525.9024
1153.0792,274.8012
1154.9365,124.9922
1156.7937,301.5565
1158.651,375.8826
1160.5083,547.7453
1162.3656,103.5312
1164.2229,377.5583
1166.0802,757.3888
1167.9374,365.409
1169.7947,437.3655
1171.652,624.4215
1173.5093,346.1959
1175.3666,439.3218
1177.2239,640.8951
1179.0811,352.5959
1180.9384,270.6817
1182.7957,487.708
1184.653,682.4057
1186.5103,140.3243
1188.3675,611.0753
1190.2248,-134.1227
1192.0821,315.0019
1193.9394,328.3628
1195.7967,699.1178
1197.654,313.5179
1199.5112,367.6995
1201.3685,276.3676
1203.2258,270.4522
1205.0831,547.4945
1206.9404,-66.4747
1208.7977,416.0966
1210.6549,350.6573
1212.5122,527.5345
1214.3695,418.5975
1216.2268,590.6582
1218.0841,390.3
1219.9413,300.0954
1221.7986,179.4103
1223.6559,382.5863
1225.5132,442.7323
1227.3705,411.6861
1229.2278,-12.0302
1231.085,142.2435
1232.9423,310.8295
1234.7996,311.8119
1236.6569,327.6688
1238.5142,515.9283
1240.3715,628.0612
1242.2287,488.2123
1244.086,274.8512
1245.9433,-19.5568
1247.8006,82.967
1249.6579,8.1028
1251.5152,272.6225
1253.3724,17.3604
1255.2297,461.4782
1257.087,280.7694
1258.9443,364.0112
1260.8016,342.8483
1262.6588,360.7012
1264.5161,307.3695
1266.3734,562.5046
1268.2307,-20.2877
1270.088,140.0779
1271.9453,355.5489
1273.8025,350.8764
1275.6598,246.9664
1277.5171,365.1525
1279.3744,369.3849
1281.2317,391.9157
1283.089,595.5105
1284.9462,214.1444
1286.8035,-20.5566
1288.6608,324.7801
1290.5181,462.6989
1292.3754,82.6797
1294.2326,56.235
1296.0899,567.3221
1297.9472,216.8708
1299.8045,136.1962
1301.6618,131.793
1303.5191,68.298
1305.3763,15.9351
1307.2336,415.701
1309.0909,497.4291
1310.9482,378.1353
1312.8055,139.1839
1314.6628,133.8142
1316.52,468.1095
1318.3773,251.3099
1320.2346,586.7555
1322.0919,157.3668
1323.9492,230.8939
1325.8065,71.5055
1327.6637,563.1598
1329.521,332.8046
1331.3783,49.9527
1333.2356,244.8577
1335.0929,210.8113
1336.9501,506.0486
1338.8074,520.0724
1340.6647,-27.6172
1342.522,101.1643
1344.3793,83.1391
1346.2366,497.0981
1348.0938,208.5539
1349.9511,280.4658
1351.8084,428.5319
1353.6657,364.4887
1355.523,285.828
1357.3803,218.6416
1359.2375,238.001
1361.0948,344.652
1362.9521,570.0093
1364.8094,509.9634
1366.6667,602.4596
1368.5239,31.7305
1370.3812,373.3216
1372.2385,387.0861
1374.0958,380.9951
1375.9531,226.6668
1377.8104,374.9755
1379.6676,233.6726
1381.5249,591.8006
1383.3822,337.3471
1385.2395,510.0409
1387.0968,258.7156
1388.9541,360.715
1390.8113,-34.0908
1392.6686,165.1423
1394.5259,135.9375
1396.3832,101.4824
1398.2405,582.1402
1400.0978,464.6165
1401.955,702.2214
1403.8123,351.1776
1405.6696,286.2898
1407.5269,139.0275
1409.3842,544.2623
1411.2414,511.232
1413.0987,81.0068
1414.956,655.1525
1416.8133,310.6516
1418.6706,573.5842
1420.5279,298.5978
1422.3851,413.3959
1424.2424,527.9342
1426.0997,81.2505
1427.957,451.7284
1429.8143,576.3606
1431.6716,534.9035
1433.5288,411.675
1435.3861,322.908
1437.2434,619.4607
1439.1007,1032.7664
1440.958,628.5489
1442.8152,866.5803
1444.6725,688.0229
1446.5298,936.0854
1448.3871,1050.841
1450.2444,1373.3274
1452.1017,1717.9382
1453.9589,2035.7801
1455.8162,2898.3102
1457.6735,3565.2517
1459.5308,4631.4551
1461.3881,5344.3056
1463.2454,5260.203
1465.1026,4231.0609
1466.9599,3529.418
1468.8172,2556.093
1470.6745,2220.7819
1472.5318,1640.8623
1474.3891,1531.3724
1476.2463,717.7845
1478.1036,622.6466
1479.9609,862.7642
1481.8182,856.5184
1483.6755,549.8146
1485.5327,215.2879
1487.39,513.2489
1489.2473,985.3598
1491.1046,373.1266
1492.9619,499.2869
1494.8192,790.497
1496.6764,588.0067
1498.5337,476.3677
1500.391,665.7045
1502.2483,456.2757
1504.1056,494.0607
1505.9629,527.6244
1507.8201,241.089
1509.6774,416.3484
1511.5347,392.3914
1513.392,397.6201
1515.2493,411.3622
1517.1065,287.6046
1518.9638,142.7398
1520.8211,78.2777
1522.6784,387.2864
1524.5357,530.9853
1526.393,590.8672
1528.2502,-177.6901
1530.1075,104.1547
1531.9648,398.3405
1533.8221,-88.1636
1535.6794,59.2933
1537.5367,344.915
1539.3939,-60.7108
1541.2512,438.4933
1543.1085,106.3663
1544.9658,548.0932
1546.8231,496.5811
1548.6804,286.7208
1550.5376,534.4418
1552.3949,239.1978
1554.2522,614.1553
1556.1095,446.5128
1557.9668,423.2481
1559.824,358.9082
1561.6813,419.7957
1563.5386,547.8884
1565.3959,11.3678
1567.2532,368.9699
1569.1105,195.3259
1570.9677,322.6364
1572.825,775.289
1574.6823,257.9929
1576.5396,295.5325
1578.3969,413.6644
1580.2542,188.2996
1582.1114,506.724
1583.9687,560.3164
1585.826,341.905
1587.6833,484.3598
1589.5406,221.8425
1591.3978,399.0092
1593.2551,96.9247
1595.1124,27.2249
1596.9697,722.8091
1598.827,189.5814
1600.6843,530.5572
1602.5415,472.3635
1604.3988,623.3242
1606.2561,372.5727
1608.1134,181.1704
1609.9707,419.4186
1611.828,564.9528
1613.6852,257.6666
1615.5425,199.9368
1617.3998,207.8881
1619.2571,353.864
1621.1144,411.8894
1622.9717,307.2296
1624.8289,215.0003
1626.6862,459.252
1628.5435,836.703
1630.4008,500.5246
1632.2581,86.92
1634.1153,567.4156
1635.9726,-374.2857
1637.8299,197.7533
1639.6872,588.774
1641.5445,89.0759
1643.4018,512.6343
1645.259,461.3903
1647.1163,387.0285
1648.9736,246.9289
1650.8309,388.3415
1652.6882,301.3869
1654.5455,373.8805
1656.4027,755.4633
1658.26,260.7433
1660.1173,274.3843
1661.9746,-69.9897
1663.8319,536.1004
1665.6891,595.6274
1667.5464,386.4591
1669.4037,608.0669
1671.261,435.7289
1673.1183,296.1466
1674.9756,135.9975
1676.8328,60.4357
1678.6901,498.5724
1680.5474,336.0477
1682.4047,432.0232
1684.262,232.4129
1686.1193,457.7854
1687.9765,305.2332
1689.8338,374.9056
1691.6911,498.5071
1693.5484,573.7931
1695.4057,412.8673
1697.263,497.3165
1699.1202,141.5302
1700.9775,415.5505
1702.8348,-71.113
1704.6921,272.919
1706.5494,138.3092
1708.4066,149.8911
1710.2639,12.8332
1712.1212,23.6104
1713.9785,177.6072
1715.8358,484.0957
1717.6931,520.414
1719.5503,278.3013
1721.4076,274.9646
1723.2649,279.105
1725.1222,344.9031
1726.9795,308.6586
1728.8368,308.2015
1730.694,645.3869
1732.5513,304.2882
1734.4086,714.6134
1736.2659,229.8741
1738.1232,525.9877
1739.9804,81.3951
1741.8377,488.2054
1743.695,516.156
1745.5523,180.4623
1747.4096,367.3832
1749.2669,242.4025
1751.1241,269.8756
1752.9814,466.3851
1754.8387,-82.4753
1756.696,412.0386
1758.5533,130.1445
1760.4106,169.1881
1762.2678,208.3065
1764.1251,362.6795
1765.9824,-71.1299
1767.8397,207.7203
1769.697,240.3336
1771.5543,312.9121
1773.4115,254.8379
1775.2688,208.6898
1777.1261,155.5625
1778.9834,377.4878
1780.8407,-271.2081
1782.6979,509.8765
1784.5552,209.1801
1786.4125,531.291
1788.2698,647.0141
1790.1271,122.9665
1791.9844,375.5674
1793.8416,417.4156
1795.6989,559.3321
1797.5562,340.7178
1799.4135,339.2077
1801.2708,381.9837
1803.1281,394.2017
1804.9853,241.8595
1806.8426,116.0366
1808.6999,580.252
1810.5572,305.7927
1812.4145,570.0217
1814.2717,451.6839
1816.129,178.8537
1817.9863,367.5001
1819.8436,-80.3641
1821.7009,380.8392
1823.5582,231.0704
1825.4154,317.0645
1827.2727,0.3005
1829.13,454.8319
1830.9873,216.9747
1832.8446,298.1641
1834.7019,-6.4938
1836.5591,429.6652
1838.4164,155.9077
1840.2737,112.6439
1842.131,423.8475
1843.9883,106.1194
1845.8456,199.6782
1847.7028,428.1216
1849.5601,546.9035
1851.4174,348.6438
1853.2747,388.6098
1855.132,245.7144
1856.9892,477.7898
1858.8465,116.7391
1860.7038,78.5097
1862.5611,291.4499
1864.4184,-64.5511
1866.2757,416.1436
1868.1329,2.5835
1869.9902,-128.9378
1871.8475,427.8972
1873.7048,23.2217
1875.5621,436.4314
1877.4194,519.9863
1879.2766,643.1903
1881.1339,-152.8005
1882.9912,175.9673
1884.8485,267.5933
1886.7058,642.3864
1888.563,-49.4563
1890.4203,241.7428
1892.2776,248.9088
1894.1349,558.714
1895.9922,346.6076
1897.8495,329.2284
1899.7067,252.8248
1901.564,-184.6639
1903.4213,429.535
1905.2786,-3.4281
1907.1359,53.727
1908.9932,59.2512
1910.8504,364.0929
1912.7077,276.1473
1914.565,397.1183
1916.4223,260.0536
1918.2796,-58.28
1920.1369,344.8718
1921.9941,381.9956
1923.8514,-33.5859
1925.7087,374.1536
1927.566,158.7815
1929.4233,422.1624
1931.2805,319.9652
1933.1378,518.1937
1934.9951,367.289
1936.8524,116.4375
1938.7097,205.4645
1940.567,499.2014
1942.4242,207.9802
1944.2815,515.5121
1946.1388,268.7737
1947.9961,442.9376
1949.8534,195.8475
1951.7107,205.432
1953.5679,-7.5733
1955.4252,533.5709
1957.2825,294.527
1959.1398,322.8377
1960.9971,417.8645
1962.8543,307.7977
1964.7116,352.601
1966.5689,532.2932
1968.4262,478.3924
1970.2835,222.886
1972.1408,462.7684
1973.998,519.0417
1975.8553,199.027
1977.7126,336.2624
1979.5699,350.0929
1981.4272,341.7845
1983.2845,334.9242
1985.1417,-8.2447
1986.999,303.7499
1988.8563,506.0719
1990.7136,-49.7848
1992.5709,170.4919
1994.4282,194.8058
1996.2854,438.7886
1998.1427,-58.8303
2000.0,229.2306
