raman_shift_cm-1,PS_01,PET_01,PMMA_01,CAL_01,ARA_01,SI_01,XA_01,XB_01
100.0,-102.2094,361.8907,985.1333,614.4721,476.6207,701.42,102.5445,49.7191
101.8573,428.2466,118.5744,60.8389,468.8867,672.3304,955.1947,-358.7278,122.5875
103.7146,484.4721,602.0398,365.649,1118.3976,628.0093,55.0531,505.8608,688.8312
105.5718,-141.9498,-529.9135,539.6037,75.1494,164.7557,134.0498,-166.7941,179.4815
107.4291,376.3528,833.818,705.7166,154.2789,627.4644,510.9126,123.9375,227.9643
109.2864,-110.4832,104.6278,763.7553,621.3087,757.3878,640.7277,891.5032,376.2563
111.1437,131.0263,317.1596,457.64,719.6504,613.9796,242.7658,249.8001,380.5383
113.001,46.3369,369.6342,-78.2306,598.488,593.4572,776.8954,559.0391,263.1247
114.8583,270.7056,416.989,737.9461,819.7828,282.6205,596.9513,146.9732,-37.6152
116.7155,131.6996,452.7228,-15.1691,180.8016,742.0324,-113.6645,534.2714,92.7616
118.5728,753.4796,570.6475,396.4533,-621.9722,295.5533,508.6465,953.0588,-311.7219
120.4301,196.2103,201.6175,77.0061,518.0712,349.25,839.0576,-540.1147,32.4458
122.2874,807.5888,391.1151,91.0072,112.2003,-127.2075,366.9493,69.3374,381.4469
124.1447,-110.1476,218.3365,285.8855,610.3817,57.7925,633.0052,-429.0227,225.9591
126.002,399.7946,660.6676,-341.8221,374.0744,458.8547,-235.1506,532.049,295.0026
127.8592,-143.9813,-311.2626,201.1802,192.4766,492.2023,280.0365,763.7049,471.608
129.7165,742.623,587.5786,-184.7601,654.6426,401.5693,137.5293,633.9844,249.9791
131.5738,-294.0368,888.6604,246.2457,1197.2007,496.4617,298.5899,-285.1893,-376.9033
133.4311,-170.1269,-221.8095,185.1158,288.3098,678.7633,309.2051,1046.7624,339.8065
135.2884,533.0418,459.2301,-89.7056,200.428,1007.5185,847.9911,-183.7879,-15.8945
137.1457,715.6449,655.2541,370.1323,264.0426,900.6448,472.8186,-163.6959,149.4255
139.0029,648.085,545.2681,279.1731,693.3234,520.8161,79.3163,-559.9277,1155.2529
140.8602,-424.6162,178.8959,724.6577,900.1007,563.4988,-346.5493,-8.3224,172.0092
142.7175,686.1351,-45.0139,-15.6622,491.8094,886.425,63.2182,723.1588,256.1681
144.5748,-83.5769,-54.6114,-37.8779,766.1566,1758.3022,-458.4736,670.8766,751.6932
146.4321,502.5951,-215.6811,856.7049,1107.6826,2802.0503,191.1522,-119.721,787.8327
148.2893,313.9613,149.3307,621.1854,1578.3283,4266.3686,477.2983,496.0329,515.7842
150.1466,200.6161,905.2526,-96.9742,2831.4498,8506.5386,223.5166,330.8254,-279.0729
152.0039,171.085,-334.4491,455.1674,4900.7565,11224.1738,1445.6422,286.6802,98.2155
153.8612,694.1994,669.9346,691.6334,6300.237,7745.7416,452.814,-273.1448,812.3326
155.7185,-678.1486,303.8893,-663.594,8069.8601,4296.8007,817.6339,481.5667,-43.3957
157.5758,553.605,-39.9752,699.1649,4936.0,2689.0406,673.3753,850.2154,843.5696
159.433,105.2533,45.8165,204.7571,2787.2761,2293.8178,-213.0434,128.6038,835.5404
161.2903,53.092,827.6168,-298.9771,2343.68,1165.7545,-207.5881,-623.5641,-382.7362
163.1476,298.8242,315.6263,456.4017,840.9923,1497.2567,125.5783,760.4133,219.0332
165.0049,52.378,-226.017,240.3613,1417.0979,1217.8252,333.7497,399.8186,86.9857
166.8622,442.2203,950.1335,-212.3358,1226.8396,980.6756,415.334,153.8513,-10.2041
168.7195,-49.617,-252.8319,36.8123,-190.9734,719.3609,292.2809,-21.5429,462.8633
170.5767,609.3137,877.0326,1007.9208,673.8862,119.2563,-299.9097,590.7132,681.0919
172.434,155.8458,1141.8728,-456.9282,966.4341,1013.7307,493.7311,302.1713,247.4236
174.2913,-288.8552,72.9293,367.2012,479.4393,334.068,-702.2191,149.4893,1234.2747
176.1486,1158.0406,327.2035,322.0093,688.9722,206.9815,-70.6509,-285.8379,1204.6739
178.0059,-249.1672,230.2683,409.3735,119.9393,365.3732,-41.9453,3.8645,326.6581
179.8631,269.4278,430.5157,-363.9735,167.8991,639.0768,1162.7349,105.852,239.1501
181.7204,-324.6645,-842.7874,-40.0655,179.075,300.4131,-14.4181,140.5914,408.2007
183.5777,199.4896,11.6802,698.1957,639.5333,1044.1772,389.9633,223.5264,-128.3216
185.435,627.1798,311.1216,120.9096,504.7849,1374.0574,-236.5898,337.3054,777.6541
187.2923,485.6119,312.8328,337.8477,-213.4342,519.7442,357.3435,592.7768,327.7197
189.1496,-5.1817,775.7003,644.8257,275.2054,1088.1498,583.8844,469.6393,330.2509
191.0068,817.3503,-64.9289,1076.8216,355.9524,85.5474,81.6963,389.1724,637.055
192.8641,565.3056,-836.7856,577.547,253.4689,177.4126,371.8281,86.4109,1072.9974
194.7214,-15.071,-3.6659,-156.6964,534.3296,1149.0614,495.1555,488.0386,346.3342
196.5787,354.0384,173.2627,663.3431,-247.183,1410.041,186.2932,-446.2846,462.4376
198.436,183.3678,812.8895,341.9178,86.9747,2341.7734,-74.8444,395.8742,-70.6677
200.2933,-323.967,485.6861,986.1957,394.9641,3018.9847,170.9718,590.6189,122.4089
202.1505,631.9609,-421.3427,338.3625,536.1237,4891.9503,841.8926,17.5857,994.5756
204.0078,587.3814,-232.7327,407.3808,1081.4457,9765.5671,65.0261,189.0551,-114.8609
205.8651,399.4737,302.5969,-85.8959,543.8664,13779.9397,584.4511,525.7576,201.5424
207.7224,-137.8401,441.2612,357.8974,437.7488,10401.6114,377.6316,1314.5481,660.3785
209.5797,154.5927,19.1671,-347.3963,167.473,5669.4759,274.4286,161.9009,204.8096
211.437,553.0741,335.4868,-309.3118,963.9706,2948.3257,252.1303,559.3329,-167.0181
213.2942,-115.7579,264.4663,-435.8252,1252.3044,2525.9193,248.778,385.8924,214.325
215.1515,596.4783,320.7331,-635.4296,233.5552,2432.5498,-205.5488,142.4025,960.7735
217.0088,458.1928,294.6563,765.5857,972.5208,1179.2624,390.4453,225.6898,519.5526
218.8661,122.7179,739.3971,499.6142,944.3576,1100.8757,-75.1013,255.3191,-88.0171
220.7234,379.1653,698.3533,331.6481,505.0598,964.8398,-340.764,-225.1062,-35.8512
222.5806,718.9716,52.846,66.8175,242.8363,903.3185,1455.4143,706.6986,728.8459
224.4379,26.6984,-257.2497,517.0648,108.3014,149.4267,392.933,1093.609,-137.1921
226.2952,741.7417,203.2725,19.1095,314.2414,119.7288,607.1874,605.0068,-52.9904
228.1525,586.1037,1428.6371,446.8875,103.0855,-194.3798,-304.0578,50.4994,299.0772
230.0098,469.294,685.8475,896.4752,428.7623,225.1675,119.8347,246.7418,384.3228
231.8671,399.4365,306.2839,284.4986,503.2102,765.034,261.1527,-878.8238,514.7001
233.7243,204.4443,483.7061,844.5853,822.8976,532.3558,583.0225,222.877,1216.9284
235.5816,175.0077,634.1663,567.5596,838.3914,610.1866,758.4529,-48.8916,924.3464
237.4389,-87.4867,1134.6013,125.2012,1035.4231,191.2062,170.6301,190.4351,737.1119
239.2962,-89.3244,1500.2412,244.7663,586.3523,-387.5126,294.7942,583.6921,560.1368
241.1535,571.9345,-533.6882,286.5273,503.6216,569.1136,656.5957,214.8556,727.4094
243.0108,523.5773,624.9006,212.8462,1276.1046,1037.2604,23.7176,312.9215,40.1338
244.868,674.3347,649.4078,518.5483,746.4671,391.3944,790.8345,413.8853,345.1608
246.7253,854.4961,217.2778,58.5968,626.3436,-359.6691,364.2316,595.8835,1267.9281
248.5826,540.0051,754.2051,101.3129,1030.2277,865.5307,-17.9318,428.8528,222.041
250.4399,183.4958,279.1801,814.8419,149.5924,959.5801,-263.0108,725.1724,-363.0298
252.2972,-22.8294,-6.4063,45.4703,1014.8608,285.7746,208.4509,528.153,845.2041
254.1544,-111.1604,659.8022,987.0215,782.0379,412.1408,225.2848,1102.7093,568.862
256.0117,-315.1347,790.5149,639.6474,351.9334,1799.5044,1004.4065,-61.9334,-664.0708
257.869,536.2196,229.4339,553.0721,654.6313,629.9554,538.3302,702.6744,-90.9869
259.7263,260.4656,352.0643,-410.8098,763.0002,560.7805,148.2531,379.9698,-164.7612
261.5836,419.0436,549.0577,176.4811,920.5266,838.8387,309.996,483.3691,-46.9168
263.4409,-47.0287,290.267,-319.847,897.6044,-45.4958,107.9832,152.6038,680.5315
265.2981,112.8386,357.9411,115.6292,290.2115,340.5094,549.4742,357.2728,316.3201
267.1554,194.5884,981.3988,992.8447,1338.96,67.6344,585.0092,350.1455,395.151
269.0127,246.1839,533.8295,1120.0718,1216.0045,515.9659,-99.6539,219.7328,682.0427
270.87,525.9369,625.3379,314.5361,1907.3895,326.4734,633.536,707.2176,-317.3207
272.7273,596.2883,85.2886,237.3599,2438.5494,311.1298,123.7365,279.4705,477.9358
274.5846,742.2996,260.7272,398.1341,3400.6765,79.255,770.0505,240.8427,504.4776
276.4418,-41.3101,991.4996,535.6853,5137.6864,488.009,-225.2426,135.2805,915.6977
278.2991,-14.1365,-311.8061,-63.0541,8312.657,-230.284,396.3673,267.1108,825.1936
280.1564,-311.1311,434.2616,843.3822,13350.6605,629.4424,-282.5097,745.9734,434.7504
282.0137,158.4187,838.7369,562.9034,16790.0423,-89.5789,545.1211,-237.5757,270.2026
283.871,228.9959,133.3521,-493.1169,12719.4187,458.0617,703.6241,402.2299,356.5852
285.7283,370.1935,76.2133,579.9466,8037.6435,-16.1348,230.9773,358.6467,163.8022
287.5855,38.8969,496.4951,-657.9065,4758.7769,-106.7081,512.3552,200.8706,647.1865
289.4428,464.1004,20.849,172.0855,2153.0509,528.0009,47.9941,500.3869,1619.329
291.3001,-563.9754,134.7049,223.437,2656.4356,543.5001,45.1315,356.7346,559.2525
293.1574,169.1823,8.2127,-3.1137,614.5126,247.3001,750.2676,82.9955,337.5976
295.0147,518.5812,154.9602,597.2468,1987.0696,80.9935,366.0179,748.9748,514.2834
296.8719,53.4928,341.382,345.6608,878.0055,-11.1248,695.5647,376.6436,-113.48
298.7292,-368.3594,-222.2851,-86.8299,1229.5842,397.493,918.458,1155.3156,422.0587
300.5865,314.1272,527.7525,205.2701,1160.0355,41.1065,356.0827,659.5133,1079.3739
302.4438,-755.0522,935.3699,673.5746,541.1219,-114.4718,400.3814,-28.7866,1094.6554
304.3011,178.5367,-723.6684,272.1034,1048.3743,459.1481,1152.1564,91.8569,653.566
306.1584,594.1204,393.637,-406.7369,397.0458,433.9404,269.4292,519.8306,531.778
308.0156,645.6713,312.4109,-234.489,737.9897,472.2835,939.2632,452.2386,-340.2791
309.8729,-505.0621,359.9534,46.7123,621.98,157.9821,-64.1489,591.6525,727.8974
311.7302,149.384,358.2092,-81.2186,923.5655,650.3977,444.5921,486.0034,307.0979
313.5875,954.4407,185.5255,642.5412,-291.8159,-151.0019,-719.619,174.5151,412.867
315.4448,273.3655,618.5559,505.4893,485.4444,-625.9934,334.9772,-70.6394,1135.4731
317.3021,719.1581,225.139,801.716,414.4175,243.3687,719.0232,826.1841,413.1488
319.1593,360.3803,75.8253,-25.148,238.7263,130.3559,69.6226,34.3877,1398.4479
321.0166,198.4546,265.7036,552.4059,679.8434,-75.9386,-235.1455,570.2771,690.3011
322.8739,136.8635,682.7423,703.7007,428.2252,-355.0383,983.592,477.2772,585.4787
324.7312,216.3114,-487.0099,81.1872,426.6254,1231.7815,182.2913,-365.9406,562.2029
326.5885,337.7215,68.4946,-417.6783,581.7738,848.4467,-464.3476,458.4752,1683.8516
328.4457,-491.19,155.0767,-308.1975,277.6539,564.4639,-534.9473,961.9679,1802.1131
330.303,555.7295,1038.4474,409.2256,821.6391,638.7135,-76.2133,197.9394,1445.8268
332.1603,321.6207,-284.9838,788.9732,507.295,489.8654,-521.487,479.932,2271.6152
334.0176,1.4033,624.2828,544.2351,-311.7268,-140.0147,597.3727,249.8284,2274.3277
335.8749,672.9891,530.8951,528.3354,-57.4589,-30.7101,156.8595,-24.7208,3034.772
337.7322,47.264,580.4052,414.499,723.2647,201.1171,606.1038,-90.8776,3747.9835
339.5894,532.918,787.1021,-681.2008,1037.2631,1097.1468,515.2863,460.0498,4875.0139
341.4467,255.2956,-529.9367,676.2165,1447.9982,-27.3172,813.041,474.0377,6920.3203
343.304,838.3812,525.5895,392.2387,-335.255,-166.1903,31.4984,588.528,8755.559
345.1613,375.5186,713.1126,237.0413,410.4485,301.0287,-248.6984,731.1485,13258.4328
347.0186,1172.3447,341.1953,346.4752,-494.982,519.2252,65.094,1125.5132,18230.2993
348.8759,127.8048,315.2224,304.5127,434.9425,271.2178,705.7749,33.6964,23791.5045
350.7331,460.5046,-212.0482,603.3216,-677.5738,49.692,-72.6563,281.6654,24602.9236
352.5904,-546.8105,-187.0733,698.899,315.7212,86.1323,-38.3307,922.9574,20014.999
354.4477,511.0232,-51.3298,227.0145,98.9538,346.218,329.8119,419.2647,14511.6694
356.305,608.8065,375.7067,365.0371,454.6139,315.7711,269.8573,-159.5448,9857.9757
358.1623,746.1211,435.3541,457.3578,-650.7597,176.9203,1027.725,538.2786,6536.1295
360.0196,412.7284,564.6174,232.4634,107.5336,447.2628,-211.8627,729.0547,5286.0939
361.8768,719.5505,-149.115,1047.1777,-324.9927,143.3574,-445.2427,1098.5545,4094.9315
363.7341,244.2659,-28.982,-18.692,931.2296,100.7435,722.8043,740.1006,3886.319
365.5914,-378.1589,222.1731,707.7421,857.508,352.1,262.1446,66.1176,2899.0732
367.4487,465.4891,-193.7597,1093.5522,-143.0949,617.3157,636.6908,970.6387,1965.3154
369.306,224.9647,223.9698,-43.7342,424.4979,113.5619,-372.0962,294.4542,1646.6339
371.1632,479.6073,274.2993,203.2197,206.6671,-490.1288,748.4136,165.5099,1640.9789
373.0205,756.9354,678.558,195.3469,729.6708,497.9733,24.569,-441.6867,2185.0454
374.8778,367.1436,656.1008,152.3549,168.5527,432.0985,536.3423,280.136,1198.8253
376.7351,-61.9997,105.2565,522.0962,504.5761,436.1044,734.4134,293.0446,1132.5182
378.5924,191.3861,22.6424,-165.7083,361.2248,453.9694,219.1339,-42.3732,616.7383
380.4497,304.0209,606.8076,579.7042,267.0897,430.0086,538.2908,46.5901,1450.776
382.3069,539.8525,804.4367,1186.506,1128.0311,755.8094,761.2995,278.7598,974.1725
384.1642,-306.6727,-273.1773,189.9578,218.7805,-13.3644,221.2392,139.548,866.0868
386.0215,-238.1394,214.3858,935.9383,-220.5649,675.335,815.0192,-68.9443,127.2719
387.8788,525.4738,569.0434,393.3751,-298.0752,914.9189,586.5361,399.1422,996.5534
389.7361,268.5201,77.1697,-238.1854,738.4818,428.2862,253.515,754.9356,853.7316
391.5934,26.4637,1131.2156,202.749,462.5169,523.3948,1141.1713,1353.5371,163.7273
393.4506,298.4533,-172.799,640.7599,-527.5282,835.4807,366.0547,980.051,297.0226
395.3079,74.9388,330.5285,731.7863,-99.9726,-142.134,623.1113,1120.2189,145.7096
397.1652,-182.6653,601.7312,78.8645,208.1015,1298.7412,179.5973,230.7538,886.9233
399.0225,218.3341,327.2511,899.1809,194.1822,198.2355,959.6782,1179.374,1303.3784
400.8798,990.2162,118.988,439.2115,-643.5892,739.623,-37.3858,969.2629,413.1617
402.737,-127.9448,641.314,-178.0071,143.0867,-454.2686,-119.4779,906.7091,554.9116
404.5943,249.1887,-318.7297,408.8408,520.3634,89.9322,146.3088,1678.5913,330.0292
406.4516,382.9599,732.753,-361.8929,459.4713,37.3387,491.5797,1573.776,182.0984
408.3089,-234.6425,209.9912,337.9824,791.3894,849.0966,49.8869,1308.459,12.3361
410.1662,659.6202,474.5932,-445.9862,549.5613,322.4677,369.4111,979.9854,987.6171
412.0235,107.3117,669.9833,-129.4429,198.6078,376.8874,884.9997,2106.7821,785.2564
413.8807,1453.3696,76.209,431.4709,429.2214,153.7092,872.0046,2493.4072,192.6397
415.738,670.5481,1007.875,228.1544,471.0867,147.389,1036.5427,2583.8806,1251.8489
417.5953,777.2257,-363.0169,324.8527,270.4362,-299.0228,95.203,2945.4409,1378.2939
419.4526,714.0702,500.9972,754.8334,755.4694,143.3384,412.3525,4193.6938,1067.4241
421.3099,459.1243,467.3706,700.3833,581.3424,740.9395,449.1987,4893.3364,476.4284
423.1672,73.7665,549.6177,340.604,268.5249,723.8486,405.9899,7300.7314,-83.3812
425.0244,-74.3858,-25.5812,-261.4328,269.7825,96.3689,79.0536,10030.172,119.0973
426.8817,144.0178,-229.1051,-477.1567,413.561,795.1542,-6.9732,15097.6487,104.0233
428.739,543.6754,-300.5696,332.5938,328.438,374.1202,-429.2666,19536.8033,-7.9465
430.5963,472.3619,1402.3658,175.3327,-197.6616,-379.9428,-521.7184,19952.5386,609.9276
432.4536,63.0828,782.3639,339.8527,41.0513,984.6537,1009.0792,16529.2343,659.4934
434.3109,126.6435,-653.467,-442.9661,969.09,306.3494,145.0792,12659.8377,-142.2254
436.1681,1413.2951,702.5171,1119.1006,-387.1082,-934.1286,3.5382,8602.0581,1213.2838
438.0254,1216.2592,214.7617,303.1617,1150.9237,261.6741,124.3245,6581.6024,78.7006
439.8827,1020.0653,718.5243,409.9768,-41.551,-260.9511,-2.4307,4246.1073,1000.1361
441.74,-227.3968,25.5126,352.5011,-118.4165,319.8488,469.5352,4006.8763,1094.6112
443.5973,189.8923,166.3012,208.1058,341.027,-22.9692,746.2417,2163.9679,1122.6608
445.4545,587.6367,-27.7125,549.5729,-88.7259,27.8296,652.3129,2014.1516,-577.7852
447.3118,604.0816,91.5016,401.7369,532.3119,-3.3473,119.0541,1984.3406,-338.6304
449.1691,778.3415,339.7595,603.6088,526.5697,909.3795,-79.0749,1117.2097,123.0638
451.0264,-82.7314,393.1238,368.3629,166.632,764.0179,777.537,953.8793,256.6763
452.8837,425.6328,-316.0662,774.7744,1215.7612,231.6442,486.9609,1334.6567,825.735
454.741,494.081,-198.1049,-72.9497,784.9263,224.8907,321.0648,1234.1637,93.8959
456.5982,262.0697,199.022,1536.6799,-182.2949,226.5305,450.2214,1288.372,277.1862
458.4555,503.2864,522.2897,-40.48,367.5094,21.4029,-729.9179,866.9538,304.4336
460.3128,-75.0022,-136.7753,517.6819,735.578,-398.4694,-135.9536,1359.1208,293.7787
462.1701,454.5697,-742.591,558.7182,-644.6526,-47.0921,454.2062,961.7128,837.3882
464.0274,213.7284,605.3146,-129.5716,488.5613,303.8334,486.5559,1361.238,261.2687
465.8847,588.0564,460.0494,869.8276,215.732,278.7633,106.1049,497.7429,973.2799
467.7419,529.324,-721.3497,388.3548,423.7301,77.0975,160.2372,316.7454,163.9664
469.5992,470.8872,557.3072,-118.7216,365.4339,462.4825,13.9625,881.4065,636.803
471.4565,-125.5261,573.7402,429.9939,551.6122,852.991,189.7437,652.1425,-276.8634
473.3138,600.7814,387.2481,360.44,605.204,259.6051,923.8546,903.6307,536.8908
475.1711,94.3558,560.6961,408.6146,-328.6873,52.2369,90.5962,948.1324,631.3173
477.0283,218.4808,226.0235,714.9788,312.4295,448.7839,-458.0633,554.3195,-20.768
478.8856,341.3444,928.8221,-28.4203,-196.678,373.3057,696.4206,362.3077,-77.3517
480.7429,360.2797,532.0278,296.6995,824.4714,697.861,830.4189,398.5965,338.399
482.6002,702.883,13.0236,702.4263,-502.3076,241.2487,150.8082,753.4143,1069.0035
484.4575,186.2672,-207.4021,-113.4621,26.2788,432.2056,599.8222,190.1401,-982.5028
486.3148,556.412,422.9448,953.7631,-93.0353,-495.94,289.4024,399.5651,95.265
488.172,-364.3258,-467.331,617.6537,881.7147,167.0025,511.1727,-9.6345,617.8995
490.0293,543.888,883.9823,527.3819,852.4733,27.5526,620.2158,-141.876,-666.7209
491.8866,282.6282,974.3991,1117.2985,274.7984,530.1288,474.939,79.7564,406.0231
493.7439,942.6044,429.8202,457.1227,-649.5888,-153.5052,660.202,175.361,244.2786
495.6012,-240.3965,287.4111,-252.8203,106.4544,719.5243,435.6108,392.7149,-107.1798
497.4585,102.8428,-17.5019,-113.214,570.9709,589.1835,1033.8808,460.0105,677.145
499.3157,409.849,-280.1136,614.3541,861.3702,285.7451,-381.2377,494.3852,1044.2864
501.173,170.6503,1001.6334,239.5557,146.9076,-444.5788,188.8903,269.6622,317.716
503.0303,398.4391,474.8608,867.6289,-238.4102,378.4902,891.482,-266.7103,42.5417
504.8876,-184.4924,-157.3747,-10.4228,1103.9268,-123.276,862.195,784.9272,567.7288
506.7449,-391.6999,19.9865,-91.8352,333.4634,-480.4733,1017.3433,371.2806,177.1188
508.6022,-309.1963,303.2071,502.6654,-168.9906,54.8607,1111.5262,154.5671,131.3589
510.4594,-30.603,17.9651,-567.465,6.1081,167.8924,2265.5809,515.2671,-217.5582
512.3167,814.7086,988.4246,685.275,118.2278,-290.5633,3004.3382,344.2115,-121.957
514.174,-329.6923,1136.6318,254.1227,316.9258,78.6059,3168.718,1051.3328,-115.601
516.0313,850.4583,-125.7364,-712.1014,1107.7004,559.8823,8100.5602,722.582,-163.4338
517.8886,15.3156,211.7881,681.9394,50.7268,344.167,17667.6318,201.5049,171.9782
519.7458,515.9401,370.9273,69.9561,268.0007,651.7667,40716.0156,550.8373,508.3376
521.6031,-117.65,55.2176,181.3584,-37.716,147.6601,33378.8481,408.5199,1175.1654
523.4604,433.8192,-391.6087,1.0724,-291.2956,40.4918,15034.4077,245.0832,259.9029
525.3177,456.8352,57.6526,410.0165,-11.1328,-185.0762,6506.991,-175.829,422.9031
527.175,303.7513,409.6837,205.7505,516.0322,31.9396,4547.1586,308.457,904.9634
529.0323,74.6727,217.2518,688.2788,181.2453,-696.631,2777.2464,562.6228,-108.4222
530.8895,159.6625,73.6903,-220.6386,60.8324,1152.1629,1535.6642,782.909,868.3105
532.7468,645.0013,37.0116,582.4074,-32.6211,214.3099,1223.6632,985.7303,188.1948
534.6041,1216.1791,668.3778,319.4268,152.555,302.8491,949.5145,1004.5786,103.9212
536.4614,741.5977,121.6493,-604.8729,251.5868,450.1139,830.0589,357.9297,618.1471
538.3187,183.5074,155.5949,226.2866,621.5768,510.545,956.3917,-512.3358,275.4384
540.176,450.6107,166.3497,661.3638,411.7435,173.5049,1210.4748,663.1411,329.0437
542.0332,1150.1441,290.3055,-297.3114,196.2973,468.6915,686.522,44.6314,187.4612
543.8905,22.6879,528.9933,94.4592,657.6741,-56.9079,930.2,225.669,591.4087
545.7478,-426.0165,649.8729,254.8265,1058.264,-188.3863,1925.4726,705.75,405.9004
547.6051,85.1816,1242.7162,298.1177,582.6478,183.2519,403.7595,12.8177,739.4828
549.4624,31.5945,570.8923,339.6684,655.2366,-253.2487,496.1225,184.2116,-91.4704
551.3196,141.312,163.5423,-5.7219,869.7396,310.9733,282.1198,-57.7811,-121.0756
553.1769,490.9223,356.4708,758.2838,385.4655,493.6512,-133.6988,-186.365,275.9234
555.0342,-130.8439,-28.0127,440.6559,806.7439,204.3151,1302.955,314.0622,-81.8492
556.8915,256.7848,-120.9912,411.3961,796.9321,391.7006,132.3656,706.648,484.7298
558.7488,127.7269,-645.894,536.1154,-231.5825,331.5716,-245.7592,597.6765,844.215
560.6061,399.1099,251.7375,-288.0469,467.7209,298.1113,664.8856,561.8621,751.5165
562.4633,253.7588,1398.6011,833.3682,-18.5882,550.5821,134.2105,-178.0498,-40.9542
564.3206,62.0117,-157.1288,139.5534,441.8362,714.6252,228.9796,736.0738,193.4835
566.1779,217.183,-63.0262,499.2607,849.9665,918.1081,995.434,-392.2125,28.2383
568.0352,305.4682,938.0203,346.8279,388.4416,261.6705,176.9396,36.7599,1005.4568
569.8925,999.2537,234.7536,411.0645,822.9732,608.1149,862.6337,-327.4685,792.7936
571.7498,430.9692,-327.1233,406.4047,-127.604,-199.3954,300.6292,57.825,700.256
573.607,163.1953,424.2047,494.8919,-257.8389,454.9489,989.271,321.3742,393.287
575.4643,954.2817,337.9176,538.7928,117.1209,494.1153,203.7545,299.659,-109.0982
577.3216,-164.7933,-67.1547,844.8205,45.4312,195.3493,431.9178,385.4636,575.6602
579.1789,1017.1085,-725.9423,278.0629,-131.2241,999.9799,96.9797,82.6351,-645.4368
581.0362,697.2448,346.3206,772.7425,212.0823,181.1739,590.2504,750.5196,-310.0205
582.8935,491.9391,188.9095,938.2232,-92.2984,-19.7513,-69.3745,989.8404,-70.7883
584.7507,295.2405,1301.5417,831.8742,658.2542,-287.1212,315.7876,1268.0128,1002.4605
586.608,801.5175,705.8028,1709.6353,100.0277,430.7878,-306.6891,546.8956,964.1469
588.4653,179.9122,166.9257,1416.5763,185.3641,998.4611,-229.9524,-8.2807,948.1434
590.3226,706.0285,817.9707,1169.4617,223.7243,497.5321,451.4141,697.908,1036.1005
592.1799,823.5327,259.033,1929.5493,212.4171,494.7924,814.5685,-247.9498,112.936
594.0371,1169.8831,202.4996,2390.5589,934.8623,277.0653,728.0219,292.512,-393.404
595.8944,591.2919,-95.0555,3830.7554,195.7678,813.5249,118.087,730.7783,1084.9987
597.7517,270.6882,300.7627,6015.8613,-397.982,-243.3086,1521.4681,237.8571,404.8678
599.609,814.5554,12.6745,7358.2597,-87.029,-62.0855,54.7022,367.9015,644.454
601.4663,605.8439,1477.2463,8782.9728,-2.626,-28.196,334.3789,62.6408,-219.8577
603.3236,1479.7164,63.0059,5917.4047,235.5727,290.4441,470.9437,-307.9872,12.5327
605.1808,1329.403,699.3038,4483.9851,40.9974,641.5355,968.2384,-170.5061,881.7986
607.0381,1166.6706,851.0617,4186.5452,-452.3499,607.356,460.0777,-278.7269,-98.9103
608.8954,2068.8816,-63.1892,1939.9342,153.1026,176.3653,-14.8509,-25.7131,22.9613
610.7527,1825.9274,405.1444,1496.6681,391.4669,643.9541,1015.8876,808.2621,518.9214
612.61,2992.1743,616.2992,1025.6594,328.4821,-360.1757,69.7637,1318.9707,-688.3366
614.4673,4036.4856,815.43,1349.9494,180.2685,115.5125,598.0216,582.321,681.6284
616.3245,5532.3469,761.7449,-139.0179,586.0183,528.3015,214.2074,152.1417,387.8377
618.1818,9263.3959,380.9293,765.6004,-57.7359,528.6863,374.9451,806.842,73.8093
620.0391,12054.312,1434.5063,644.1261,366.6907,332.8041,794.8943,-393.5869,436.9167
621.8964,12520.9143,1747.2411,677.5998,154.2143,41.8226,391.4763,163.7445,36.4916
623.7537,8622.8576,2137.5634,627.6617,174.2867,534.5065,883.9027,241.5084,283.5957
625.6109,5910.4841,3431.5172,1552.2516,6.7334,1215.8769,-22.4926,-21.8807,285.1614
627.4682,4174.4664,4871.4294,191.0974,-117.2031,1274.3928,269.8821,20.1451,214.5956
629.3255,2101.7457,6497.0398,396.0461,638.0725,-300.821,824.7096,1073.7485,970.4737
631.1828,2357.1474,8570.8787,216.8178,-60.1906,614.9472,580.582,-453.8505,660.7448
633.0401,1272.2273,8223.0159,490.2233,24.4681,-414.6605,358.2153,-182.046,6.3753
634.8974,715.9101,6110.8222,88.0004,1002.3883,668.1435,352.5438,484.0233,-140.5499
636.7546,998.1348,3871.4093,269.7411,259.6404,161.2889,308.9767,336.5125,1048.4124
638.6119,1865.0377,2810.136,329.6463,538.6582,475.7109,524.1279,690.4859,476.2395
640.4692,360.4388,2199.4124,-132.6332,-52.0732,127.8518,221.9793,221.2423,309.5027
642.3265,202.8506,1746.8381,171.7181,484.245,-174.0219,1030.2596,301.8404,-470.5652
644.1838,547.7478,893.469,969.7868,933.09,846.1935,580.952,201.6066,75.0115
646.0411,601.4767,253.0237,211.1719,373.2774,-54.7105,-111.6747,598.9387,884.6993
647.8983,-29.1929,801.1186,953.7955,-276.0245,8.2772,562.9987,-377.7397,-61.5566
649.7556,621.3755,491.8585,-431.9545,986.6502,-159.5071,968.9794,-38.1213,205.6246
651.6129,-64.8676,733.5598,715.9387,676.6444,419.9765,1225.4506,796.3591,99.3642
653.4702,701.3339,879.2448,276.8207,-186.5283,773.0184,113.7433,352.4297,1163.1713
655.3275,1567.7677,195.8628,905.5794,702.373,396.3725,24.743,893.7983,118.4808
657.1848,316.8482,-533.652,663.4813,1005.9928,454.3865,109.7739,-291.6317,498.6833
659.042,1027.9068,1079.166,19.0208,-313.9377,137.2596,-385.446,489.2699,763.1288
660.8993,636.0048,227.6444,504.0569,182.1242,353.1216,769.8382,562.1487,690.1148
662.7566,467.5832,761.1795,134.4008,746.5152,572.5498,-231.0315,-246.9822,488.8665
664.6139,851.0264,229.5531,216.2005,604.1028,800.9866,642.3764,411.4696,146.4141
666.4712,455.0221,787.1532,390.0124,-97.8595,534.3092,927.5349,1035.7332,100.9171
668.3284,912.688,617.7099,409.5577,256.1476,1114.0552,392.051,498.8646,-143.0884
670.1857,636.8121,849.8906,293.0519,550.2727,915.8528,698.7329,262.8878,330.5973
672.043,432.0117,413.2425,284.6381,491.1727,207.6436,251.8723,868.7908,580.5392
673.9003,-1.4968,995.288,698.6573,-81.8459,814.0076,203.9238,402.0074,-359.315
675.7576,612.005,-292.8255,138.3043,882.8352,167.8275,39.5867,877.8806,1075.2893
677.6149,441.2572,-274.1659,-44.3077,157.3282,775.2191,-412.159,169.0906,1271.6925
679.4721,101.054,824.5419,597.0045,1039.0074,396.7081,299.0974,610.833,151.2042
681.3294,1066.9517,552.3629,419.9355,7.5207,902.0372,162.0962,39.4194,429.7737
683.1867,970.1457,122.9953,487.8033,-159.2109,943.0285,477.8779,-57.586,540.9912
685.044,-810.2213,41.505,147.3598,287.9835,841.5551,458.1636,342.0307,263.5788
686.9013,-329.4167,-397.4322,671.5941,269.3774,513.15,1195.3432,-63.0938,422.7928
688.7586,776.1188,187.1723,1119.5477,1078.4809,1202.8607,886.7758,349.1829,925.0226
690.6158,398.0229,725.3007,-144.889,514.8668,874.4435,417.0813,422.9845,763.825
692.4731,-73.6318,588.5256,935.5359,521.183,1688.099,-178.1041,-322.9692,1189.7614
694.3304,411.657,527.7321,246.4927,602.9384,2028.9886,212.5198,-493.09,-255.172
696.1877,538.7015,290.4942,-12.8343,1436.7316,2318.8616,742.7371,416.6921,406.4103
698.045,655.9775,826.1387,659.8746,1036.8269,3227.417,348.5496,-107.6761,88.5482
699.9022,-384.1865,69.3821,165.3299,1170.1653,5930.6011,234.6138,20.3695,999.5573
701.7595,864.5057,187.1998,587.6871,2014.834,9324.7864,880.2276,442.6096,1464.2554
703.6168,117.4455,1126.2376,455.3034,2072.1243,14873.0357,-166.2001,461.1078,519.4916
705.4741,725.8896,109.444,676.4704,2382.3413,11664.4655,226.2194,422.7054,524.4315
707.3314,441.2905,485.179,664.0053,4223.9468,7270.046,296.9496,287.2043,632.8852
709.1887,738.3839,437.9566,723.8341,6568.9196,4064.0105,559.5382,-422.6374,518.5681
711.0459,231.4277,609.5587,694.9979,11996.4636,2810.1185,358.6003,457.8283,514.9834
712.9032,-25.2151,208.4324,487.1614,11010.7735,1727.1997,-1.4942,-198.0377,784.0938
714.7605,340.8798,176.3749,794.856,6485.9032,1380.1795,626.237,-133.9732,572.8082
716.6178,-615.7973,250.8434,826.7577,4256.8032,796.9328,118.0007,-292.3695,535.4325
718.4751,510.761,546.3068,1219.0013,2323.3331,627.2894,214.4268,214.6044,709.5732
720.3324,-4.2237,544.6235,-41.2507,1849.3526,799.8202,176.861,370.1512,371.9918
722.1896,183.1011,-558.2448,-94.6178,1702.9433,325.8028,218.3917,157.1558,1038.9662
724.0469,117.437,1365.5129,192.8016,845.8095,260.982,68.8924,1048.6756,665.8882
725.9042,-203.4125,727.5954,1080.7808,844.4635,349.7016,185.6265,463.3649,1070.5618
727.7615,923.8328,763.6595,533.6284,374.2479,717.7929,688.4697,-516.1386,188.3616
729.6188,428.8548,69.0582,-538.619,1136.2762,1355.328,835.6405,268.0239,141.5823
731.4761,-68.8634,762.1303,374.5025,987.5391,1134.7795,25.8234,460.1519,389.0959
733.3333,-611.6006,-263.2676,448.8206,560.6188,193.4964,-645.9627,909.2336,674.4944
735.1906,113.1147,-347.7995,409.7833,516.5775,851.0806,198.9102,389.6758,972.8653
737.0479,1005.069,99.7861,648.213,396.7571,-132.0784,980.9449,-43.4799,1638.6969
738.9052,4.0636,1077.0895,873.7856,789.8465,387.4642,155.4749,-682.6151,865.6146
740.7625,788.251,26.2884,429.1919,-228.561,643.425,-432.9197,534.1314,1578.9134
742.6197,531.8887,262.7334,7.5312,692.9636,436.617,829.1867,211.4273,2310.0581
744.477,218.3846,629.1177,181.4563,306.3353,1016.2426,522.7137,-77.7672,2077.8061
746.3343,-471.4625,114.7248,464.6975,881.0369,900.0116,57.7807,7.0497,2063.1152
748.1916,-378.5552,1358.5878,222.1578,207.1028,479.9497,507.3728,-400.0067,2701.6002
750.0489,292.8684,214.556,567.9369,208.1993,-102.3574,693.7748,226.3052,3884.2337
751.9062,252.9148,446.766,525.1677,260.5757,139.8177,516.6509,-708.1467,5335.4412
753.7634,1768.1067,445.8466,441.7094,165.5565,79.5856,181.9368,850.3754,7337.2904
755.6207,-39.2832,488.6379,-245.4573,585.5495,431.6411,752.0707,416.907,10907.428
757.478,859.1426,569.184,556.5305,491.9195,95.546,-319.2654,279.048,16126.6302
759.3353,1152.5538,148.666,871.1967,214.1679,163.7099,99.3543,334.481,19810.4313
761.1926,-93.3702,877.5389,592.936,538.8067,-36.0769,390.1688,230.2355,19017.2626
763.0499,505.1943,269.6099,214.6146,140.0717,309.9038,-351.337,152.2288,14218.2296
764.9071,938.395,83.1619,1065.0281,78.1492,468.5125,-40.6211,214.7713,8780.5496
766.7644,451.393,-100.9633,1027.32,-484.7591,648.488,277.2867,1241.1326,5709.0566
768.6217,325.4716,1099.1678,504.5331,-781.6217,1156.9496,138.819,-189.1933,4886.3201
770.479,167.1704,588.8695,1321.4029,633.2876,893.4624,31.2483,-216.476,3229.4197
772.3363,1293.4828,283.2261,1147.2151,696.1082,560.466,493.0101,397.585,1872.8755
774.1935,383.5929,269.9184,1118.651,429.6571,350.6939,238.3029,-509.336,1953.527
776.0508,992.5776,332.1275,542.0358,603.8002,-60.5156,513.6583,626.9577,1835.0433
777.9081,1048.5327,-12.9451,-15.728,405.7788,234.0847,290.8511,14.0191,1886.4147
779.7654,24.6477,31.4505,962.9415,169.0169,74.7136,375.4966,798.0564,1265.541
781.6227,934.7602,122.0024,1171.3778,269.5768,584.3647,-182.3961,227.6508,1132.4753
783.48,1862.0826,137.5577,924.4464,921.5228,158.3141,38.721,374.327,909.7616
785.3372,1200.5104,391.0662,1061.374,-74.9173,372.5935,1119.3383,333.9955,709.9969
787.1945,1961.1448,461.4859,632.3593,1081.1423,566.6437,279.5639,-55.6251,1416.9934
789.0518,2774.1636,308.2865,1175.9128,492.9287,447.3788,70.912,868.792,835.6252
790.9091,3944.3691,310.6213,750.2678,661.9326,895.104,178.881,153.2254,765.5242
792.7664,5422.5524,966.8765,1287.3126,305.2285,724.6199,449.9139,541.5335,878.4619
794.6237,6435.9942,-33.4196,1253.3983,400.679,1012.5079,908.1229,1119.3746,94.3665
796.4809,6660.5342,176.813,1993.2249,427.8517,177.4425,377.9106,213.7626,617.04
798.3382,5571.0702,623.0667,2128.6595,780.3002,516.7903,915.2421,751.9891,1126.3038
800.1955,3315.1227,-206.4378,2932.3441,478.7881,-22.0679,392.4702,411.2813,390.0525
802.0528,2877.4321,815.7699,3958.7035,-169.2747,-338.9825,558.7137,641.3852,491.8204
803.9101,1818.2306,683.624,4935.1847,-631.5012,-78.8463,-137.0663,834.7093,218.6033
805.7674,1176.4595,926.1135,7045.5453,-120.1709,640.7111,-382.4847,725.6237,146.9079
807.6246,2043.9318,500.6913,11151.9006,-261.951,415.8783,430.5112,719.5926,513.5674
809.4819,629.6826,568.625,17228.4274,-564.017,667.5081,-144.2098,247.6219,31.2064
811.3392,1289.4036,526.2118,24018.2329,-177.992,246.5462,129.8782,462.9267,733.4188
813.1965,1661.935,409.8336,23091.2937,189.3716,436.7581,101.7786,167.1354,722.4867
815.0538,295.1984,935.7164,16070.6756,28.5201,312.7722,521.0084,611.8037,615.8546
816.911,422.6854,-163.568,10032.6327,427.3784,480.9796,245.3584,547.6453,320.4096
818.7683,1266.8052,261.1181,5534.9771,184.2354,319.3559,-373.5951,1353.3565,275.0864
820.6256,923.3989,577.5271,4678.5739,320.6904,460.5404,84.1461,456.1606,478.7789
822.4829,334.8505,976.2495,3870.364,429.5174,-23.7642,389.7259,475.7628,44.0771
824.3402,1000.3696,787.5826,1659.6448,494.7588,287.7618,141.3789,932.9485,612.3282
826.1975,546.507,590.8674,1628.4157,-186.4686,529.0999,91.3491,895.1049,-494.2303
828.0547,55.4087,-395.3265,1374.2109,200.5749,-369.312,-134.785,403.9071,965.0321
829.912,-11.4059,516.6773,1038.3024,185.118,455.3294,225.7171,545.6473,75.3218
831.7693,216.1907,900.1571,1209.8679,306.4306,76.3536,88.795,-256.7257,734.8409
833.6266,1314.9639,334.0681,1151.9897,419.1408,856.272,187.5462,-316.7267,657.9726
835.4839,462.4813,1132.0573,929.1667,356.3737,278.0214,283.619,129.1754,-339.3882
837.3412,191.1359,703.0765,924.4012,578.3944,-355.0813,560.8299,257.7044,265.8786
839.1984,517.2052,1900.9141,1110.5247,-437.9384,248.2118,1127.2659,-161.9869,249.5055
841.0557,265.3019,174.9115,667.8665,-87.2114,567.27,453.2512,314.986,-95.6293
842.913,350.4585,1578.4807,773.8675,635.3199,31.7291,-508.3714,277.2705,463.0135
844.7703,478.8926,851.086,633.5158,122.2062,151.8652,474.5692,-668.2084,407.0811
846.6276,772.0316,951.3711,789.3278,407.5708,129.9827,506.7384,1187.9483,-34.3798
848.4848,-543.3144,1826.9606,995.1031,425.3572,789.4457,729.9362,813.8041,-136.3952
850.3421,790.5928,3761.8236,328.1672,203.4951,-443.2935,384.6021,731.7284,-6.9761
852.1994,874.5372,4083.3632,715.3339,665.0131,-394.8844,533.9903,1071.2002,99.1006
854.0567,-142.389,5937.5066,526.1703,257.4493,-284.1998,-24.346,822.3113,255.0079
855.914,559.3091,9312.5902,395.2269,-166.6321,446.8781,471.6454,-229.9793,-53.2926
857.7713,-181.184,9999.7868,-183.5868,124.5545,-309.1587,423.1988,1264.0425,114.6773
859.6285,32.4548,9962.9975,1144.7967,106.8721,179.1021,159.6399,1343.0109,744.4386
861.4858,827.9535,6796.3871,483.6766,-387.3951,679.7715,-327.2118,754.5186,-103.5522
863.3431,661.8398,4959.5598,93.1476,-198.8053,-232.5306,121.7473,-13.6742,1023.9825
865.2004,511.9991,3282.454,454.337,582.1422,447.7069,737.8977,1382.3708,-356.3061
867.0577,-65.9918,2074.2876,430.0236,73.5382,319.9765,801.2993,336.0659,-34.9982
868.915,495.1427,2267.8538,497.6581,858.7164,267.1176,675.37,1235.6959,374.1184
870.7722,660.4683,2375.0435,723.6768,442.3531,88.0817,184.6439,1080.5673,384.72
872.6295,168.024,1288.043,367.6657,-166.2529,-397.7954,179.5924,1588.638,471.8326
874.4868,-350.3933,307.64,605.3648,429.1816,1253.9134,-332.2691,1976.3314,589.1616
876.3441,526.616,1332.2912,116.8431,931.2291,43.9214,403.3205,1198.9231,723.9456
878.2014,400.0791,397.8669,595.4181,90.8585,445.9646,404.5265,1530.4946,1079.3451
880.0587,686.273,114.2298,153.2413,457.8813,13.9811,1262.2632,2504.9675,630.2799
881.9159,206.947,254.2741,529.5104,111.3192,111.6645,266.0675,2522.0609,468.5792
883.7732,65.8603,272.288,802.6653,182.5784,397.1498,-13.4391,2938.6639,164.799
885.6305,232.3835,561.4681,117.0516,221.9653,127.1787,-350.1344,4455.5016,-64.5588
887.4878,110.5533,1536.056,221.8826,655.8716,84.6035,512.335,4543.6382,235.5001
889.3451,-38.4954,203.0318,36.9858,8.8456,250.481,419.1077,5516.6957,73.5004
891.2023,548.3451,757.7967,644.2762,676.92,-101.2577,279.2364,9109.3877,12.9512
893.0596,409.7288,728.9689,327.3322,-40.8503,-118.7629,508.6342,12490.1764,622.7796
894.9169,-619.0125,1037.303,673.0783,941.9393,104.5146,-448.0213,17722.248,936.8515
896.7742,466.0881,352.0629,594.1489,-456.9774,556.0075,204.3344,26753.0651,892.633
898.6315,332.6381,390.1691,66.9242,322.0717,67.7829,283.3409,37787.5346,-202.2567
900.4888,195.0931,330.6611,-89.4445,159.396,257.8585,720.5834,40079.6207,445.9934
902.346,258.62,364.6845,197.4972,365.474,-588.3987,601.2026,32378.6372,504.6539
904.2033,500.504,822.9931,557.878,888.0637,1059.9983,625.5096,21783.8742,28.4295
906.0606,-41.7422,872.2431,768.6334,887.5414,613.3093,513.1346,15026.211,678.2747
907.9179,331.7132,463.7796,581.918,651.9754,53.9831,38.8745,10479.2521,194.7293
909.7752,261.5339,-169.1118,550.4405,433.9306,56.9872,-364.5279,7662.1816,513.4445
911.6325,307.3406,160.5427,453.5122,174.1254,297.5861,500.2267,6445.0006,421.1964
913.4897,563.8869,-337.5202,526.505,239.6258,379.3321,-149.4622,4122.6015,220.0706
915.347,732.5168,936.7754,680.1658,-417.1334,752.9843,317.0142,3550.0284,809.8637
917.2043,-315.719,541.0818,562.0657,207.3992,688.3374,740.3677,2587.6155,245.8209
919.0616,553.597,447.0733,37.9316,468.1771,-38.6734,674.7233,2354.8648,-243.0188
920.9189,166.2244,848.5403,731.6128,1131.146,53.6585,476.6101,1862.8635,574.7086
922.7761,451.6019,-91.5971,119.6618,289.7927,-210.3713,448.7346,772.5391,-508.4691
924.6334,258.1234,848.1957,1097.8334,952.5184,328.3018,614.3848,1731.0288,497.277
926.4907,852.7873,744.2063,724.4934,-104.0462,689.1828,-3.8863,1014.6888,590.5556
928.348,414.9422,580.0774,491.293,316.9099,902.4251,162.8293,2006.2633,-518.7995
930.2053,602.9064,128.8304,171.6559,472.5976,447.1958,-447.0094,327.2464,435.1423
932.0626,404.2503,280.0493,940.7839,332.4856,1002.5175,-752.958,1564.9864,-315.9517
933.9198,227.4624,416.0688,587.1907,-59.5418,1041.7894,-238.0342,1003.3777,-92.4747
935.7771,359.0491,1239.0762,766.1988,-28.5341,808.8975,-217.3935,1048.4779,48.4701
937.6344,405.3041,193.4689,708.5661,24.9152,650.4596,146.1827,476.0992,523.9334
939.4917,-79.7139,221.0837,148.6926,-291.6391,129.0675,30.0677,684.5282,270.9341
941.349,743.5284,-193.2414,1002.0656,556.1322,-517.9366,375.4295,938.4209,212.0934
943.2063,1242.3212,875.0525,932.093,990.4432,575.2367,387.3814,491.8817,713.3609
945.0635,1398.2332,-338.1764,1303.5491,896.5108,30.9957,168.8964,56.3028,230.2474
946.9208,724.8221,631.5207,1027.5376,-328.0612,461.8491,1099.7559,149.7407,-25.1616
948.7781,-153.9607,374.3999,1268.6298,417.6964,1070.3825,192.2901,220.9033,-80.3739
950.6354,1036.7331,448.0818,548.4225,-748.0706,410.0061,430.7593,885.3639,-313.0439
952.4927,365.9127,-57.4854,911.8137,302.8219,294.8638,255.8069,928.1489,573.2642
954.35,90.6098,-155.2479,1405.9634,719.2991,197.1592,694.0306,637.8461,206.2755
956.2072,314.1808,639.5979,1296.5501,371.0337,825.2708,614.7767,846.5147,-229.6698
958.0645,531.7767,109.5931,815.5203,976.0518,275.846,-367.7898,571.5147,366.7856
959.9218,228.8687,271.9875,2230.4529,349.6681,246.1446,180.4046,538.2472,95.1468
961.7791,437.3788,294.4376,2579.8905,571.6275,221.6396,312.4204,972.2075,485.8137
963.6364,-175.8528,235.2232,3417.6688,-45.0163,334.2335,126.5447,807.8369,689.2273
965.4936,41.5037,461.1036,5671.0439,139.5787,584.269,477.1722,1077.1947,706.0975
967.3509,532.577,974.7728,8644.2951,611.4463,74.0584,120.9086,891.4982,692.2323
969.2082,1001.9595,705.851,12120.8398,-258.8641,24.5419,281.4745,563.0288,537.5422
971.0655,176.6942,307.9209,11376.0521,437.503,-16.555,212.1647,356.3206,360.9341
972.9228,414.0482,331.2986,7929.7651,1109.0541,503.9178,222.2429,323.7995,279.9375
974.7801,2000.7752,513.0391,4896.9415,106.1992,-123.3029,209.8391,1080.3255,234.6472
976.6373,1339.3096,-849.6971,3768.2273,730.9186,112.9262,218.0969,524.2835,254.1385
978.4946,1272.9579,-459.8974,3112.4,95.7394,148.2547,292.1791,870.8915,25.4298
980.3519,1653.2045,-130.9106,2706.629,798.0726,291.8582,154.7135,392.9416,74.5806
982.2092,1870.9023,-54.4806,1838.6894,1203.9487,41.386,554.7008,-290.1328,438.9725
984.0665,1955.6817,123.651,1622.0107,601.3564,526.7239,-400.4094,628.3532,-13.9134
985.9238,2646.2808,-270.7317,633.9834,904.8156,31.0392,159.9967,1078.6632,130.8487
987.781,2209.4183,-171.9363,514.3735,-162.0926,-222.3869,183.5951,796.9002,491.2686
989.6383,2965.7656,672.0851,737.3723,1027.4084,265.4515,-11.9168,-62.0293,482.4909
991.4956,4863.5144,-259.3572,644.3724,156.1295,1216.1558,430.8756,399.9369,103.8055
993.3529,6134.7017,305.9903,950.4446,-0.6293,686.5831,1044.984,-224.4508,365.536
995.2102,8780.81,389.0334,513.2597,380.6115,621.1217,-143.4429,701.1685,645.49
997.0674,13296.1158,473.2458,550.8277,-117.1656,1163.4647,-9.4744,457.5204,941.0388
998.9247,25722.3965,93.7415,1004.8704,243.6768,454.303,868.0558,-151.1259,272.9508
1000.782,40795.9969,357.738,981.5689,454.7768,770.5456,280.9155,760.5473,114.3414
1002.6393,35749.6934,144.2759,1725.1638,2.7837,130.8973,-156.6598,497.2208,917.9273
1004.4966,20435.0186,464.9263,679.3201,963.2945,237.875,1076.1424,226.4837,307.735
1006.3539,11349.2829,596.2233,909.3907,1128.3674,756.9874,-94.9315,654.6228,71.4831
1008.2111,8526.1202,484.9271,78.4321,289.4459,1074.9485,813.4844,547.6168,833.1599
1010.0684,5679.2156,415.1103,302.2148,-188.781,997.9978,-463.8714,664.1482,583.5607
1011.9257,4393.3888,-35.4091,464.1308,-320.5275,-120.4525,1388.692,355.8893,276.0745
1013.783,3496.4116,57.0237,91.8222,106.0031,-5.6249,254.5628,697.9351,748.2845
1015.6403,3025.6362,-650.8317,280.3729,956.974,131.7394,-383.2167,502.4275,373.5312
1017.4976,2957.9927,-291.0339,199.416,-203.9349,458.1606,78.1768,498.0832,246.6049
1019.3548,2463.9602,39.5827,722.182,56.9369,340.0078,-266.8122,38.0248,93.5219
1021.2121,3237.758,-294.7208,665.4674,271.3488,232.6146,215.757,596.4636,550.373
1023.0694,3927.1997,347.644,1024.2062,266.489,763.7016,1009.153,104.5102,203.2296
1024.9267,6178.0489,118.9546,763.8186,35.5723,126.9109,411.6434,558.4468,742.0701
1026.784,8635.4361,94.0905,779.8263,8.5945,630.3623,-146.4795,704.7325,785.6304
1028.6413,14611.0906,-81.3242,753.4821,127.5021,801.417,1090.8631,287.9501,345.9416
1030.4985,22603.777,-120.1354,862.1058,286.9106,351.778,58.8167,403.7383,624.5607
1032.3558,25213.5531,56.5222,912.1283,1116.6597,847.5104,894.9746,-332.5635,319.2627
1034.2131,17599.0333,696.4065,-296.5273,164.1186,149.0584,412.8333,-460.5279,284.0309
1036.0704,10597.2838,-72.1637,592.4564,328.4027,546.6253,9.6604,340.5744,612.0373
1037.9277,6293.7856,-317.9163,-56.5895,1098.3973,691.5636,786.3605,1050.5238,591.4359
1039.7849,5106.1194,625.4261,-95.8478,147.2065,639.0399,822.9756,684.3699,416.8816
1041.6422,3253.4522,-185.1899,17.8206,49.0483,316.3223,221.0005,172.5002,-13.651
1043.4995,2475.5069,344.0346,714.8153,778.1451,1022.9512,737.8605,452.4562,722.9135
1045.3568,2494.0864,229.7427,543.8315,440.5441,419.6944,112.966,29.9092,-97.0445
1047.2141,1395.7272,92.4431,949.6331,835.6416,480.9056,-460.1413,-406.5322,211.6401
1049.0714,1828.8442,518.9364,1152.2403,-218.2673,869.3214,110.9451,443.3247,550.5833
1050.9286,1731.6966,714.6174,328.6987,622.4307,353.7761,130.4981,857.1893,141.5703
1052.7859,1660.0135,396.6413,16.8979,429.1497,1186.7832,789.0916,-496.624,507.8623
1054.6432,1052.7344,-220.2961,622.7097,853.1557,16.1768,47.7318,390.7838,476.7083
1056.5005,931.0231,715.0553,155.9772,1050.4406,343.0889,1065.155,132.3744,574.7899
1058.3578,856.3998,365.4783,83.9503,423.8004,690.2745,180.9857,-40.9566,-156.2846
1060.2151,476.1073,-328.6308,230.0747,178.2976,580.1105,-98.6478,262.6032,667.8685
1062.0723,642.1557,674.0153,967.4723,437.8989,418.1857,-189.7404,712.4915,519.2714
1063.9296,825.4125,677.5653,-578.4639,302.1248,841.275,-352.0744,320.1636,1014.9281
1065.7869,912.0769,679.9516,724.359,294.8238,1780.6292,-146.4753,40.41,-22.2784
1067.6442,588.9683,723.8418,655.1847,829.0023,941.5814,23.8715,21.0167,611.298
1069.5015,644.9882,220.7088,424.0912,670.7844,994.8747,-422.9389,291.2938,-202.8542
1071.3587,590.7216,88.049,492.8221,2077.8751,1422.5782,-131.3222,322.7737,715.293
1073.216,177.3832,261.0653,-234.4314,1956.0038,2705.8783,197.1516,102.1729,-461.1759
1075.0733,616.2941,1521.0671,831.1642,2657.1138,3143.1792,1056.7383,942.6893,175.8529
1076.9306,33.0189,957.371,846.8475,3237.0786,3363.8763,-84.9874,649.7363,-240.6871
1078.7879,573.9582,1221.455,-207.4643,4834.0365,6283.3857,296.4905,-151.2693,552.9289
1080.6452,977.8609,1292.4392,715.6854,8306.8595,11642.8146,68.9707,876.9268,377.8302
1082.5024,639.3416,2371.4878,1114.5213,13584.2683,21648.9305,-55.2593,-78.4867,50.8264
1084.3597,397.1841,2230.6181,1013.4124,28121.9204,40513.1566,-20.6032,-391.106,383.6444
1086.217,784.2928,2500.0343,825.1195,40201.6031,34414.8702,302.0103,1288.8379,286.135
1088.0743,520.9611,4269.5015,728.3359,24465.6518,17537.6089,199.7785,140.9729,127.5326
1089.9316,231.089,6160.6672,376.5551,11581.1019,8693.333,994.5636,543.1714,231.6124
1091.7889,645.9102,8446.2454,531.4206,6821.8316,5552.2387,108.3121,100.7765,683.1643
1093.6461,-145.4537,12626.5681,1001.3809,3970.9316,4089.0614,305.6169,136.5089,60.313
1095.5034,11.0566,17198.9402,1283.5606,2732.4852,2164.6552,-120.5118,1176.9234,432.09
1097.3607,1162.4846,15074.9159,1021.5727,1664.0072,1484.8702,483.2324,-560.8758,-155.4545
1099.218,417.1843,10357.8503,767.2115,2450.2557,1485.0086,488.1436,377.8942,1299.1103
1101.0753,527.5509,7927.7708,830.0334,776.1892,1712.2808,62.0649,155.7467,1094.7142
1102.9326,109.3034,5802.0164,668.2771,1825.7401,747.944,-312.8007,-131.6567,817.34
1104.7898,288.3276,3706.5339,1456.7954,976.5205,1065.0376,328.9949,391.5054,507.4491
1106.6471,23.7742,3929.6172,1381.3665,1401.3242,908.5993,238.2287,-124.9246,880.5838
1108.5044,156.8139,4136.5524,1442.1782,721.4816,1086.6434,473.5455,746.377,421.3276
1110.3617,617.869,5557.0921,2244.9394,903.3843,522.2655,284.494,473.0924,902.0983
1112.219,1102.0353,7118.6024,2275.0048,-33.3093,256.6667,742.7787,830.0202,195.8311
1114.0762,216.8119,9872.9642,3208.3941,-0.6747,850.589,-104.5768,1143.8844,1219.4253
1115.9335,754.9108,14169.4721,5049.3268,613.3563,626.8911,705.3995,495.879,921.5096
1117.7908,901.3294,14408.5121,6017.8045,295.0325,455.6736,829.2082,755.0186,313.3593
1119.6481,1278.7347,10878.6533,9273.4404,260.5702,802.043,-329.0385,556.7802,583.7988
1121.5054,306.5583,7175.1479,12169.6097,603.768,299.7613,441.4286,-213.6367,431.6889
1123.3627,324.3605,4837.0144,10965.1524,-64.9183,98.7074,175.6507,-142.133,317.1791
1125.2199,312.1895,3021.2984,7077.2951,-215.2356,286.8301,1275.1414,582.1608,72.4008
1127.0772,388.4372,2633.3813,5072.2431,1057.2397,502.7447,354.0711,511.7265,1016.4386
1128.9345,855.7614,1870.332,3098.9951,300.2272,341.8623,-787.4588,251.7002,701.1134
1130.7918,599.9078,3029.9522,2995.5742,-36.3428,-220.3614,-1.6196,612.514,443.6243
1132.6491,855.7579,1801.3571,1915.0405,1301.4241,433.1827,-736.291,599.369,1468.0805
1134.5064,1190.7565,1127.7782,1200.5237,211.354,-263.6851,342.5026,183.4239,40.608
1136.3636,1231.445,1552.6486,1071.1053,171.6688,961.6459,277.9194,176.0236,-162.3053
1138.2209,1751.1455,952.0356,1130.9791,130.0375,518.8771,211.1232,879.5282,403.7325
1140.0782,1408.0752,638.9229,1085.45,318.0343,238.3138,189.0063,643.6554,120.922
1141.9355,1906.6883,598.2936,435.712,406.9788,1027.836,-229.1417,707.3471,8.2831
1143.7928,1259.0227,616.9714,1138.7909,-87.6706,389.7895,869.8678,977.4837,1024.7725
1145.65,2202.8903,1271.2984,1050.1869,379.4181,639.5512,73.3365,869.5245,450.6747
1147.5073,3104.4459,304.1397,549.4904,-151.6989,336.5424,161.2124,325.841,605.5496
1149.3646,4299.9859,1102.5267,399.4954,811.818,907.4342,130.4022,1045.5639,806.5313
1151.2219,6134.6495,506.3713,1216.1806,152.9176,455.9487,99.9699,42.0,1396.621
1153.0792,8661.9377,488.9788,1371.2639,556.6644,114.6028,-90.5036,-643.2949,871.903
1154.9365,9673.6128,158.1242,911.4406,96.783,120.2463,725.4406,315.5138,444.1561
1156.7937,9691.6927,504.1611,1128.9793,467.4209,851.7409,306.3521,211.6341,484.7933
1158.651,6945.2581,563.5586,418.6519,-197.7619,-112.9499,776.1675,877.8203,935.6794
1160.5083,5081.6447,5.239,810.2573,-139.3678,633.3388,20.329,416.9119,462.2146
1162.3656,4336.4859,66.773,887.8977,99.8715,713.753,142.6808,-14.2757,1320.5552
1164.2229,2026.3642,463.7841,1367.9262,596.5508,200.6468,1017.5112,741.5821,835.2787
1166.0802,1546.4492,670.463,641.6404,608.3355,119.0747,45.9636,605.1116,1480.2054
1167.9374,1438.8194,539.1665,1673.3819,-379.4534,-79.9481,183.2933,47.3155,133.2853
1169.7947,1265.9154,623.9605,871.1352,301.0802,39.1085,-12.8099,300.6439,1087.7345
1171.652,1321.8114,338.0,1615.7983,185.8486,22.1842,780.1683,923.4257,1903.4244
1173.5093,1788.4501,582.1646,1967.6781,924.5003,-427.4799,425.5022,307.442,1807.7952
1175.3666,444.4196,91.1291,2669.1628,202.0929,-120.0627,456.1231,252.8309,1287.7577
1177.2239,821.1091,999.3861,2771.1315,700.2037,654.602,952.4577,247.0309,2188.4352
1179.0811,936.9409,123.7804,4783.1085,-267.9462,872.3535,-221.1977,780.4879,2121.7187
1180.9384,648.7613,495.0513,6332.1306,138.3977,211.9265,-107.9659,185.3248,2884.4986
1182.7957,967.0618,205.3191,9184.3485,-58.5586,44.5549,584.5285,170.527,3724.9122
1184.653,31.1017,701.6966,13813.5434,469.0531,336.884,547.8223,271.4054,3825.7402
1186.5103,775.3651,26.806,18713.6567,151.0806,-358.6465,-202.2999,747.735,5124.5373
1188.3675,-196.5164,489.7931,20578.296,817.9915,-557.7635,172.7402,774.9626,6139.5001
1190.2248,508.449,353.0263,16819.8105,1046.9958,300.0357,63.7035,-275.9533,9304.1917
1192.0821,475.0868,206.0738,11992.7562,-24.8593,-82.4113,241.49,-484.4982,11884.4305
1193.9394,796.8072,431.5203,8485.0444,502.2997,344.6021,1031.6909,591.2918,16021.5568
1195.7967,57.3998,794.481,5954.1133,323.8039,519.6485,711.3188,-47.9368,23350.6517
1197.654,288.7541,579.4558,4081.1894,110.2996,52.7121,653.2507,170.6135,33827.8318
1199.5112,650.054,354.6457,3192.6194,-75.5262,345.333,97.362,-325.9263,40523.8826
1201.3685,740.2518,342.1409,2788.9392,925.8206,432.2199,3.1577,237.362,38365.0416
1203.2258,107.2447,90.6481,2820.3543,494.8715,935.4459,387.7739,-545.7286,28143.4904
1205.0831,277.6793,1376.3365,1044.6653,556.0955,401.8217,428.9528,424.5517,20294.1262
1206.9404,325.2431,-51.7577,1564.6134,512.0737,-854.7392,4.2142,-270.2309,13840.648
1208.7977,-86.3207,252.7251,1930.9466,-71.9417,124.3078,325.2338,-285.2577,9419.0781
1210.6549,143.5409,619.0999,1272.1981,359.7034,95.2898,326.2853,-286.8832,8263.3244
1212.5122,315.4901,922.3043,1697.6505,-396.989,564.5703,433.448,677.0373,5818.4059
1214.3695,27.2637,462.603,1492.2747,479.9043,257.4562,189.4022,-76.9624,4497.8682
1216.2268,332.3787,193.3865,1760.651,707.848,276.7183,397.2266,371.5867,3795.5936
1218.0841,-252.609,375.4545,1324.1062,220.6921,530.6443,-224.6108,729.7018,3061.4888
1219.9413,27.4059,29.6813,1892.5988,946.3718,-287.9292,36.7296,-77.412,2661.992
1221.7986,678.1999,198.5736,1497.34,362.8064,-1044.0755,22.1753,727.5129,2597.8682
1223.6559,151.8331,12.4886,2212.2663,657.6331,167.4431,122.0306,-55.6873,2318.2464
1225.5132,744.9838,196.4721,2068.4589,225.2005,435.3091,216.9502,1.2443,1605.5742
1227.3705,-343.2371,169.0758,2674.8898,95.5477,397.6007,11.1554,-282.9026,1089.0521
1229.2278,273.5979,492.09,2345.7926,862.5559,824.4845,416.497,-281.139,1714.0624
1231.085,915.5806,900.455,4266.6593,107.1692,-233.8485,105.7921,820.8025,1411.9658
1232.9423,830.8573,556.9501,5414.4433,420.9546,10.4629,210.1386,401.2534,951.9937
1234.7996,412.4348,1417.4018,7686.3172,-274.8253,106.3734,672.758,-10.0748,737.8878
1236.6569,689.4145,1150.5466,11129.3248,-416.6564,545.5084,92.9147,-22.7163,747.4121
1238.5142,677.0338,-19.6013,15156.7565,844.4141,148.3415,-195.4416,108.0247,1656.4642
1240.3715,399.7791,969.2561,16259.0055,550.5643,467.8589,270.4957,646.9641,378.1481
1242.2287,264.0875,999.9124,13991.7466,659.9896,-24.1951,926.0961,572.9035,997.1691
1244.086,848.7236,303.1432,9642.1382,378.6491,458.4654,-48.6246,458.7885,1228.1391
1245.9433,445.5745,439.5294,6592.3947,974.8728,70.2481,651.0846,936.0532,446.3178
1247.8006,1179.331,958.4073,4701.4056,-338.2225,813.8235,872.1345,1190.6866,765.5764
1249.6579,372.1707,802.4937,2560.5496,477.6304,673.8477,0.1068,157.891,29.4879
1251.5152,526.6056,1395.7814,2173.5844,-740.8633,618.4745,272.8206,1525.0818,505.5433
1253.3724,-38.3007,1289.7297,930.68,207.6849,466.0442,123.7904,738.7988,1106.2509
1255.2297,682.6783,1240.4493,2421.3139,759.1041,1076.613,-202.2035,158.2738,994.0431
1257.087,189.2514,696.2801,2130.1899,647.8375,945.4567,56.9313,386.7594,370.6043
1258.9443,76.0437,300.8028,852.8691,-254.8043,41.6117,269.1648,920.4852,1223.5585
1260.8016,-580.8451,1105.5045,724.7368,455.4394,514.3952,-126.3935,828.1532,395.5065
1262.6588,557.0099,1390.7763,1144.4179,77.6938,241.0242,264.3563,498.3578,633.2619
1264.5161,-120.1412,1094.6723,1331.4308,1097.8156,286.0361,586.2528,566.73,751.6226
1266.3734,500.4418,1977.3436,756.0485,-150.8818,18.792,202.53,400.2371,1030.3901
1268.2307,196.6588,1623.9614,565.7474,-255.5946,-78.9882,476.4517,-453.4799,1128.0114
1270.088,229.626,1947.3398,799.4094,119.7634,743.0865,97.8597,-174.9991,776.6247
1271.9453,952.123,2444.0255,1002.4495,0.9449,1039.239,354.3715,626.996,1026.4206
1273.8025,373.946,3426.3521,910.0299,36.202,298.5626,-303.1904,-30.0722,1071.9269
1275.6598,353.1334,3090.9679,1465.5377,377.7038,724.8779,275.069,-71.2221,1225.0867
1277.5171,162.4049,4188.3094,87.1122,-5.1692,-114.7039,-130.0916,-518.8423,676.4993
1279.3744,-260.6382,6149.4319,1450.1233,92.0396,-213.2392,222.8859,229.2254,200.6965
1281.2317,382.7242,8503.71,671.9714,338.0369,602.0524,499.9793,511.8388,96.9153
1283.089,80.7218,11770.9621,587.488,445.4494,940.7752,-56.6021,90.6735,124.856
1284.9462,173.7343,17092.4946,-290.4964,766.3144,198.702,-200.3326,-656.3399,421.8045
1286.8035,539.6331,23287.0623,55.6409,-117.6273,454.6346,10.1542,465.622,751.5928
1288.6608,777.0028,24556.5925,211.206,422.0982,169.058,35.2988,32.7826,590.8955
1290.5181,-28.0046,18526.5642,1700.3326,997.4598,54.8908,-38.21,812.4572,-282.843
1292.3754,196.1612,13109.2555,233.5906,145.8148,-665.55,223.5756,469.0605,785.9662
1294.2326,658.9285,9191.7402,575.981,519.4773,332.2136,367.0239,723.747,883.8236
1296.0899,352.1141,5708.1315,-64.189,-327.8378,586.8098,958.7752,1138.0443,-239.1308
1297.9472,667.1095,4446.1851,947.809,354.3263,1013.1056,794.4904,245.5727,807.339
1299.8045,-374.3089,2272.6157,449.8803,413.8769,528.4685,114.5883,710.2659,471.6564
1301.6618,624.4705,3490.2112,494.9684,-438.5306,-31.7482,734.2687,30.198,473.9377
1303.5191,-140.3954,2268.0183,478.7625,578.2614,705.7231,475.6858,37.5075,-421.2875
1305.3763,167.1568,1216.578,569.3662,458.9398,95.1641,458.2921,455.2084,213.6371
1307.2336,-135.4684,2096.2777,202.2286,-196.2324,291.9111,251.9435,1353.3236,975.2958
1309.0909,750.9781,1984.7258,-73.6345,57.6364,30.3887,-312.1305,1097.6772,364.2703
1310.9482,834.9802,1531.8552,796.7716,621.5042,-277.9643,248.9918,1108.4367,44.6545
1312.8055,740.9607,774.3906,-93.1785,729.8639,-129.4911,-241.4309,996.6116,-518.4473
1314.6628,161.5461,859.1764,404.7366,255.3936,762.3264,593.4924,415.958,790.537
1316.52,-38.9468,1490.8288,14.852,592.6538,558.8894,456.746,615.535,185.9972
1318.3773,415.2373,1243.244,-395.3908,-513.9367,552.0138,-100.0416,934.2676,114.4732
1320.2346,-334.5721,341.6022,202.6277,479.918,114.2992,712.1816,1469.7988,417.8089
1322.0919,669.7109,869.4757,502.9698,194.96,352.3052,69.3115,1207.136,844.433
1323.9492,325.1217,235.8372,216.4248,-211.5731,488.1422,101.038,677.4362,2.393
1325.8065,116.4072,889.1181,-97.8051,-1.0269,-488.2561,411.5921,1685.4451,1222.8836
1327.6637,772.0464,1240.4347,581.5498,243.8213,-112.8616,730.384,1686.6228,127.8799
1329.521,-150.1781,540.8391,567.5663,-202.5567,299.341,561.9209,2530.919,227.9556
1331.3783,535.4404,464.656,259.9135,-154.7188,30.2155,420.2875,2381.1746,625.318
1333.2356,1056.3655,591.6323,321.3218,-340.8247,536.4131,713.0658,2423.1004,336.6221
1335.0929,537.068,655.6655,1061.0485,779.9158,837.7036,312.8996,3323.3144,561.8014
1336.9501,266.6871,501.1303,300.7033,682.9347,-95.1293,324.4106,3701.6286,1015.8044
1338.8074,680.2366,779.5516,587.7104,853.1685,21.1702,844.1014,4854.7933,588.168
1340.6647,-58.105,478.8412,-82.4776,940.3187,286.9961,789.4982,6549.1833,850.0404
1342.522,332.5809,70.0701,713.0276,954.8149,555.485,1000.6002,8988.9126,1174.9551
1344.3793,30.9905,-106.3152,7.8802,976.2071,489.8122,1196.6612,12515.7532,63.5621
1346.2366,-92.1655,744.0735,947.016,241.3904,890.9115,1021.8419,16469.478,64.6877
1348.0938,458.5048,-198.5439,-148.4089,971.7335,-82.7752,486.8449,22411.1116,232.1851
1349.9511,552.7824,869.7989,-54.4445,651.3447,689.8264,695.0005,24239.5083,342.7073
1351.8084,741.6875,124.0201,131.6125,1231.7276,-174.247,399.032,21710.1236,401.4251
1353.6657,456.8083,-318.0343,341.9314,460.8641,726.6073,964.8131,17299.8571,360.7004
1355.523,314.505,192.9663,-12.9012,586.8926,144.1048,796.9668,12763.1083,760.9801
1357.3803,-331.1674,1018.6826,663.7151,26.1247,-286.3882,492.566,9671.805,801.6995
1359.2375,376.0609,-99.5381,20.7724,-100.1911,386.8939,753.9256,6329.4809,678.2471
1361.0948,676.8844,815.3499,853.5791,425.7666,98.134,478.9474,5517.0126,1215.4858
1362.9521,322.2635,320.0853,42.1377,274.1978,489.4643,426.9903,4320.0,46.0123
1364.8094,596.5234,222.3294,17.9851,1275.38,569.0222,233.9249,4177.7928,1088.0861
1366.6667,971.7596,808.2632,178.9476,-75.4812,630.425,422.4557,2381.4851,477.6266
1368.5239,657.1762,307.4183,1021.2153,-257.3689,280.3124,1216.3535,2138.9129,31.9899
1370.3812,148.9479,-13.0781,430.7302,555.0033,473.2861,249.0362,1165.9594,45.5419
1372.2385,482.2732,1255.1859,-299.0083,-14.3837,712.837,849.776,1347.4961,179.877
1374.0958,-97.513,516.0371,642.8121,139.1167,1028.014,-496.047,728.9955,179.8282
1375.9531,193.8959,650.7003,-18.5724,223.1178,-9.5245,140.194,1222.7119,386.5045
1377.8104,617.4618,21.3974,765.5371,-118.6238,-129.6528,765.615,1897.231,169.1959
1379.6676,978.8727,656.027,340.7278,-19.5862,420.7078,-106.526,1411.1085,1196.1358
1381.5249,-242.5696,361.7446,361.3534,299.9522,-176.5625,-500.78,925.6609,660.7526
1383.3822,634.3969,333.9912,755.2342,569.0043,-369.3028,252.51,1229.6363,658.5827
1385.2395,122.7043,687.5202,870.0054,898.1334,389.5056,630.3513,925.4051,586.9978
1387.0968,190.4221,811.2136,118.6716,525.6384,352.3245,783.5502,540.9352,76.9865
1388.9541,142.9742,-403.1774,176.9332,936.58,835.4302,567.3789,908.9266,1259.5691
1390.8113,663.7807,50.1921,304.9146,121.6075,563.8546,1167.6497,903.2214,-319.972
1392.6686,341.4674,700.4117,527.1274,188.4347,111.532,844.85,929.0124,-233.0691
1394.5259,913.9828,230.2187,488.0722,346.5935,122.5919,-296.4471,187.4597,282.3802
1396.3832,519.1855,313.9046,630.047,899.039,461.2211,59.4202,433.1868,1007.903
1398.2405,1271.3347,527.2637,599.3993,949.0197,623.366,379.6473,926.0782,-146.8024
1400.0978,520.6644,266.8419,722.9197,526.2427,746.6464,616.2616,1148.6058,864.6887
1401.955,684.0137,201.2046,657.2842,371.1159,399.731,884.7728,586.3545,580.3542
1403.8123,921.8446,699.8389,1445.8616,330.7199,743.5406,343.9684,259.7083,469.5741
1405.6696,29.096,130.5164,810.9889,286.8156,-50.4796,190.4344,732.2552,163.5378
1407.5269,178.6036,65.9758,745.4818,652.856,749.5215,826.986,834.6565,498.3935
1409.3842,376.1323,47.9732,749.3519,535.9634,1076.8313,961.1425,681.1028,-279.0441
1411.2414,856.5734,123.4332,1626.3703,427.4084,312.6149,-230.7696,497.7144,327.47
1413.0987,618.2812,940.9214,1258.017,100.2677,816.8013,560.9544,525.6844,186.3116
1414.956,1452.5263,493.3986,1080.08,824.8805,-56.7467,366.0088,170.7475,74.2633
1416.8133,509.1765,267.371,1381.9296,706.419,-146.8991,623.9997,868.935,470.3509
1418.6706,1670.0761,1049.4016,1472.244,238.8527,566.8462,26.0698,311.0243,249.359
1420.5279,789.0477,519.4349,809.9303,659.2653,316.0426,749.323,362.567,257.6936
1422.3851,656.0696,75.717,1446.5595,1368.8046,-38.1535,135.9016,725.9098,606.5497
1424.2424,1584.3424,657.4985,1398.3533,1997.7375,595.2334,-57.9074,852.5922,360.9885
1426.0997,969.9801,897.6802,1955.8024,2074.0674,-292.5142,320.8193,420.1486,-644.8546
1427.957,1269.7103,380.8,2622.1711,2399.5901,691.4731,737.3543,292.9084,926.6971
1429.8143,1335.5819,642.0847,3334.9688,3657.54,462.352,915.3764,980.7665,186.362
1431.6716,1367.8821,490.4801,3066.1472,4351.3659,-100.5495,233.8057,733.0908,558.8983
1433.5288,2232.894,256.0554,3667.4715,5168.4889,463.5734,-229.0766,84.3478,467.0551
1435.3861,1998.2913,82.3517,4778.7672,5951.1464,442.6777,826.5625,501.6805,606.5174
1437.2434,3096.1734,821.8096,4462.8327,5310.1277,228.5308,612.715,-85.6277,249.9953
1439.1007,3555.9009,380.3081,6333.9612,4772.1822,1125.0642,491.1735,741.6943,-767.9709
1440.958,4796.2011,34.3933,9553.8837,3025.0408,934.9911,-165.7859,579.9943,116.8937
1442.8152,4823.1503,-93.1976,12194.5229,2331.2909,536.7796,1061.9859,546.5905,864.0363
1444.6725,8332.6334,474.4767,15977.2258,2532.0438,410.8581,202.7221,422.1773,450.6501
1446.5298,10840.1045,12.6133,22025.2493,1273.155,496.8004,418.1314,-29.6519,602.3461
1448.3871,13582.5058,610.7776,26436.9636,1785.117,1886.5621,604.658,387.3946,454.8137
1450.2444,14308.6206,297.4294,28810.3065,1390.1065,1326.7375,714.9411,198.7045,82.7845
1452.1017,13668.2165,270.652,25822.7594,368.2948,1980.2841,-115.5364,603.6108,886.9037
1453.9589,11124.6608,158.354,19741.7229,912.5288,2303.4669,421.7676,703.7042,807.5881
1455.8162,7992.0367,1179.2801,15398.4205,816.5606,2737.1124,541.7587,485.9776,-82.3774
1457.6735,6056.8434,695.7718,10862.7654,725.0972,2976.0311,-419.9572,657.3405,693.2681
1459.5308,4711.4776,543.4206,8923.6026,654.6998,4354.1752,43.8277,183.8267,443.4219
1461.3881,3781.9884,492.8437,6502.0413,449.4672,4878.3947,-291.4006,473.6343,547.1858
1463.2454,3635.6698,381.6234,5729.7702,768.195,5316.3229,83.4506,201.6173,62.9554
1465.1026,3053.9141,431.285,4757.845,974.4964,4442.6138,-31.0233,-368.7863,-229.2552
1466.9599,1856.6037,677.3287,3541.4431,476.4703,4004.3436,948.4835,-714.4725,153.1079
1468.8172,1677.115,331.4268,3083.5222,254.041,3033.5645,242.2664,370.4119,440.8991
1470.6745,1347.063,-48.804,2858.9534,642.2171,1134.156,-45.8897,294.989,168.6613
1472.5318,1426.4337,1219.3959,2091.9208,560.1832,1478.6221,-40.5483,787.3085,35.8555
1474.3891,1359.4219,-597.8179,1862.3106,852.7711,599.9907,-691.7929,353.7073,361.585
1476.2463,1155.7365,860.4799,2189.6186,1014.0753,999.0511,416.5551,606.6002,733.7449
1478.1036,679.9752,99.9257,2208.6158,1074.5874,637.6444,312.4836,686.9323,1301.4197
1479.9609,1052.5098,383.1835,1743.5408,873.2683,210.1185,384.3734,771.3367,168.8337
1481.8182,747.979,487.8805,1060.0509,-361.5876,118.4169,545.2264,282.0081,711.4229
1483.6755,1354.6059,-14.718,1118.7805,587.8301,1285.9218,995.0574,300.5142,512.2512
1485.5327,241.826,1127.2182,1401.3304,638.7598,-497.6874,127.6047,152.9402,2.4819
1487.39,1414.4654,-115.3911,-71.7013,252.6815,350.522,397.905,342.936,777.5312
1489.2473,757.8979,1106.0291,1086.1268,302.8861,1374.0013,1013.2759,-664.8651,927.8994
1491.1046,612.8783,537.8227,610.5185,878.1222,1003.5326,-369.9009,649.0587,663.8825
1492.9619,950.446,682.1732,85.1057,723.5266,438.5528,642.5882,-300.4187,303.2008
1494.8192,505.6252,668.2405,1079.2475,48.2533,324.2955,-59.5574,430.0837,-215.0317
1496.6764,543.0036,-52.7557,1086.0176,396.352,28.7908,879.2222,184.4091,525.8285
1498.5337,1223.6856,-299.6495,658.0776,99.3698,-136.167,326.078,47.3829,931.0662
1500.391,900.1996,189.2971,1121.2854,467.9331,796.8517,679.0159,520.1039,975.2078
1502.2483,586.4462,42.8272,191.1421,949.7153,1044.8549,694.6664,789.6582,385.2832
1504.1056,761.8036,1024.7978,983.0062,560.605,819.5788,859.0474,678.94,164.6454
1505.9629,309.746,66.1457,1102.6531,258.2352,611.5875,175.5266,330.6133,284.3703
1507.8201,102.394,-98.1323,651.8737,-521.5245,879.0104,828.3896,-50.7967,1183.6244
1509.6774,1004.1398,403.2397,1262.5069,755.6437,933.6338,660.9267,580.0885,759.1298
1511.5347,945.9244,1045.2297,260.964,62.6988,1058.7801,-369.345,382.2954,1299.4825
1513.392,651.227,533.044,383.786,-302.6918,273.8398,249.5458,616.0943,488.2062
1515.2493,-42.077,543.3579,502.8776,-45.8121,1239.6773,875.6465,893.7,600.5642
1517.1065,548.8574,478.7047,196.9517,853.4975,-38.7861,5.504,629.6502,661.08
1518.9638,166.8356,280.3189,357.201,925.5945,81.8778,960.975,141.4931,904.2953
1520.8211,416.7092,-0.533,778.1551,875.3142,767.5925,-178.4998,802.5459,996.0777
1522.6784,433.2431,104.5543,289.9688,360.3147,111.2407,664.991,-80.7796,664.0684
1524.5357,29.9157,874.9018,436.7873,497.5408,-299.1044,285.3577,249.6769,833.5999
1526.393,625.5201,687.0745,1094.6367,193.1514,308.0164,422.0732,119.1296,1359.8229
1528.2502,1053.2016,283.432,318.9489,-114.6107,470.0407,330.0448,614.2674,2017.9735
1530.1075,157.9519,697.3562,333.9836,723.8588,20.5971,124.782,-722.2826,1651.1011
1531.9648,693.3529,896.8899,105.8388,433.7728,-85.6618,789.0022,160.7324,1960.3939
1533.8221,1270.9061,27.303,798.2315,-693.1189,297.5243,360.5304,-233.2806,2927.3773
1535.6794,330.1776,497.459,1149.0622,42.4949,596.8152,618.2307,-239.2244,2667.4189
1537.5367,464.1064,1000.8984,230.8228,869.9821,621.8464,173.521,-90.0838,3094.2423
1539.3939,224.0685,400.8535,588.9603,248.5871,-139.416,-59.4324,-97.3306,4958.7842
1541.2512,220.0062,779.8312,365.7672,-318.851,-86.8842,638.4836,561.702,6707.8048
1543.1085,928.8408,1153.6705,420.5698,438.0608,-255.2037,550.557,947.4563,8660.1859
1544.9658,1289.7118,143.9728,430.9654,-71.1478,273.4309,682.5667,432.625,12306.1644
1546.8231,116.934,-865.5306,817.8833,665.8392,392.4408,766.8785,138.9056,15826.6211
1548.6804,864.7422,743.8186,633.0199,369.2461,200.8866,342.1188,1467.7533,18303.85
1550.5376,468.293,302.7645,632.1445,967.6965,287.1991,221.2466,564.8421,20715.2028
1552.3949,1641.9823,414.9561,219.4392,725.5349,5.8329,-257.7145,298.742,17108.7841
1554.2522,893.947,567.9352,779.2881,412.1197,-31.7236,-26.4685,-279.8541,13057.5498
1556.1095,779.8681,830.3733,262.5235,29.2747,-79.3903,467.0,46.1933,10166.3095
1557.9668,423.7163,592.1399,252.4288,679.7707,-195.2017,664.5634,566.2518,6496.152
1559.824,1020.5019,1239.1311,-96.1526,550.075,603.1793,282.3364,613.9646,5258.4694
1561.6813,1353.7451,250.2293,-101.7249,597.3356,485.7432,198.0167,1003.2938,3872.4715
1563.5386,1044.9258,1144.8188,301.536,1404.9283,182.8002,456.23,236.7281,3095.6183
1565.3959,1947.4921,480.5047,-14.6716,75.2124,383.0931,1276.7285,747.7205,2246.8297
1567.2532,2097.5912,549.7962,699.0963,440.8329,154.9012,103.9006,313.4241,2234.8828
1569.1105,2316.3188,529.756,950.955,486.3261,438.1419,492.8686,30.1029,1358.5935
1570.9677,2110.77,-38.9332,376.6273,854.8671,-135.3788,759.3563,754.7412,1846.972
1572.825,3554.9849,1005.1411,279.8281,-280.1176,537.0018,-109.9322,1147.4652,967.0181
1574.6823,3606.7345,655.7642,-246.8188,157.4619,727.1867,308.1164,-79.5182,1304.7731
1576.5396,6264.5872,451.321,7.0064,-99.8164,899.4668,15.6699,707.9371,1458.9139
1578.3969,8397.2107,758.3092,745.3696,328.1939,738.7951,272.2198,-126.075,836.082
1580.2542,10198.6998,225.0753,1177.0838,716.2846,277.0265,368.0957,-436.5261,1223.8087
1582.1114,12223.4415,879.9134,36.5476,446.5085,-76.8422,-22.752,2.0382,1251.5673
1583.9687,13111.9435,1742.6322,-288.5742,195.7982,446.6602,420.0785,183.4794,340.4401
1585.826,11215.0233,1114.878,482.1645,862.8398,28.5892,741.1171,23.211,598.6929
1587.6833,8363.8176,693.0315,411.8242,118.8935,357.9467,112.2991,257.5522,568.4427
1589.5406,6773.8601,1055.2955,799.1328,-62.7044,884.7602,1240.2523,703.6976,689.5404
1591.3978,5412.1951,1337.83,1034.0617,-259.2081,322.1679,543.4306,541.5839,1061.9317
1593.2551,5578.6337,1637.8385,16.192,489.0023,83.4366,193.4561,659.8176,1044.1383
1595.1124,6850.6553,2168.5668,772.6411,-80.2832,21.8509,216.6672,414.1753,901.5814
1596.9697,9313.0916,1719.3974,-13.8419,1194.8283,458.0701,822.6339,-142.2637,728.9325
1598.827,12919.387,1947.1834,883.4203,441.4343,-78.9052,-60.7343,371.3821,196.0432
1600.6843,18513.0097,2877.3955,686.4541,-75.7504,-47.4707,-106.6806,-54.2709,784.9163
1602.5415,22655.6067,3896.2654,277.1968,-330.0113,471.8676,-402.7684,436.4653,158.9842
1604.3988,17532.711,4737.7728,-252.7604,405.0586,-323.187,-110.3265,727.6253,382.2165
1606.2561,11335.066,6171.1905,392.8388,977.2271,72.6416,-58.0897,664.7706,438.2507
1608.1134,7836.9595,9654.1181,10.1363,689.2717,-421.0717,144.4684,374.9463,1015.148
1609.9707,5415.5335,14586.5911,73.5469,1037.5119,360.1388,983.8887,73.2799,1281.1139
1611.828,3511.5875,23327.2788,810.3214,156.0533,285.5841,780.9227,552.2947,847.843
1613.6852,2790.6012,28262.7471,544.7964,169.259,-189.8086,-224.021,-187.3438,197.3539
1615.5425,1803.974,25885.2358,589.414,213.1823,382.7801,-69.7169,-485.4161,597.9588
1617.3998,2619.7185,17171.5475,91.8012,207.8737,253.5415,582.2053,0.1102,105.8449
1619.2571,1287.444,10568.2802,-56.4664,158.3863,-615.1907,72.7993,-319.6341,673.5072
1621.1144,1592.9089,7752.1927,532.3519,370.7014,12.9753,1144.9856,277.6599,644.2802
1622.9717,1692.4349,4892.1572,553.6326,422.8962,325.5389,658.4615,188.5368,463.153
1624.8289,2180.1064,4146.4885,331.3456,472.9238,526.2258,-267.6018,256.238,1146.3597
1626.6862,1243.2904,2149.9806,1254.903,920.6472,602.5982,1249.7944,535.8363,1304.0431
1628.5435,1046.8447,2891.1946,241.0076,250.6347,-174.936,272.5999,1290.074,-229.261
1630.4008,777.151,1816.8045,573.9056,-472.0779,321.6883,142.1425,739.7987,182.2915
1632.2581,384.8657,1447.8719,19.4589,616.3464,331.3861,-217.2203,563.0742,585.9634
1634.1153,774.913,986.7627,392.2382,866.4654,483.0681,-125.3513,-113.3929,440.2906
1635.9726,557.0234,1126.1476,701.5728,1119.7778,234.2138,343.8303,327.9681,791.886
1637.8299,355.1003,610.1356,737.6558,798.768,26.8764,23.0822,232.5809,1053.1053
1639.6872,534.9492,894.8459,315.2795,30.9382,927.1461,414.2459,417.6242,233.3399
1641.5445,231.1366,1133.9653,991.9519,-399.3344,644.919,37.3549,439.8381,83.563
1643.4018,276.0975,-21.0294,861.4006,627.5131,-87.7924,275.9303,551.906,805.1111
1645.259,358.5644,826.0549,628.3512,430.9015,1360.8431,327.58,638.8714,796.0584
1647.1163,750.8638,846.3661,1098.2773,1646.3967,115.7361,-173.2741,67.2655,499.2818
1648.9736,659.918,939.4172,418.6979,-467.5122,26.531,-106.5685,379.6599,178.5718
1650.8309,868.9387,1261.589,715.5778,802.2322,120.7503,-150.2787,462.7916,489.3763
1652.6882,562.1103,589.348,1267.325,58.6796,47.387,42.0526,1174.4909,147.6863
1654.5455,297.5511,1096.9397,889.9891,269.3452,124.1198,-136.8415,613.6761,422.0263
1656.4027,-64.1956,-366.843,147.5635,-156.765,-132.2334,979.0254,69.9573,1248.9232
1658.26,402.566,648.1996,84.508,551.6118,51.3433,741.235,221.5917,33.5768
1660.1173,-31.0602,665.7381,736.245,754.4814,-619.2732,-470.4479,637.0205,858.9579
1661.9746,-339.7934,988.3924,835.0692,1105.197,521.4336,2.8814,1086.7826,283.433
1663.8319,1296.4006,872.6442,270.105,777.8328,924.1382,-156.1488,992.0453,-72.6907
1665.6891,87.4637,1278.3224,627.1422,38.3305,309.8162,644.9765,416.8455,875.6388
1667.5464,592.8542,1170.2869,924.4716,440.7234,179.4794,121.7191,496.087,684.9255
1669.4037,61.9413,1506.6337,546.8625,644.7499,291.5215,84.0229,556.8751,336.0871
1671.261,202.9437,405.6325,591.9357,1012.0862,311.6959,298.508,1121.1233,521.6609
1673.1183,236.8039,893.1736,210.7927,1253.406,-136.558,257.1666,1031.2961,274.2387
1674.9756,489.227,896.4689,490.5397,568.9006,426.5103,513.7845,1102.8726,-271.8168
1676.8328,323.2272,1188.5512,804.3023,25.83,-72.8533,586.4806,864.7718,646.7584
1678.6901,1054.0778,1197.3042,-643.544,104.1927,24.2218,461.3531,1622.0046,448.3758
1680.5474,261.9832,711.3332,849.0669,605.4293,-149.6534,404.0748,1714.4808,492.202
1682.4047,1201.3148,1008.1515,620.7463,195.1706,35.8238,42.041,1109.3501,114.4802
1684.262,239.2128,1109.3839,1175.3667,427.3111,491.8652,669.1639,1329.8152,-169.5466
1686.1193,103.7894,1555.252,98.0414,680.8921,-576.0144,804.8097,2172.6346,312.76
1687.9765,794.2392,1479.1695,1351.5106,452.766,674.6379,37.1388,3130.4323,607.1817
1689.8338,465.2085,1164.2902,675.5445,78.1239,370.8806,684.6277,3730.6538,-716.9266
1691.6911,265.2823,1240.6106,729.4977,1097.7147,392.8105,113.6444,4578.0792,-29.7198
1693.5484,86.0867,1116.2,672.19,-142.8695,843.9868,581.0388,6662.062,325.2768
1695.4057,212.5793,1254.0939,1353.2048,-84.1609,-2.5351,-258.3709,8756.2455,601.0037
1697.263,676.9318,1831.6207,1258.6124,-139.4973,590.1495,-227.7353,11779.8899,719.7919
1699.1202,306.0549,1339.5196,896.3996,74.6975,28.8044,-602.0543,16918.5286,581.5129
1700.9775,633.1651,2404.731,1551.2012,129.9603,105.1903,304.9022,15243.1393,-62.3554
1702.8348,431.0204,2002.5425,2598.8568,311.6449,581.1505,149.4409,13151.3915,763.7087
1704.6921,933.4208,2415.8955,1916.6569,359.6476,447.1747,70.9135,8919.9741,805.9752
1706.5494,747.4643,2442.6132,1852.5491,245.0796,689.1411,367.7119,5606.9834,675.278
1708.4066,673.6758,3963.8566,2585.7702,523.1223,156.1681,-272.7342,4025.913,249.2382
1710.2639,453.4375,4265.1748,2376.4154,519.949,-328.576,-311.5023,3743.6721,318.935
1712.1212,502.507,5467.4978,3084.1197,238.7551,240.5235,571.276,2495.9744,365.8742
1713.9785,537.1006,6446.5741,3943.9724,648.5327,240.4669,144.9769,2142.2709,475.4252
1715.8358,198.052,8679.4025,4790.3009,98.7883,639.8841,-214.814,1674.5874,221.0731
1717.6931,-24.4426,10953.2562,5862.8716,142.5877,2.4424,630.1844,616.9494,265.7414
1719.5503,6.2477,15579.6716,8406.1718,597.3674,142.8482,-382.1555,1454.7242,-135.6712
1721.4076,-276.3395,22750.2316,10097.3377,-12.3057,1049.8737,168.3822,1230.5411,426.3821
1723.2649,-285.905,31388.0352,15013.8622,70.0516,661.758,-72.3743,1346.3064,102.0793
1725.1222,785.15,40186.6345,21621.7627,895.8822,1010.5887,582.6055,29.1165,517.1718
1726.9795,96.0661,40766.9225,30187.3671,429.2987,355.4957,639.1126,1368.2963,-32.5742
1728.8368,-236.729,31391.9271,38805.4032,407.1532,552.7073,936.387,1248.2884,539.8316
1730.694,529.1167,22601.4763,40393.8349,731.0688,-119.8738,123.3874,1223.4227,290.3176
1732.5513,535.0383,15075.0526,32813.3899,564.5979,-115.3042,-96.6577,847.9723,494.8286
1734.4086,790.2059,10981.5516,23888.9172,946.4962,416.5275,118.4499,790.1843,767.1816
1736.2659,541.3753,8738.1906,16172.2418,660.5107,328.3138,-281.9938,590.1779,312.2883
1738.1232,55.4275,6573.1714,12040.1723,-59.2556,682.8552,362.2299,248.7402,-204.1731
1739.9804,59.5486,5687.9921,9019.1338,267.6067,144.2534,139.609,902.5649,99.9546
1741.8377,462.994,4036.1427,6861.1235,165.1868,1020.3076,529.7,632.3513,-426.3432
1743.695,74.1829,3483.0851,4489.958,543.7807,923.1749,663.8243,1043.8944,106.6724
1745.5523,614.52,2833.7701,3675.6606,605.2984,-194.4227,793.493,823.2389,-798.4452
1747.4096,669.5694,1888.1488,3296.5244,755.9622,23.5154,-25.0474,786.7547,15.6995
1749.2669,609.6929,2327.1967,3487.8064,179.737,399.6563,-423.2856,677.452,500.6133
1751.1241,161.3012,1484.5651,1770.9357,483.971,152.9668,366.9874,559.9144,450.2964
1752.9814,556.5851,2295.5879,1610.3974,631.1612,-217.2012,-153.4928,301.3945,888.2473
1754.8387,106.6865,1220.3198,1124.702,685.8929,764.5102,364.363,549.3352,123.8156
1756.696,361.6488,1791.2118,2104.584,833.6815,529.8207,404.9551,-345.8973,136.304
1758.5533,730.815,416.5331,1185.0136,218.799,-226.0372,-303.2697,631.4136,-482.3666
1760.4106,514.0494,1404.7595,1307.787,-327.0086,970.9156,285.016,-773.5323,719.3511
1762.2678,-100.4635,1285.1153,1044.3352,48.5077,46.236,-350.8027,457.7652,401.5935
1764.1251,-115.7175,1570.5237,1544.1416,-15.9476,-453.0543,65.7891,471.4469,971.5562
1765.9824,-222.3558,1455.6833,1127.1115,517.3524,246.9499,612.3606,559.7468,-403.0123
1767.8397,173.4126,797.1401,1535.4962,326.8638,96.8195,622.228,413.0736,468.1415
1769.697,-588.0917,1158.1586,1242.6586,350.1047,79.3694,-132.6274,574.892,553.3271
1771.5543,356.109,1180.6141,860.9582,362.8228,457.5307,-146.7742,-150.6074,176.2128
1773.4115,-10.2304,353.3506,965.1192,642.7327,476.019,9.6444,37.637,-532.3136
1775.2688,658.7103,540.18,542.2647,458.7327,-361.4613,-328.5613,-128.1946,381.5749
1777.1261,459.3638,262.2621,1000.557,452.3706,-47.8983,669.9271,396.9016,-52.9464
1778.9834,429.4161,1011.5519,618.2135,-158.5316,422.9528,39.1803,501.3826,77.0732
1780.8407,1260.3407,883.2053,-53.4135,12.6461,233.5439,-124.6456,394.9848,187.8442
1782.6979,-23.1099,858.2156,-291.2148,433.6071,296.5064,751.3012,-190.237,407.6396
1784.5552,66.464,304.8077,666.8469,167.9809,229.9649,442.8261,688.2711,762.1016
1786.4125,1032.9739,-10.785,161.5617,281.6032,163.78,465.7995,597.535,732.4081
1788.2698,399.051,341.9935,1092.0612,361.6707,697.3351,804.727,226.4794,-9.0789
1790.1271,-58.6083,266.2974,169.6216,83.6038,131.7121,843.6078,1017.5685,-511.5007
1791.9844,-36.2436,1060.0036,620.3372,3.809,-35.2494,691.4673,120.4324,741.8379
1793.8416,584.0795,342.7999,327.4955,1678.4436,-3.0737,640.9236,-450.0472,684.5462
1795.6989,257.7482,694.6155,935.6792,-40.8527,140.3299,944.6433,1082.5161,337.105
1797.5562,509.9186,475.8751,555.6901,34.3113,72.8984,200.5358,933.8798,546.5375
1799.4135,655.1599,-11.1659,184.0925,732.9853,742.0323,863.4657,153.7473,39.5917
1801.2708,213.5454,428.1752,393.9475,382.2063,395.2345,134.5862,194.266,-345.0115
1803.1281,561.5103,609.2915,801.1904,82.645,-268.6285,-68.8508,355.8177,-254.6816
1804.9853,338.0087,114.4851,759.4597,269.9855,201.2429,491.042,389.7816,-210.2122
1806.8426,317.8621,480.176,1216.2994,7.5685,319.3066,528.6376,528.0877,-218.3876
1808.6999,1294.2135,723.2223,401.3478,-453.7233,68.3128,-156.9841,297.651,105.513
1810.5572,296.9168,1.8803,322.4223,780.2461,438.9432,573.6831,961.9263,262.0095
1812.4145,984.972,1155.6617,718.5295,198.5723,662.7828,223.0241,627.6529,843.4306
1814.2717,953.1613,274.337,314.6844,-275.5182,-44.2489,92.2987,426.9087,-161.9182
1816.129,133.6772,675.6335,432.9075,-377.7107,321.3859,-56.4417,445.1073,569.7546
1817.9863,-210.5473,-174.0358,662.5056,479.1121,45.4835,421.883,398.8513,-153.5718
1819.8436,694.5499,-293.4212,355.1029,472.5738,557.9375,833.0508,863.2268,126.2987
1821.7009,665.4089,174.6219,380.3851,-622.4998,141.3058,381.5319,417.618,469.8782
1823.5582,441.4072,669.6591,1006.7925,727.5576,567.0701,479.2273,472.037,-164.6239
1825.4154,503.717,340.4974,52.9029,445.2126,519.5041,429.458,936.0917,652.0699
1827.2727,-234.0666,439.4712,372.907,530.0128,-554.0726,354.8484,-234.8201,564.7372
1829.13,327.9467,145.7381,137.8934,68.3248,-797.2249,354.2005,640.6596,3.3435
1830.9873,381.4347,164.8617,-303.5571,413.2334,619.1508,762.3441,-249.963,772.6423
1832.8446,272.5393,344.0016,295.876,455.344,177.1238,959.5985,738.1678,888.0248
1834.7019,576.9733,427.4719,832.8875,1403.5052,612.426,470.301,513.1257,487.8335
1836.5591,496.0191,925.5358,433.7781,-30.0297,414.0961,-314.1143,199.3622,495.661
1838.4164,684.1711,408.2999,688.7075,138.5836,604.1761,152.2519,676.2294,386.6474
1840.2737,304.7274,270.3384,583.0421,490.1121,566.3344,171.8613,323.3448,656.3765
1842.131,167.013,437.5931,135.8097,1148.1297,1281.3151,286.8703,30.937,496.7808
1843.9883,362.2087,644.6869,327.2064,315.3663,607.8924,615.4572,313.7902,75.3687
1845.8456,-447.3991,469.4497,572.9961,-464.292,235.4089,-124.8844,144.7349,664.6403
1847.7028,796.9682,320.5465,-102.8422,314.2568,698.6887,512.2365,1040.5483,346.6563
1849.5601,-463.0441,451.1828,106.5496,286.4646,647.7486,1006.6031,50.33,615.8792
1851.4174,184.4564,577.2741,643.5824,132.8766,283.3663,313.3559,417.732,-66.3165
1853.2747,63.8977,1031.2459,500.8823,366.2101,770.6392,-182.6889,-70.378,-69.7191
1855.132,307.3951,1235.643,337.851,740.4805,173.3394,307.0708,949.7968,711.7687
1856.9892,-86.4484,-28.3247,37.7829,402.9522,203.8804,75.3653,169.8402,84.6518
1858.8465,893.1326,472.0225,-431.9995,201.7599,-486.347,1138.1526,795.11,-344.6306
1860.7038,504.6329,194.5596,490.2917,-114.1906,-820.0719,217.1173,547.5914,111.866
1862.5611,354.9477,504.5886,-308.584,51.573,99.5555,1055.4968,549.7279,86.7905
1864.4184,314.5594,529.3567,455.9274,156.1072,-108.6188,1106.0466,904.4935,357.4662
1866.2757,1265.7213,679.9616,326.2943,147.4816,73.6895,121.4979,-544.1494,-85.4956
1868.1329,211.8053,108.6868,790.5431,-268.6772,479.8189,1292.4774,921.5236,-51.6318
1869.9902,596.2793,443.1268,269.1056,145.0056,-198.5162,563.096,695.7499,89.7731
1871.8475,757.9015,7.8344,248.4574,266.3582,716.1481,607.1503,-68.9233,289.1405
1873.7048,83.7045,659.9874,54.1249,625.5684,165.2735,-315.2272,37.5762,326.8729
1875.5621,-602.3687,889.4814,61.1222,759.9394,363.5633,128.975,16.3764,1025.9322
1877.4194,837.1836,852.5577,553.3088,-200.4078,1460.7125,721.6018,31.6514,-365.4726
1879.2766,369.7873,239.0825,-331.0705,1387.0381,482.2765,504.7649,244.3411,361.4388
1881.1339,154.3467,20.0991,251.7499,-197.1315,184.5447,315.7567,785.6933,449.4061
1882.9912,591.0895,246.5478,457.4672,-332.7789,721.512,538.3987,63.0879,737.1821
1884.8485,79.2121,111.9584,431.1295,845.4651,878.3198,538.7431,731.4903,852.9549
1886.7058,139.0171,1105.7036,69.3469,-60.0028,37.9616,468.7634,-84.6214,-387.9949
1888.563,-116.5455,510.6212,-179.1934,200.7678,605.6407,43.4154,90.4028,516.8703
1890.4203,432.8637,-60.0408,448.7373,96.8109,1106.3336,428.3339,181.1793,64.8795
1892.2776,504.6236,76.0139,739.0096,-279.0963,461.1016,-384.3946,618.9223,-36.4667
1894.1349,-271.2238,-224.871,482.4128,322.7955,206.5942,266.9356,-198.2101,251.9235
1895.9922,216.5324,615.5608,453.7496,790.5297,-590.665,336.0278,155.7074,557.3972
1897.8495,234.213,692.9241,438.2043,-5.9971,872.0479,-98.0466,-86.0797,71.6709
1899.7067,256.4434,642.0774,384.2254,16.5967,254.6455,87.1179,-131.0938,721.0249
1901.564,198.0673,837.6536,-414.4599,-21.1048,-10.4086,239.1554,1078.5526,515.822
1903.4213,460.0453,771.1622,386.4376,-234.3832,60.5681,303.2384,449.609,115.0766
1905.2786,422.6966,238.1445,-286.4012,318.4472,236.8074,696.3294,596.3037,-671.196
1907.1359,459.8675,354.6582,774.8556,478.2652,-46.091,-386.5288,-193.5848,66.7154
1908.9932,27.0616,936.9578,606.2728,935.1825,787.7039,376.9971,-506.1708,-466.1325
1910.8504,60.0655,1136.7669,139.2,-118.2889,-257.6861,-57.3252,827.7291,739.8967
1912.7077,73.5706,621.6425,148.9296,243.791,-43.5372,1215.7628,789.364,599.2541
1914.565,293.2609,115.012,1399.6534,285.4748,-80.1242,292.0758,-38.4478,129.9636
1916.4223,392.9251,7.6146,449.0661,540.2229,246.9832,270.8118,-0.9146,112.835
1918.2796,459.0295,737.3336,92.3262,-7.5033,258.1582,-355.8515,405.625,561.5371
1920.1369,-332.8104,-195.5479,657.9806,838.9665,160.7423,397.2742,-148.6164,249.0838
1921.9941,379.1955,512.015,-60.486,345.8799,820.7931,333.5186,1382.6541,61.942
1923.8514,-50.7588,-53.4389,546.311,576.5311,-372.9482,105.389,23.8777,819.7709
1925.7087,-376.032,629.9862,614.4252,346.8305,-300.7821,97.5551,-206.0361,-172.5648
1927.566,81.203,382.5995,-177.0026,705.8505,212.4147,147.1033,-131.7166,238.3208
1929.4233,-185.4195,405.3684,454.7113,708.0072,251.1654,-315.545,1393.8689,-51.1754
1931.2805,-102.9963,-177.9833,-516.7937,124.0486,973.9764,892.0977,441.5788,129.8488
1933.1378,580.9781,764.2265,-325.9542,131.4567,423.0602,205.7639,1094.4262,439.7642
1934.9951,262.4553,429.6052,-40.8465,-19.1331,1042.6034,131.2996,450.4067,148.606
1936.8524,1106.6924,-189.722,425.0022,61.161,758.5188,1112.6673,422.2575,-64.0032
1938.7097,194.4886,458.5101,288.887,777.9289,64.8174,-207.7048,323.2231,-487.5262
1940.567,377.0476,-32.4878,-58.5617,590.7443,970.3482,1041.9163,25.2423,87.6021
1942.4242,750.6107,462.0379,-659.4107,1234.9602,45.8963,-181.2945,469.0779,311.6963
1944.2815,342.8852,770.8384,517.0716,877.093,-34.3497,1000.625,-25.6189,-24.574
1946.1388,263.4238,992.3151,800.2846,469.7862,-680.4658,298.53,-161.9832,-16.7401
1947.9961,337.9118,63.663,25.5079,943.1119,348.6981,-50.7615,667.1802,97.1409
1949.8534,451.9582,787.5717,351.7147,68.1153,213.0259,-8.9538,302.5068,718.8247
1951.7107,975.6169,55.8162,756.6523,43.6549,174.5921,340.8218,785.335,369.3944
1953.5679,211.9324,-425.3202,514.824,576.8129,98.2484,984.0877,-145.7279,-270.6883
1955.4252,-69.656,1028.3171,734.328,312.0363,655.8583,493.4798,-8.6068,334.5526
1957.2825,726.1043,231.6645,599.1506,387.589,461.8581,-414.6361,36.4233,529.4874
1959.1398,-302.7332,78.0885,939.7621,-192.5244,-682.3141,811.6597,-539.9449,-213.8888
1960.9971,-58.5761,411.0499,646.3756,-496.5028,336.5854,1183.8073,331.542,215.0168
1962.8543,-69.6566,-427.5961,417.4894,638.4175,509.177,1015.8763,1062.6549,231.1738
1964.7116,287.6504,87.3491,621.777,334.647,652.7025,-107.6758,-108.7316,-166.1172
1966.5689,-351.9975,-194.0988,-12.9586,1082.7535,417.3524,778.8081,267.2848,169.2669
1968.4262,275.9901,227.6615,214.4163,979.6743,853.28,333.5276,50.3428,367.3396
1970.2835,-229.1749,-263.0652,-37.4161,208.5385,797.0698,394.6521,101.56,40.471
1972.1408,-4.3648,317.635,195.2365,24.3674,479.9313,264.181,-108.3849,448.0341
1973.998,206.9266,578.8801,8.2104,517.7204,453.1585,144.9399,143.8626,311.6163
1975.8553,644.9537,-15.2697,1309.8974,661.1818,663.6202,986.3036,168.7849,-162.4811
1977.7126,-240.0966,112.37,257.4073,-28.3866,-82.3416,279.4096,-278.7315,207.6503
1979.5699,636.1212,434.2226,-607.9671,-520.848,614.0115,-90.5246,332.8965,674.1867
1981.4272,-659.1471,439.0106,534.1652,-301.5047,-258.9595,400.8466,102.5793,828.1701
1983.2845,171.8592,312.6483,701.3053,252.9164,638.4639,-383.0313,147.4235,-795.9498
1985.1417,584.6526,554.347,166.5053,77.3688,172.1692,109.7702,362.4488,673.3308
1986.999,191.7922,665.4684,412.4908,1199.7147,268.9925,-91.131,685.068,313.4182
1988.8563,378.9411,385.0585,77.8701,226.5137,307.4203,763.147,862.566,-99.8364
1990.7136,195.9822,496.1966,449.5671,433.0844,1115.1867,197.652,402.1828,552.061
1992.5709,-36.5521,145.7513,423.3294,249.3516,-58.5638,23.1807,321.5811,-11.9345
1994.4282,672.8053,-34.561,525.3441,171.2963,605.0589,570.45,67.7805,702.6683
1996.2854,302.929,673.3713,580.5707,42.5869,461.7006,162.5775,-137.3841,840.6819
1998.1427,415.1814,-360.8525,-211.2075,182.4135,224.0334,85.4664,52.3231,0.374
2000.0,392.1054,96.5407,652.3802,-74.5054,283.2379,53.8076,76.5006,83.7913
