raman_shift_cm-1,intensity
100.0,-480.6124
101.8573,-232.1921
103.7146,696.9042
105.5718,454.9354
107.4291,-462.7448
109.2864,863.4636
111.1437,502.564
113.001,-100.0865
114.8583,-102.1669
116.7155,-25.7451
118.5728,134.4516
120.4301,212.5229
122.2874,60.4844
124.1447,16.0946
126.002,90.5128
127.8592,478.4435
129.7165,688.5475
131.5738,903.2799
133.4311,436.7153
135.2884,453.3804
137.1457,7.5563
139.0029,374.7654
140.8602,103.0862
142.7175,637.0387
144.5748,-20.2607
146.4321,1144.5406
148.2893,599.199
150.1466,660.4798
152.0039,961.531
153.8612,704.723
155.7185,694.7404
157.5758,310.4096
159.433,354.6892
161.2903,128.1935
163.1476,719.227
165.0049,343.2464
166.8622,-91.0635
168.7195,588.2607
170.5767,75.8655
172.434,890.0207
174.2913,869.823
176.1486,384.3693
178.0059,-335.741
179.8631,293.1382
181.7204,503.9185
183.5777,33.6689
185.435,1022.4801
187.2923,-195.5826
189.1496,893.4577
191.0068,379.5695
192.8641,1043.7734
194.7214,410.4773
196.5787,14.1052
198.436,376.8931
200.2933,516.2222
202.1505,724.4961
204.0078,396.5973
205.8651,696.2503
207.7224,432.5728
209.5797,20.1476
211.437,179.2834
213.2942,148.3747
215.1515,383.9378
217.0088,433.6374
218.8661,606.9127
220.7234,246.6445
222.5806,580.9419
224.4379,79.1636
226.2952,157.2677
228.1525,424.6239
230.0098,678.822
231.8671,1285.78
233.7243,444.4563
235.5816,-596.0774
237.4389,831.1462
239.2962,570.2088
241.1535,463.9692
243.0108,305.6029
244.868,241.8225
246.7253,992.8497
248.5826,49.3412
250.4399,582.2632
252.2972,569.2955
254.1544,183.4632
256.0117,574.5252
257.869,321.9435
259.7263,-81.2541
261.5836,789.3515
263.4409,1395.406
265.2981,790.9032
267.1554,-290.1806
269.0127,721.3446
270.87,154.5524
272.7273,-868.1865
274.5846,1082.2267
276.4418,145.1625
278.2991,410.5371
280.1564,-352.7178
282.0137,249.0236
283.871,1093.2788
285.7283,845.8969
287.5855,188.4837
289.4428,1000.0117
291.3001,-54.9469
293.1574,797.9048
295.0147,-390.367
296.8719,73.8588
298.7292,506.0532
300.5865,21.5233
302.4438,631.0646
304.3011,196.1749
306.1584,-204.6728
308.0156,1200.0673
309.8729,146.1245
311.7302,-218.9433
313.5875,183.577
315.4448,457.7465
317.3021,667.6734
319.1593,410.5824
321.0166,150.9286
322.8739,364.2921
324.7312,321.0172
326.5885,34.8723
328.4457,593.587
330.303,-48.5745
332.1603,395.4151
334.0176,360.7487
335.8749,165.4742
337.7322,-4.0521
339.5894,278.0031
341.4467,-58.8252
343.304,-457.7243
345.1613,-261.5511
347.0186,318.2933
348.8759,212.7115
350.7331,272.445
352.5904,47.2684
354.4477,-407.4137
356.305,643.9172
358.1623,2.7695
360.0196,2.9628
361.8768,-8.8515
363.7341,44.6966
365.5914,-84.9093
367.4487,737.513
369.306,-101.5468
371.1632,877.183
373.0205,377.7962
374.8778,148.1705
376.7351,700.8001
378.5924,122.5376
380.4497,1261.8698
382.3069,398.5597
384.1642,260.6303
386.0215,85.5775
387.8788,-181.0691
389.7361,113.0538
391.5934,15.1582
393.4506,-63.6909
395.3079,949.079
397.1652,418.7379
399.0225,222.2964
400.8798,348.0974
402.737,1201.8145
404.5943,-333.2585
406.4516,906.7505
408.3089,-233.472
410.1662,1143.0785
412.0235,984.5205
413.8807,-145.6173
415.738,272.5384
417.5953,484.0839
419.4526,8.2938
421.3099,888.3524
423.1672,542.0269
425.0244,-271.6556
426.8817,387.8342
428.739,531.8583
430.5963,147.4721
432.4536,374.5533
434.3109,859.7255
436.1681,-33.0249
438.0254,817.3313
439.8827,352.2908
441.74,671.5299
443.5973,-107.0467
445.4545,1128.1757
447.3118,-99.7261
449.1691,472.8934
451.0264,40.2327
452.8837,387.1995
454.741,158.485
456.5982,-594.63
458.4555,830.0336
460.3128,529.6301
462.1701,415.2192
464.0274,1004.2766
465.8847,-640.8042
467.7419,375.091
469.5992,704.7769
471.4565,686.7182
473.3138,256.1176
475.1711,540.237
477.0283,477.0158
478.8856,391.1225
480.7429,-63.2664
482.6002,1039.2228
484.4575,328.0848
486.3148,-129.0735
488.172,-83.0836
490.0293,-329.4521
491.8866,213.4365
493.7439,270.7794
495.6012,114.8371
497.4585,-795.101
499.3157,653.59
501.173,-584.9688
503.0303,106.6022
504.8876,647.6178
506.7449,530.1859
508.6022,424.8446
510.4594,-213.5588
512.3167,-646.5384
514.174,768.4778
516.0313,614.8825
517.8886,-349.4413
519.7458,-138.6166
521.6031,252.7022
523.4604,95.6772
525.3177,238.9127
527.175,243.2838
529.0323,214.3237
530.8895,-113.0979
532.7468,-30.9499
534.6041,74.924
536.4614,365.3846
538.3187,894.0854
540.176,-119.4794
542.0332,-69.4886
543.8905,-562.6174
545.7478,346.7817
547.6051,1152.2202
549.4624,283.6667
551.3196,424.576
553.1769,952.9957
555.0342,1476.5685
556.8915,599.3786
558.7488,558.6896
560.6061,283.5929
562.4633,282.6518
564.3206,358.6205
566.1779,136.8234
568.0352,325.2899
569.8925,221.3586
571.7498,386.3768
573.607,282.1937
575.4643,659.1983
577.3216,60.9188
579.1789,423.2801
581.0362,517.6945
582.8935,824.2896
584.7507,-106.3836
586.608,1012.2319
588.4653,1045.0515
590.3226,626.4801
592.1799,1174.7504
594.0371,934.4826
595.8944,1504.133
597.7517,2318.5784
599.609,2178.5764
601.4663,2375.597
603.3236,2351.1937
605.1808,2505.9399
607.0381,1726.3016
608.8954,1236.3906
610.7527,1022.8635
612.61,549.7612
614.4673,498.7972
616.3245,413.908
618.1818,784.1869
620.0391,692.7236
621.8964,1948.2191
623.7537,1741.5653
625.6109,2834.1444
627.4682,2801.3633
629.3255,4595.761
631.1828,5764.106
633.0401,5904.5549
634.8974,4701.8743
636.7546,3036.5823
638.6119,2957.9309
640.4692,1367.926
642.3265,1466.8739
644.1838,1115.1495
646.0411,1192.2943
647.8983,608.2997
649.7556,972.9534
651.6129,1050.636
653.4702,338.2483
655.3275,555.5493
657.1848,636.8006
659.042,563.1499
660.8993,155.8343
662.7566,270.9019
664.6139,248.1805
666.4712,899.666
668.3284,1051.2678
670.1857,442.4952
672.043,1300.4082
673.9003,179.0735
675.7576,648.2793
677.6149,809.9999
679.4721,472.5392
681.3294,770.2458
683.1867,366.3797
685.044,211.4062
686.9013,157.916
688.7586,449.6432
690.6158,564.4411
692.4731,742.7538
694.3304,532.5898
696.1877,919.2275
698.045,590.3707
699.9022,409.592
701.7595,-51.6697
703.6168,307.6574
705.4741,216.0916
707.3314,-119.635
709.1887,203.6326
711.0459,322.7385
712.9032,334.4515
714.7605,548.2614
716.6178,590.1561
718.4751,35.4763
720.3324,111.5524
722.1896,274.8785
724.0469,234.816
725.9042,345.3747
727.7615,986.7027
729.6188,-571.9422
731.4761,320.6861
733.3333,-571.1495
735.1906,71.0379
737.0479,515.2113
738.9052,908.2026
740.7625,229.0518
742.6197,286.629
744.477,415.5913
746.3343,586.4984
748.1916,429.0064
750.0489,531.1679
751.9062,119.9388
753.7634,538.1594
755.6207,266.8786
757.478,299.391
759.3353,-424.2781
761.1926,44.4243
763.0499,385.9952
764.9071,1198.746
766.7644,592.8418
768.6217,738.2388
770.479,944.5252
772.3363,40.2959
774.1935,-179.7718
776.0508,474.0354
777.9081,866.4803
779.7654,77.9144
781.6227,611.8212
783.48,429.2526
785.3372,-42.9117
787.1945,-6.4091
789.0518,591.5222
790.9091,-184.6022
792.7664,376.8509
794.6237,288.8642
796.4809,295.7091
798.3382,1106.2882
800.1955,1276.2556
802.0528,1388.4046
803.9101,1594.3408
805.7674,2270.6109
807.6246,4302.3335
809.4819,5816.1819
811.3392,7569.5407
813.1965,7128.8001
815.0538,4816.7669
816.911,3500.4944
818.7683,1627.6533
820.6256,2418.5764
822.4829,663.049
824.3402,1493.3136
826.1975,1046.1877
828.0547,1398.922
829.912,1663.4667
831.7693,748.3
833.6266,1528.4073
835.4839,351.4888
837.3412,861.0368
839.1984,-41.9858
841.0557,1359.4017
842.913,789.5003
844.7703,1469.7789
846.6276,1087.6799
848.4848,1956.5911
850.3421,1995.0837
852.1994,2556.5324
854.0567,4196.6889
855.914,5792.488
857.7713,7041.8941
859.6285,6579.5686
861.4858,5446.4468
863.3431,2914.4724
865.2004,2270.8036
867.0577,1496.2134
868.915,1820.8576
870.7722,1206.1954
872.6295,857.4786
874.4868,850.5536
876.3441,808.6621
878.2014,759.6883
880.0587,183.4788
881.9159,491.9463
883.7732,633.0162
885.6305,358.423
887.4878,1103.8868
889.3451,868.0755
891.2023,508.9994
893.0596,248.3619
894.9169,418.2787
896.7742,844.1258
898.6315,-165.0027
900.4888,655.1925
902.346,90.7652
904.2033,246.5259
906.0606,222.9773
907.9179,800.4974
909.7752,384.1961
911.6325,992.5803
913.4897,-79.6088
915.347,429.9364
917.2043,-134.6693
919.0616,570.8874
920.9189,239.8643
922.7761,650.1275
924.6334,541.3463
926.4907,295.8152
928.348,-248.9752
930.2053,172.6065
932.0626,593.9421
933.9198,-199.6586
935.7771,496.3256
937.6344,690.1391
939.4917,311.2324
941.349,89.6144
943.2063,-39.4764
945.0635,653.912
946.9208,-18.3055
948.7781,810.8739
950.6354,-660.2637
952.4927,321.8169
954.35,539.7051
956.2072,723.1111
958.0645,653.5049
959.9218,984.7683
961.7791,1410.43
963.6364,1913.8771
965.4936,2669.5612
967.3509,2891.9212
969.2082,3512.0988
971.0655,4065.1936
972.9228,3307.0328
974.7801,2498.5032
976.6373,1480.2626
978.4946,1563.1277
980.3519,1143.065
982.2092,928.5059
984.0665,-235.8841
985.9238,285.1525
987.781,190.9361
989.6383,35.7372
991.4956,326.1912
993.3529,162.4146
995.2102,109.3642
997.0674,796.9789
998.9247,660.88
1000.782,687.9233
1002.6393,-7.5155
1004.4966,646.7974
1006.3539,467.204
1008.2111,519.0988
1010.0684,301.0578
1011.9257,503.5456
1013.783,-1.2954
1015.6403,571.1714
1017.4976,415.7301
1019.3548,306.6475
1021.2121,146.3735
1023.0694,856.9304
1024.9267,315.6459
1026.784,16.2795
1028.6413,594.0461
1030.4985,-236.6172
1032.3558,57.3374
1034.2131,943.2881
1036.0704,756.0808
1037.9277,349.8811
1039.7849,25.7183
1041.6422,418.6616
1043.4995,-56.5325
1045.3568,350.2885
1047.2141,795.7043
1049.0714,921.9033
1050.9286,113.9602
1052.7859,714.6016
1054.6432,510.2458
1056.5005,812.6595
1058.3578,421.9674
1060.2151,1008.6426
1062.0723,236.4956
1063.9296,212.0359
1065.7869,108.5537
1067.6442,720.3598
1069.5015,1075.3708
1071.3587,875.739
1073.216,1142.8366
1075.0733,722.4453
1076.9306,1655.6718
1078.7879,602.5925
1080.6452,1422.7557
1082.5024,1742.6865
1084.3597,638.4268
1086.217,1316.227
1088.0743,3463.001
1089.9316,3669.0587
1091.7889,5936.8015
1093.6461,8828.4914
1095.5034,11734.4288
1097.3607,11460.3209
1099.218,7687.8842
1101.0753,5660.8586
1102.9326,4068.9424
1104.7898,3107.4305
1106.6471,2882.7165
1108.5044,3719.4446
1110.3617,4788.6411
1112.219,4907.4586
1114.0762,9091.1401
1115.9335,10921.5821
1117.7908,12980.4814
1119.6481,10996.8373
1121.5054,8088.6031
1123.3627,7112.1404
1125.2199,4572.5579
1127.0772,3481.7961
1128.9345,2468.1818
1130.7918,1673.1635
1132.6491,1314.588
1134.5064,2083.691
1136.3636,951.6449
1138.2209,592.0129
1140.0782,1039.3285
1141.9355,1240.9903
1143.7928,818.3574
1145.65,998.0334
1147.5073,729.3361
1149.3646,620.9153
1151.2219,897.3419
1153.0792,900.1521
1154.9365,798.6166
1156.7937,422.5213
1158.651,818.1926
1160.5083,1178.6931
1162.3656,-257.2022
1164.2229,86.3808
1166.0802,631.384
1167.9374,784.212
1169.7947,978.9042
1171.652,742.7519
1173.5093,1366.7644
1175.3666,868.3793
1177.2239,1087.613
1179.0811,1014.2075
1180.9384,2264.3631
1182.7957,3576.8286
1184.653,4600.0089
1186.5103,6055.8218
1188.3675,6431.9103
1190.2248,5551.366
1192.0821,3359.0183
1193.9394,1865.0481
1195.7967,2444.6095
1197.654,1501.0471
1199.5112,1109.6456
1201.3685,735.696
1203.2258,1151.3605
1205.0831,720.1912
1206.9404,771.8246
1208.7977,414.5809
1210.6549,368.9535
1212.5122,625.5227
1214.3695,71.6184
1216.2268,130.8493
1218.0841,616.2013
1219.9413,928.8267
1221.7986,282.9416
1223.6559,1009.6886
1225.5132,1297.2455
1227.3705,1436.5462
1229.2278,1581.4724
1231.085,1756.3272
1232.9423,1338.9172
1234.7996,2778.8387
1236.6569,3413.3464
1238.5142,4679.3428
1240.3715,5983.2563
1242.2287,3942.191
1244.086,2661.6198
1245.9433,3338.445
1247.8006,1214.8594
1249.6579,1190.298
1251.5152,1376.5245
1253.3724,1654.2307
1255.2297,1245.5554
1257.087,1498.0539
1258.9443,1204.4999
1260.8016,768.6669
1262.6588,1284.4422
1264.5161,1297.2642
1266.3734,1111.1062
1268.2307,1306.3632
1270.088,2481.9488
1271.9453,2303.3394
1273.8025,2360.9793
1275.6598,2506.6354
1277.5171,2938.3366
1279.3744,4517.0951
1281.2317,5831.0554
1283.089,9147.2325
1284.9462,11928.915
1286.8035,16395.3626
1288.6608,17601.1212
1290.5181,13626.2004
1292.3754,8612.9105
1294.2326,6583.0103
1296.0899,4471.0281
1297.9472,3548.5997
1299.8045,2862.7748
1301.6618,1814.5801
1303.5191,1959.1309
1305.3763,1342.1026
1307.2336,792.876
1309.0909,887.3418
1310.9482,1536.3327
1312.8055,674.9376
1314.6628,635.3549
1316.52,930.8305
1318.3773,666.9658
1320.2346,654.2592
1322.0919,530.548
1323.9492,854.3572
1325.8065,908.0763
1327.6637,1121.1436
1329.521,1255.4269
1331.3783,808.0311
1333.2356,341.206
1335.0929,916.0612
1336.9501,457.4903
1338.8074,849.113
1340.6647,338.0952
1342.522,502.2386
1344.3793,175.0386
1346.2366,559.7054
1348.0938,-137.423
1349.9511,-23.1058
1351.8084,-491.6189
1353.6657,1255.0477
1355.523,423.0802
1357.3803,807.0551
1359.2375,84.9487
1361.0948,844.2048
1362.9521,954.1265
1364.8094,180.9474
1366.6667,72.7173
1368.5239,-23.5209
1370.3812,141.2753
1372.2385,299.5589
1374.0958,904.0377
1375.9531,167.4979
1377.8104,188.4245
1379.6676,505.5108
1381.5249,350.3348
1383.3822,348.8347
1385.2395,276.1035
1387.0968,484.1083
1388.9541,251.7953
1390.8113,75.898
1392.6686,294.5286
1394.5259,743.9899
1396.3832,475.5461
1398.2405,237.352
1400.0978,345.0698
1401.955,384.0024
1403.8123,563.643
1405.6696,386.1182
1407.5269,200.6277
1409.3842,600.946
1411.2414,-45.0829
1413.0987,732.7972
1414.956,756.5217
1416.8133,1095.8551
1418.6706,323.4738
1420.5279,783.415
1422.3851,749.5945
1424.2424,755.4742
1426.0997,1369.8769
1427.957,989.153
1429.8143,1665.0108
1431.6716,1836.4507
1433.5288,1341.0027
1435.3861,1473.9344
1437.2434,2285.9688
1439.1007,1514.1692
1440.958,2374.1041
1442.8152,3834.8424
1444.6725,4637.8354
1446.5298,7036.6361
1448.3871,8174.497
1450.2444,7864.0896
1452.1017,7549.677
1453.9589,5950.3832
1455.8162,5022.6421
1457.6735,3497.8161
1459.5308,2667.31
1461.3881,1668.8179
1463.2454,1439.8177
1465.1026,1852.9234
1466.9599,1064.909
1468.8172,333.1063
1470.6745,1482.5181
1472.5318,155.4204
1474.3891,222.332
1476.2463,429.0742
1478.1036,873.8487
1479.9609,991.4854
1481.8182,755.8581
1483.6755,649.4594
1485.5327,1092.8518
1487.39,495.0117
1489.2473,781.3319
1491.1046,1422.8037
1492.9619,615.1546
1494.8192,1157.5624
1496.6764,96.5519
1498.5337,640.0288
1500.391,903.0664
1502.2483,291.4089
1504.1056,71.7402
1505.9629,-153.0795
1507.8201,-11.0866
1509.6774,305.2366
1511.5347,-53.9095
1513.392,263.8962
1515.2493,11.5849
1517.1065,472.2084
1518.9638,76.1365
1520.8211,801.1999
1522.6784,569.7012
1524.5357,714.6303
1526.393,-81.4971
1528.2502,670.5121
1530.1075,296.4736
1531.9648,420.7869
1533.8221,473.5201
1535.6794,107.4742
1537.5367,1782.4933
1539.3939,301.3687
1541.2512,-82.9384
1543.1085,284.8717
1544.9658,687.4897
1546.8231,1015.3386
1548.6804,641.0539
1550.5376,-205.0473
1552.3949,101.0002
1554.2522,257.9677
1556.1095,550.2426
1557.9668,-346.6572
1559.824,264.185
1561.6813,612.0701
1563.5386,1327.7775
1565.3959,865.5686
1567.2532,788.6082
1569.1105,432.9603
1570.9677,31.4286
1572.825,748.99
1574.6823,98.9653
1576.5396,944.6304
1578.3969,-505.062
1580.2542,258.5087
1582.1114,621.3603
1583.9687,810.6264
1585.826,1029.6372
1587.6833,332.4399
1589.5406,691.144
1591.3978,486.6901
1593.2551,1100.6656
1595.1124,1466.0869
1596.9697,1134.5141
1598.827,1971.6922
1600.6843,2295.894
1602.5415,2354.192
1604.3988,3623.4249
1606.2561,4660.1146
1608.1134,6438.6525
1609.9707,10240.6486
1611.828,16349.5134
1613.6852,20302.3152
1615.5425,18069.5411
1617.3998,12141.6386
1619.2571,7601.1384
1621.1144,5384.8979
1622.9717,3632.5837
1624.8289,2788.9631
1626.6862,2151.5911
1628.5435,2202.9958
1630.4008,2098.5523
1632.2581,1335.492
1634.1153,759.8406
1635.9726,1799.037
1637.8299,1526.5596
1639.6872,1668.9967
1641.5445,254.2547
1643.4018,982.6654
1645.259,876.7883
1647.1163,878.2661
1648.9736,695.5576
1650.8309,471.1818
1652.6882,1175.1056
1654.5455,1013.3194
1656.4027,1416.1679
1658.26,820.6906
1660.1173,487.9247
1661.9746,348.2425
1663.8319,356.3403
1665.6891,356.1306
1667.5464,596.9478
1669.4037,891.4307
1671.261,96.4239
1673.1183,550.9509
1674.9756,366.1159
1676.8328,857.5685
1678.6901,890.8385
1680.5474,467.5999
1682.4047,785.5623
1684.262,1143.7431
1686.1193,933.113
1687.9765,908.3309
1689.8338,1021.0451
1691.6911,1579.8771
1693.5484,1513.737
1695.4057,1593.6165
1697.263,1535.3554
1699.1202,1432.6877
1700.9775,681.6892
1702.8348,2382.5636
1704.6921,2599.5867
1706.5494,2214.2236
1708.4066,4314.5125
1710.2639,3048.8431
1712.1212,3692.2055
1713.9785,5139.0047
1715.8358,6950.7402
1717.6931,9803.2159
1719.5503,13335.4892
1721.4076,18041.0646
1723.2649,26917.5006
1725.1222,34553.3397
1726.9795,36789.4947
1728.8368,33612.8518
1730.694,27704.2596
1732.5513,21520.9467
1734.4086,14805.6757
1736.2659,10646.461
1738.1232,8106.8854
1739.9804,6029.7121
1741.8377,5357.5766
1743.695,3401.1886
1745.5523,2709.9205
1747.4096,3084.0796
1749.2669,2856.4906
1751.1241,2637.3424
1752.9814,1781.6606
1754.8387,1978.0377
1756.696,1440.7541
1758.5533,1339.7515
1760.4106,844.5273
1762.2678,850.6194
1764.1251,251.8681
1765.9824,1526.5215
1767.8397,883.0677
1769.697,705.8666
1771.5543,1134.0574
1773.4115,661.4257
1775.2688,756.7253
1777.1261,536.5946
1778.9834,676.5357
1780.8407,480.2615
1782.6979,746.3726
1784.5552,937.0088
1786.4125,821.2188
1788.2698,610.7707
1790.1271,474.7299
1791.9844,-136.8074
1793.8416,1026.8125
1795.6989,1542.164
1797.5562,1007.1435
1799.4135,397.2201
1801.2708,348.0199
1803.1281,928.8474
1804.9853,521.7618
1806.8426,566.7025
1808.6999,506.1711
1810.5572,901.1714
1812.4145,791.6619
1814.2717,116.1263
1816.129,-56.099
1817.9863,957.8755
1819.8436,518.7368
1821.7009,793.8897
1823.5582,544.4352
1825.4154,1204.8335
1827.2727,337.5516
1829.13,649.403
1830.9873,800.6132
1832.8446,316.4978
1834.7019,348.9667
1836.5591,543.3366
1838.4164,585.1547
1840.2737,-7.321
1842.131,337.5043
1843.9883,60.7463
1845.8456,683.1881
1847.7028,243.276
1849.5601,769.6629
1851.4174,419.7612
1853.2747,200.3642
1855.132,279.2148
1856.9892,126.1146
1858.8465,199.6199
1860.7038,-20.6349
1862.5611,151.1162
1864.4184,359.5953
1866.2757,353.2915
1868.1329,153.2415
1869.9902,297.6078
1871.8475,515.2431
1873.7048,849.5168
1875.5621,463.114
1877.4194,66.4185
1879.2766,709.8596
1881.1339,251.4748
1882.9912,37.2905
1884.8485,930.2976
1886.7058,651.9089
1888.563,-138.3267
1890.4203,302.5919
1892.2776,1560.0089
1894.1349,161.5813
1895.9922,495.637
1897.8495,-21.6399
1899.7067,694.7539
1901.564,418.7741
1903.4213,750.8475
1905.2786,58.7352
1907.1359,91.4321
1908.9932,-370.4137
1910.8504,-185.345
1912.7077,457.9771
1914.565,811.4965
1916.4223,347.2539
1918.2796,713.3475
1920.1369,107.666
1921.9941,1017.3763
1923.8514,106.2169
1925.7087,240.6298
1927.566,487.9225
1929.4233,293.6532
1931.2805,582.0108
1933.1378,347.5264
1934.9951,828.0398
1936.8524,536.5526
1938.7097,-106.9399
1940.567,1011.2285
1942.4242,205.2606
1944.2815,1004.0035
1946.1388,422.9039
1947.9961,241.9658
1949.8534,-520.6393
1951.7107,80.8134
1953.5679,283.0577
1955.4252,303.8522
1957.2825,353.0263
1959.1398,319.4659
1960.9971,-494.65
1962.8543,-314.8559
1964.7116,870.5222
1966.5689,326.9056
1968.4262,290.8907
1970.2835,-56.5866
1972.1408,-112.9362
1973.998,957.0223
1975.8553,567.7766
1977.7126,429.022
1979.5699,-237.1365
1981.4272,155.3261
1983.2845,-254.1845
1985.1417,18.4757
1986.999,10.0165
1988.8563,517.6504
1990.7136,-347.8564
1992.5709,672.1682
1994.4282,334.6045
1996.2854,925.1546
1998.1427,-140.1383
2000.0,106.8613
