raman_shift_cm-1,intensity
100.0,-74.4818
101.8573,-479.8874
103.7146,322.1163
105.5718,144.3436
107.4291,-26.5359
109.2864,-1529.4871
111.1437,620.5337
113.001,950.0346
114.8583,1522.3874
116.7155,1700.5831
118.5728,1002.253
120.4301,46.0453
122.2874,1130.2125
124.1447,658.5116
126.002,-533.8404
127.8592,651.5542
129.7165,1760.2612
131.5738,46.7678
133.4311,-384.9865
135.2884,-293.1672
137.1457,-431.4163
139.0029,-142.9869
140.8602,-67.4576
142.7175,972.3189
144.5748,-11.04
146.4321,-304.7581
148.2893,1626.7996
150.1466,263.7696
152.0039,576.9792
153.8612,-303.0791
155.7185,725.2372
157.5758,1727.6826
159.433,726.7459
161.2903,206.2496
163.1476,910.5971
165.0049,719.6282
166.8622,91.6266
168.7195,-107.9298
170.5767,-171.5044
172.434,-30.6387
174.2913,1025.4068
176.1486,391.5547
178.0059,157.8833
179.8631,-383.1221
181.7204,1710.2522
183.5777,636.8303
185.435,-797.3852
187.2923,194.0612
189.1496,1269.6138
191.0068,725.3979
192.8641,-749.0101
194.7214,792.1324
196.5787,1007.2163
198.436,2823.4024
200.2933,-848.9555
202.1505,949.0013
204.0078,89.4354
205.8651,-326.7759
207.7224,-343.8229
209.5797,1012.2895
211.437,504.5406
213.2942,424.8987
215.1515,5.3455
217.0088,488.2343
218.8661,10.6717
220.7234,68.3474
222.5806,-247.3884
224.4379,495.1441
226.2952,-769.8504
228.1525,531.4276
230.0098,15.4443
231.8671,939.4407
233.7243,410.6341
235.5816,433.8507
237.4389,1507.9555
239.2962,636.6636
241.1535,-300.111
243.0108,9.7716
244.868,239.1317
246.7253,10.1356
248.5826,197.9763
250.4399,-419.2041
252.2972,-65.9499
254.1544,553.2926
256.0117,-94.4973
257.869,800.7456
259.7263,87.6079
261.5836,-16.0638
263.4409,335.1426
265.2981,79.4017
267.1554,572.4995
269.0127,1537.7702
270.87,-471.2567
272.7273,1551.3613
274.5846,612.318
276.4418,889.3304
278.2991,-620.4606
280.1564,79.3813
282.0137,709.9204
283.871,-310.165
285.7283,101.5356
287.5855,-91.3768
289.4428,531.9587
291.3001,2203.8027
293.1574,470.6425
295.0147,600.7705
296.8719,599.9734
298.7292,527.845
300.5865,423.08
302.4438,2010.769
304.3011,1122.5043
306.1584,1056.7225
308.0156,-649.8548
309.8729,3110.0975
311.7302,1066.547
313.5875,1051.168
315.4448,443.5733
317.3021,447.9903
319.1593,-517.5549
321.0166,1766.6652
322.8739,-395.8669
324.7312,589.7362
326.5885,441.9998
328.4457,622.4724
330.303,1004.1376
332.1603,780.1004
334.0176,1744.4952
335.8749,503.1567
337.7322,318.7119
339.5894,-41.915
341.4467,728.0875
343.304,-753.9257
345.1613,1006.0239
347.0186,-603.5515
348.8759,570.8115
350.7331,1732.1183
352.5904,-1104.1655
354.4477,-1491.1707
356.305,934.1881
358.1623,-1133.9211
360.0196,63.2906
361.8768,749.5375
363.7341,421.9913
365.5914,-146.1059
367.4487,-299.103
369.306,1425.0099
371.1632,1524.7695
373.0205,934.7398
374.8778,1306.6689
376.7351,1687.1217
378.5924,-620.9123
380.4497,390.8595
382.3069,-544.5324
384.1642,-151.7074
386.0215,1126.1246
387.8788,1476.4276
389.7361,-296.1143
391.5934,-245.2416
393.4506,-348.0664
395.3079,294.3715
397.1652,69.0862
399.0225,765.4408
400.8798,640.3988
402.737,-561.1203
404.5943,865.2216
406.4516,936.4118
408.3089,-615.3463
410.1662,329.0636
412.0235,484.1938
413.8807,259.3626
415.738,1343.4943
417.5953,1702.3682
419.4526,-5.3621
421.3099,1849.8778
423.1672,1220.3163
425.0244,876.2167
426.8817,1353.0217
428.739,-144.7685
430.5963,-109.9017
432.4536,855.3439
434.3109,1154.2964
436.1681,725.7416
438.0254,256.6379
439.8827,589.7945
441.74,409.204
443.5973,-599.1241
445.4545,23.2849
447.3118,713.2931
449.1691,187.8449
451.0264,-200.9977
452.8837,-77.9801
454.741,1390.9168
456.5982,285.9032
458.4555,100.3851
460.3128,1081.0606
462.1701,506.4934
464.0274,298.4146
465.8847,1007.8045
467.7419,345.4564
469.5992,436.007
471.4565,128.5684
473.3138,1520.3245
475.1711,150.6172
477.0283,461.2817
478.8856,540.1502
480.7429,68.1359
482.6002,910.1359
484.4575,355.5413
486.3148,636.8728
488.172,-472.6579
490.0293,-1086.2364
491.8866,221.8397
493.7439,162.1181
495.6012,872.8846
497.4585,-188.4479
499.3157,905.6818
501.173,1429.8352
503.0303,350.8491
504.8876,-1325.67
506.7449,575.0051
508.6022,1843.1328
510.4594,486.3704
512.3167,-661.112
514.174,483.1348
516.0313,758.327
517.8886,1387.0019
519.7458,397.1476
521.6031,772.3529
523.4604,-64.573
525.3177,-158.6681
527.175,446.3639
529.0323,631.6747
530.8895,345.4371
532.7468,-51.7038
534.6041,416.345
536.4614,-1025.5248
538.3187,-718.9893
540.176,584.097
542.0332,625.6763
543.8905,811.9879
545.7478,313.5115
547.6051,299.2825
549.4624,457.7673
551.3196,395.3015
553.1769,1706.792
555.0342,-561.5906
556.8915,1162.2806
558.7488,69.9083
560.6061,747.3436
562.4633,-601.31
564.3206,-639.6197
566.1779,651.1909
568.0352,2118.4331
569.8925,1145.1193
571.7498,-278.4668
573.607,961.0777
575.4643,824.61
577.3216,881.6859
579.1789,23.5629
581.0362,377.1451
582.8935,0.3388
584.7507,1520.6115
586.608,295.1771
588.4653,281.8578
590.3226,-515.9098
592.1799,613.8855
594.0371,1716.7841
595.8944,-732.8359
597.7517,-17.3091
599.609,280.8503
601.4663,673.5158
603.3236,1595.4572
605.1808,-2.066
607.0381,-473.5388
608.8954,2141.0611
610.7527,2565.9627
612.61,1564.085
614.4673,3721.9029
616.3245,5729.3438
618.1818,9836.4575
620.0391,11368.8622
621.8964,13168.3127
623.7537,8173.4876
625.6109,4849.2049
627.4682,3755.0738
629.3255,1518.7211
631.1828,2332.1882
633.0401,97.8683
634.8974,734.172
636.7546,1617.563
638.6119,634.2566
640.4692,-28.1663
642.3265,475.4084
644.1838,-513.0656
646.0411,1320.5528
647.8983,764.1627
649.7556,1138.4265
651.6129,352.6234
653.4702,1064.4407
655.3275,-142.179
657.1848,-28.6431
659.042,46.6979
660.8993,-51.3893
662.7566,1116.3254
664.6139,-631.7489
666.4712,791.2516
668.3284,339.5655
670.1857,72.771
672.043,599.0235
673.9003,557.1
675.7576,2120.4835
677.6149,-394.4058
679.4721,-107.5787
681.3294,791.4818
683.1867,1638.6854
685.044,14.7767
686.9013,-158.9987
688.7586,542.7882
690.6158,1081.8188
692.4731,429.7441
694.3304,820.6058
696.1877,-425.134
698.045,-369.3519
699.9022,-277.7096
701.7595,-401.3647
703.6168,-149.6108
705.4741,-835.4134
707.3314,1211.9788
709.1887,331.1718
711.0459,338.8207
712.9032,-414.3927
714.7605,905.0406
716.6178,676.3579
718.4751,-514.9875
720.3324,-1417.9434
722.1896,-395.894
724.0469,1092.5553
725.9042,99.405
727.7615,900.7601
729.6188,1394.7055
731.4761,-153.3301
733.3333,1156.5439
735.1906,51.2263
737.0479,837.346
738.9052,206.4094
740.7625,-225.2025
742.6197,1339.0086
744.477,-301.9215
746.3343,1187.5487
748.1916,567.1729
750.0489,-155.3361
751.9062,-4.2093
753.7634,1013.2499
755.6207,682.2188
757.478,881.1714
759.3353,534.5326
761.1926,153.1052
763.0499,763.082
764.9071,-337.4721
766.7644,650.8904
768.6217,231.8529
770.479,291.7957
772.3363,1036.2525
774.1935,1166.2051
776.0508,33.6737
777.9081,-381.3014
779.7654,1038.5875
781.6227,-885.1768
783.48,953.7125
785.3372,2478.4962
787.1945,2652.0737
789.0518,2247.1382
790.9091,3363.1088
792.7664,3736.9878
794.6237,5714.4532
796.4809,5139.6966
798.3382,6445.0595
800.1955,3305.6995
802.0528,2973.2026
803.9101,2135.0899
805.7674,797.3723
807.6246,1896.9106
809.4819,1341.5069
811.3392,1019.7972
813.1965,1202.2495
815.0538,945.0094
816.911,1531.4565
818.7683,600.8382
820.6256,-146.5856
822.4829,-317.9049
824.3402,13.1784
826.1975,980.9761
828.0547,1145.5825
829.912,1092.0642
831.7693,1383.1938
833.6266,628.5122
835.4839,-1050.8756
837.3412,-38.29
839.1984,10.293
841.0557,313.0865
842.913,-44.9745
844.7703,841.5824
846.6276,765.5611
848.4848,1308.7673
850.3421,1088.9702
852.1994,769.0702
854.0567,825.5979
855.914,541.6552
857.7713,968.6781
859.6285,855.6053
861.4858,305.7544
863.3431,1556.7056
865.2004,1126.3037
867.0577,108.6252
868.915,557.2912
870.7722,1321.3817
872.6295,1283.6366
874.4868,241.9872
876.3441,-136.2253
878.2014,1267.0633
880.0587,2216.9843
881.9159,1102.4181
883.7732,1192.4592
885.6305,-128.6226
887.4878,461.3494
889.3451,1379.2654
891.2023,-1.9323
893.0596,-842.4697
894.9169,579.1929
896.7742,878.6614
898.6315,48.7686
900.4888,1836.4486
902.346,510.5252
904.2033,1219.0578
906.0606,862.5369
907.9179,-406.1355
909.7752,929.2998
911.6325,-590.4706
913.4897,-235.1584
915.347,-216.8008
917.2043,1977.7598
919.0616,1431.572
920.9189,638.5897
922.7761,1540.0157
924.6334,561.0816
926.4907,-132.6145
928.348,-336.1593
930.2053,540.0746
932.0626,-81.9763
933.9198,165.5494
935.7771,925.2334
937.6344,-885.8799
939.4917,365.5666
941.349,585.8532
943.2063,-408.7321
945.0635,891.013
946.9208,1796.7359
948.7781,-28.0691
950.6354,1441.2512
952.4927,2270.9028
954.35,-121.9827
956.2072,1478.1699
958.0645,685.4318
959.9218,220.5784
961.7791,1718.9312
963.6364,-337.1439
965.4936,1531.8159
967.3509,-355.7355
969.2082,205.6092
971.0655,806.297
972.9228,2211.7855
974.7801,1158.8805
976.6373,2594.4024
978.4946,-70.9039
980.3519,1348.4556
982.2092,1502.4465
984.0665,996.6263
985.9238,1550.5661
987.781,2892.4939
989.6383,4390.7406
991.4956,4521.8192
993.3529,5883.2349
995.2102,9648.8424
997.0674,14084.0323
998.9247,25059.7396
1000.782,40256.3905
1002.6393,35973.4521
1004.4966,21663.5586
1006.3539,10893.4691
1008.2111,6439.4238
1010.0684,5766.0197
1011.9257,5411.4586
1013.783,2846.2182
1015.6403,3020.0436
1017.4976,3162.549
1019.3548,3134.1781
1021.2121,3778.0098
1023.0694,5145.0754
1024.9267,6959.0188
1026.784,7681.2605
1028.6413,15141.5878
1030.4985,23668.2504
1032.3558,25324.0492
1034.2131,17768.2845
1036.0704,11278.2518
1037.9277,6876.1658
1039.7849,4801.9608
1041.6422,4338.1289
1043.4995,1382.6964
1045.3568,833.4048
1047.2141,2767.2456
1049.0714,35.914
1050.9286,990.9053
1052.7859,479.6661
1054.6432,1357.4311
1056.5005,1376.9922
1058.3578,555.6307
1060.2151,225.3077
1062.0723,-506.4048
1063.9296,1327.8706
1065.7869,1048.5735
1067.6442,-920.3019
1069.5015,736.3614
1071.3587,148.1871
1073.216,873.1301
1075.0733,927.9454
1076.9306,1576.3908
1078.7879,135.6951
1080.6452,833.8916
1082.5024,1230.5006
1084.3597,947.773
1086.217,559.2102
1088.0743,270.346
1089.9316,-63.2481
1091.7889,528.0882
1093.6461,379.7285
1095.5034,-793.9112
1097.3607,-237.7586
1099.218,923.3269
1101.0753,349.4166
1102.9326,1129.0607
1104.7898,827.6252
1106.6471,83.974
1108.5044,426.0141
1110.3617,590.4024
1112.219,-128.1219
1114.0762,2205.2519
1115.9335,-312.4437
1117.7908,-218.7562
1119.6481,73.1866
1121.5054,1357.8202
1123.3627,-1108.6206
1125.2199,535.1382
1127.0772,979.8578
1128.9345,438.6167
1130.7918,-643.6729
1132.6491,-179.6455
1134.5064,1693.2066
1136.3636,29.4142
1138.2209,1982.2475
1140.0782,677.3617
1141.9355,2543.4372
1143.7928,1587.7854
1145.65,1246.8953
1147.5073,3486.3554
1149.3646,5711.8263
1151.2219,6390.1355
1153.0792,9006.7655
1154.9365,11520.5543
1156.7937,10153.2647
1158.651,8154.8949
1160.5083,4769.8253
1162.3656,2934.9604
1164.2229,2916.8889
1166.0802,2455.1858
1167.9374,847.7063
1169.7947,1510.7853
1171.652,1044.7644
1173.5093,1397.2383
1175.3666,1263.2693
1177.2239,2413.6584
1179.0811,459.1002
1180.9384,-159.4405
1182.7957,-732.4515
1184.653,1451.7971
1186.5103,708.8316
1188.3675,607.1674
1190.2248,223.7634
1192.0821,1196.6212
1193.9394,740.0269
1195.7967,-696.4165
1197.654,20.4345
1199.5112,1074.7207
1201.3685,-291.8929
1203.2258,936.0836
1205.0831,532.7745
1206.9404,47.1632
1208.7977,68.8308
1210.6549,167.1758
1212.5122,1369.4417
1214.3695,2307.0256
1216.2268,665.0293
1218.0841,775.5985
1219.9413,1836.221
1221.7986,344.2742
1223.6559,1387.4252
1225.5132,899.7621
1227.3705,113.7407
1229.2278,47.9848
1231.085,537.353
1232.9423,610.237
1234.7996,726.8451
1236.6569,26.7713
1238.5142,-419.1828
1240.3715,480.1107
1242.2287,-944.3067
1244.086,603.9693
1245.9433,113.797
1247.8006,875.758
1249.6579,1751.705
1251.5152,-743.7777
1253.3724,2044.0446
1255.2297,98.5013
1257.087,-527.0803
1258.9443,508.2062
1260.8016,1486.9949
1262.6588,-320.8957
1264.5161,152.9918
1266.3734,546.0678
1268.2307,-621.5255
1270.088,-167.0024
1271.9453,90.6532
1273.8025,-175.8455
1275.6598,-142.4328
1277.5171,519.6489
1279.3744,308.7227
1281.2317,761.0477
1283.089,107.1292
1284.9462,336.7771
1286.8035,115.4107
1288.6608,1573.0129
1290.5181,-312.1442
1292.3754,-656.2303
1294.2326,494.6497
1296.0899,457.1642
1297.9472,1461.0046
1299.8045,1318.433
1301.6618,72.5679
1303.5191,1631.3942
1305.3763,615.8122
1307.2336,651.0024
1309.0909,258.72
1310.9482,320.7681
1312.8055,873.1024
1314.6628,-594.1856
1316.52,-672.8028
1318.3773,-186.7737
1320.2346,244.4456
1322.0919,133.0589
1323.9492,904.9735
1325.8065,75.5971
1327.6637,-624.4323
1329.521,806.013
1331.3783,171.6377
1333.2356,1656.6158
1335.0929,528.3812
1336.9501,-218.8558
1338.8074,-144.8403
1340.6647,1360.912
1342.522,-908.5891
1344.3793,-14.2038
1346.2366,-1267.9812
1348.0938,624.5583
1349.9511,-442.3544
1351.8084,2082.8018
1353.6657,-590.6496
1355.523,935.7691
1357.3803,1416.2579
1359.2375,239.5814
1361.0948,444.7198
1362.9521,-664.0459
1364.8094,191.5841
1366.6667,1507.9532
1368.5239,157.4852
1370.3812,1748.6599
1372.2385,-1155.385
1374.0958,909.9448
1375.9531,82.1408
1377.8104,-744.7054
1379.6676,64.4489
1381.5249,362.7439
1383.3822,-1433.4335
1385.2395,1717.337
1387.0968,-188.3315
1388.9541,130.4476
1390.8113,861.6655
1392.6686,34.1845
1394.5259,320.3555
1396.3832,968.3019
1398.2405,-1909.7677
1400.0978,-726.6994
1401.955,-27.8961
1403.8123,603.0874
1405.6696,177.7886
1407.5269,1087.2316
1409.3842,605.4548
1411.2414,1842.1515
1413.0987,1081.6689
1414.956,1036.4363
1416.8133,1496.9858
1418.6706,1476.1385
1420.5279,865.076
1422.3851,666.9592
1424.2424,2180.6601
1426.0997,1256.0569
1427.957,1302.6647
1429.8143,2176.6527
1431.6716,-296.9066
1433.5288,1462.2763
1435.3861,2084.965
1437.2434,2336.5892
1439.1007,3108.156
1440.958,4986.0583
1442.8152,4858.7595
1444.6725,9145.3328
1446.5298,8810.7771
1448.3871,11174.4357
1450.2444,15320.4613
1452.1017,13425.7502
1453.9589,9954.0234
1455.8162,9484.1082
1457.6735,6187.1
1459.5308,5029.066
1461.3881,4452.3368
1463.2454,2301.7384
1465.1026,1611.503
1466.9599,1739.2022
1468.8172,1459.2974
1470.6745,2664.4811
1472.5318,1136.0378
1474.3891,1451.9659
1476.2463,1608.4853
1478.1036,1769.7677
1479.9609,628.8494
1481.8182,2562.8869
1483.6755,12.4732
1485.5327,1428.8141
1487.39,1216.4558
1489.2473,376.3754
1491.1046,952.1594
1492.9619,770.2757
1494.8192,1840.5704
1496.6764,818.0348
1498.5337,129.4022
1500.391,1468.614
1502.2483,151.7593
1504.1056,438.4081
1505.9629,857.6688
1507.8201,645.7803
1509.6774,235.6863
1511.5347,-156.6056
1513.392,1365.6971
1515.2493,156.3435
1517.1065,-1161.8985
1518.9638,302.87
1520.8211,421.2489
1522.6784,761.5736
1524.5357,1475.6867
1526.393,-419.6034
1528.2502,1115.9366
1530.1075,578.8263
1531.9648,239.5344
1533.8221,-159.9588
1535.6794,-69.2057
1537.5367,999.4156
1539.3939,-154.7949
1541.2512,962.8293
1543.1085,1960.7073
1544.9658,1195.8726
1546.8231,-253.9652
1548.6804,1762.3969
1550.5376,238.8257
1552.3949,-724.3177
1554.2522,1029.9996
1556.1095,900.0781
1557.9668,1022.0785
1559.824,638.6234
1561.6813,3029.8639
1563.5386,1682.5572
1565.3959,1694.0202
1567.2532,2440.2421
1569.1105,730.7817
1570.9677,2477.1889
1572.825,3245.4423
1574.6823,3816.9287
1576.5396,4309.2641
1578.3969,8419.7236
1580.2542,10554.9097
1582.1114,13224.6975
1583.9687,12784.6968
1585.826,11860.7556
1587.6833,7679.0809
1589.5406,6578.1703
1591.3978,5234.5047
1593.2551,6251.5131
1595.1124,7541.9314
1596.9697,8734.4144
1598.827,14568.0803
1600.6843,19759.6598
1602.5415,21232.2595
1604.3988,16530.2087
1606.2561,12640.8503
1608.1134,7661.081
1609.9707,5142.1511
1611.828,4251.0248
1613.6852,2666.7953
1615.5425,2385.0954
1617.3998,3086.8068
1619.2571,947.2118
1621.1144,1811.1442
1622.9717,628.7898
1624.8289,1146.1948
1626.6862,1650.1152
1628.5435,1980.123
1630.4008,-640.8183
1632.2581,1089.6603
1634.1153,1244.2032
1635.9726,29.138
1637.8299,287.8624
1639.6872,-560.5904
1641.5445,-440.961
1643.4018,-30.0323
1645.259,358.7976
1647.1163,632.886
1648.9736,699.564
1650.8309,-332.761
1652.6882,-475.0372
1654.5455,-327.3615
1656.4027,1066.8009
1658.26,666.8221
1660.1173,1530.6772
1661.9746,-293.4626
1663.8319,-814.8712
1665.6891,928.532
1667.5464,1278.2572
1669.4037,-634.0823
1671.261,27.3544
1673.1183,-40.1507
1674.9756,210.6199
1676.8328,476.8859
1678.6901,-235.4754
1680.5474,432.1133
1682.4047,1185.5079
1684.262,85.7331
1686.1193,719.4029
1687.9765,-92.5345
1689.8338,1482.3306
1691.6911,208.0295
1693.5484,1776.9101
1695.4057,1396.1662
1697.263,-488.5402
1699.1202,232.1728
1700.9775,144.5259
1702.8348,1649.3321
1704.6921,-581.3492
1706.5494,296.7197
1708.4066,337.7123
1710.2639,2517.7108
1712.1212,-6.5657
1713.9785,6.3832
1715.8358,-882.9396
1717.6931,2334.4154
1719.5503,1026.8845
1721.4076,-858.9069
1723.2649,1069.9038
1725.1222,619.3484
1726.9795,129.1639
1728.8368,58.9877
1730.694,549.3959
1732.5513,-256.0237
1734.4086,-641.6087
1736.2659,645.5771
1738.1232,813.9549
1739.9804,118.7977
1741.8377,311.3474
1743.695,-949.8895
1745.5523,42.849
1747.4096,1857.6958
1749.2669,202.6874
1751.1241,1248.3238
1752.9814,75.0676
1754.8387,-829.5361
1756.696,-71.311
1758.5533,-1073.0416
1760.4106,366.6916
1762.2678,-1158.2205
1764.1251,798.8788
1765.9824,20.9755
1767.8397,1842.3409
1769.697,1825.4866
1771.5543,-306.3898
1773.4115,-386.412
1775.2688,1056.5413
1777.1261,178.2226
1778.9834,785.3335
1780.8407,40.8214
1782.6979,147.4976
1784.5552,389.8356
1786.4125,-186.7154
1788.2698,1010.6081
1790.1271,8.933
1791.9844,982.0507
1793.8416,-404.2265
1795.6989,-1846.8986
1797.5562,1204.028
1799.4135,-785.0575
1801.2708,-337.7671
1803.1281,82.0437
1804.9853,664.6934
1806.8426,1801.576
1808.6999,638.6352
1810.5572,306.9101
1812.4145,771.7163
1814.2717,-215.4876
1816.129,-923.8518
1817.9863,-300.8187
1819.8436,-118.9616
1821.7009,-387.9087
1823.5582,397.1836
1825.4154,183.3939
1827.2727,393.2017
1829.13,-1390.5923
1830.9873,380.6342
1832.8446,497.1708
1834.7019,1382.8064
1836.5591,-350.4085
1838.4164,342.2713
1840.2737,70.1885
1842.131,919.2964
1843.9883,-1346.315
1845.8456,-1011.0623
1847.7028,-1087.6175
1849.5601,-315.4943
1851.4174,373.7567
1853.2747,971.8003
1855.132,-384.4144
1856.9892,664.4901
1858.8465,-171.1411
1860.7038,-59.3906
1862.5611,245.7087
1864.4184,1920.4691
1866.2757,410.0808
1868.1329,994.6792
1869.9902,949.1313
1871.8475,130.9952
1873.7048,1567.9413
1875.5621,466.8802
1877.4194,502.3515
1879.2766,-160.5182
1881.1339,788.3796
1882.9912,200.9081
1884.8485,283.2354
1886.7058,1063.7824
1888.563,526.3751
1890.4203,465.7592
1892.2776,-601.8473
1894.1349,450.1193
1895.9922,-824.3026
1897.8495,-778.2763
1899.7067,-703.2203
1901.564,-143.727
1903.4213,1209.6765
1905.2786,-811.7386
1907.1359,19.9664
1908.9932,-395.9463
1910.8504,60.3872
1912.7077,24.2987
1914.565,457.812
1916.4223,-318.7212
1918.2796,-392.4144
1920.1369,-186.0275
1921.9941,734.8849
1923.8514,481.614
1925.7087,470.5408
1927.566,-765.0262
1929.4233,-652.7624
1931.2805,-41.316
1933.1378,203.301
1934.9951,1485.6891
1936.8524,-98.6771
1938.7097,-215.3475
1940.567,442.1785
1942.4242,-160.3521
1944.2815,476.9284
1946.1388,1288.8591
1947.9961,-518.6789
1949.8534,39.2706
1951.7107,860.8092
1953.5679,-646.3167
1955.4252,-331.383
1957.2825,762.6152
1959.1398,-265.0837
1960.9971,1006.1061
1962.8543,571.7732
1964.7116,1461.3841
1966.5689,700.7346
1968.4262,-74.5761
1970.2835,420.3336
1972.1408,2090.4592
1973.998,1482.3906
1975.8553,-1155.8804
1977.7126,104.7878
1979.5699,-288.7385
1981.4272,-182.2443
1983.2845,-761.2605
1985.1417,858.547
1986.999,489.3064
1988.8563,534.6374
1990.7136,673.0797
1992.5709,744.7487
1994.4282,302.8657
1996.2854,648.2655
1998.1427,-578.9265
2000.0,-156.2544
