pixel_index,raman_shift_cm-1,intensity
0,200.000,0.013819399656587692
1,201.000,0.012938027037561278
2,202.000,0.012614903030561135
3,203.000,0.012695832645015153
4,204.000,0.013026620890351212
5,205.000,0.013453072775997225
6,206.000,0.014863857628111567
7,207.000,0.013521308259389195
8,208.000,0.013611085794962247
9,209.000,0.01167132668623476
10,210.000,0.011195433220403908
11,211.000,0.011786714238117538
12,212.000,0.01102043818461383
13,213.000,0.008923826060987882
14,214.000,0.007184082272663885
15,215.000,0.006786031061746011
16,216.000,0.005902607585516113
17,217.000,0.006157442046139176
18,218.000,0.007566819171850427
19,219.000,0.007829343559104637
20,220.000,0.006933276844624858
21,221.000,0.009884553431385274
22,222.000,0.012274686592344222
23,223.000,0.013751193268187991
24,224.000,0.015140953691077654
25,225.000,0.01596610689182534
26,226.000,0.014388842811519944
27,227.000,0.01290174568192341
28,228.000,0.013174980847634491
29,229.000,0.011202682223520404
30,230.000,0.009095928900142084
31,231.000,0.010742034176168648
32,232.000,0.010839868626955186
33,233.000,0.01189361717361487
34,234.000,0.012034457262564028
35,235.000,0.011354330724970723
36,236.000,0.00912129473987591
37,237.000,0.007304794625449752
38,238.000,0.00694374696803337
39,239.000,0.005531231644368327
40,240.000,0.005886957547200156
41,241.000,0.006830926827422476
42,242.000,0.006113488642185699
43,243.000,0.006160700441687078
44,244.000,0.00675531894881925
45,245.000,0.007622627338910799
46,246.000,0.009163360238884923
47,247.000,0.010542288759543448
48,248.000,0.011590320784281117
49,249.000,0.013340262016175388
50,250.000,0.015229381611594605
51,251.000,0.015517067818841556
52,252.000,0.016116393564572794
53,253.000,0.015599241785319237
54,254.000,0.01684322470723596
55,255.000,0.01636762286552796
56,256.000,0.015544675220864944
57,257.000,0.013748438549879491
58,258.000,0.011084998408018297
59,259.000,0.008015579878737281
60,260.000,0.00626356462000666
61,261.000,0.005666714523939256
62,262.000,0.007062291758456695
63,263.000,0.008336615193837117
64,264.000,0.01406308457588163
65,265.000,0.01576772653227894
66,266.000,0.016358928021591522
67,267.000,0.017367669496209465
68,268.000,0.015101649480970019
69,269.000,0.013939270645445973
70,270.000,0.011942143254023907
71,271.000,0.011152719891530652
72,272.000,0.011565735951606877
73,273.000,0.011954694420679417
74,274.000,0.012982766705884568
75,275.000,0.011788107487348745
76,276.000,0.010087303331279374
77,277.000,0.008347994616455547
78,278.000,0.007359001922799191
79,279.000,0.007665963854475382
80,280.000,0.007548089547461859
81,281.000,0.009648432184730854
82,282.000,0.012222741534332423
83,283.000,0.013690933793206305
84,284.000,0.014067996320875296
85,285.000,0.013930370183687145
86,286.000,0.013570577681830617
87,287.000,0.014875532591228246
88,288.000,0.015283710722504245
89,289.000,0.015661713777093942
90,290.000,0.015228466403860826
91,291.000,0.014284016810299381
92,292.000,0.014554417291708996
93,293.000,0.015281292937060532
94,294.000,0.014856196482930559
95,295.000,0.013667874152095262
96,296.000,0.01602650686458406
97,297.000,0.017255781354698307
98,298.000,0.015847530356372687
99,299.000,0.016052368419701583
100,300.000,0.015119910914842175
101,301.000,0.014675023136949437
102,302.000,0.014996404390121119
103,303.000,0.013383419458028125
104,304.000,0.011011971341696205
105,305.000,0.00976865133702637
106,306.000,0.011704386589295153
107,307.000,0.012467176216217013
108,308.000,0.011768303816539646
109,309.000,0.012963946845768369
110,310.000,0.01578786716612382
111,311.000,0.015742742367830645
112,312.000,0.016742910210795284
113,313.000,0.015456228141561966
114,314.000,0.015271265678310969
115,315.000,0.017639313729705775
116,316.000,0.017936884349402406
117,317.000,0.01723965335976506
118,318.000,0.01385772492176805
119,319.000,0.012356252385403053
120,320.000,0.012411634396515462
121,321.000,0.010207526941656192
122,322.000,0.009389977478635307
123,323.000,0.0076862135577301675
124,324.000,0.009373037245824072
125,325.000,0.012239823016597574
126,326.000,0.013686333289626821
127,327.000,0.014359014242566848
128,328.000,0.012867839328610957
129,329.000,0.013763451057551416
130,330.000,0.013138074265571547
131,331.000,0.011977969172594144
132,332.000,0.012086625671105723
133,333.000,0.010226647267308936
134,334.000,0.012440007576845468
135,335.000,0.014725353335427748
136,336.000,0.017697676236745657
137,337.000,0.018397378560713457
138,338.000,0.017240219267426526
139,339.000,0.01905820983030321
140,340.000,0.016820665894777077
141,341.000,0.018396675592693163
142,342.000,0.02023638480557965
143,343.000,0.019060091103378942
144,344.000,0.01893034779307768
145,345.000,0.018822148203000624
146,346.000,0.017674021980498694
147,347.000,0.01674791136746701
148,348.000,0.016204833131054246
149,349.000,0.014038258729477853
150,350.000,0.012584342769286532
151,351.000,0.014595716914376484
152,352.000,0.015449109063131232
153,353.000,0.013763258651830987
154,354.000,0.011153651000779355
155,355.000,0.008461194625770177
156,356.000,0.00674648774683017
157,357.000,0.007936581099754016
158,358.000,0.008599368365995777
159,359.000,0.0073377105773000184
160,360.000,0.010267200367786838
161,361.000,0.014264018568972194
162,362.000,0.017731132614864635
163,363.000,0.019172154839919818
164,364.000,0.020126062478702123
165,365.000,0.019791699634723048
166,366.000,0.020652979056525335
167,367.000,0.01926212827383022
168,368.000,0.017235226954229223
169,369.000,0.013002671635908115
170,370.000,0.010106338316114991
171,371.000,0.01011122574455403
172,372.000,0.011346493523924576
173,373.000,0.011343327736161665
174,374.000,0.01256301903480986
175,375.000,0.014401079389187927
176,376.000,0.016700723387538825
177,377.000,0.015542669803729935
178,378.000,0.016618630246782354
179,379.000,0.013746502903765688
180,380.000,0.01213703632297472
181,381.000,0.012136515463181964
182,382.000,0.011340130610624539
183,383.000,0.010704850999777764
184,384.000,0.009502977182678209
185,385.000,0.010670613948327643
186,386.000,0.010801089877493855
187,387.000,0.010946254702891485
188,388.000,0.010462124570045962
189,389.000,0.009971640124073306
190,390.000,0.010053977884282942
191,391.000,0.00935715687610289
192,392.000,0.008415648067933998
193,393.000,0.008213978218963141
194,394.000,0.00772392710531807
195,395.000,0.00836894915574549
196,396.000,0.00955011162338314
197,397.000,0.011378715969995656
198,398.000,0.012566678615440344
199,399.000,0.013913603067100324
200,400.000,0.01504528587221868
201,401.000,0.015444787611017466
202,402.000,0.015194697697484487
203,403.000,0.013021162105950734
204,404.000,0.012270555906028446
205,405.000,0.010066141350259194
206,406.000,0.01106619490448436
207,407.000,0.012684290842304411
208,408.000,0.012458738777149434
209,409.000,0.013580039815285454
210,410.000,0.015663036509664045
211,411.000,0.01974190926834124
212,412.000,0.022859135360782917
213,413.000,0.02188401405551974
214,414.000,0.02124166534725524
215,415.000,0.01713922327866667
216,416.000,0.015893416693347165
217,417.000,0.016103858553121145
218,418.000,0.013916766784570761
219,419.000,0.01417599938672168
220,420.000,0.01331477322644108
221,421.000,0.014498046972242886
222,422.000,0.01313608667549317
223,423.000,0.009410723202432658
224,424.000,0.007028459163918605
225,425.000,0.004194622438628266
226,426.000,0.0054609073060106405
227,427.000,0.007466135327717621
228,428.000,0.007934834723721161
229,429.000,0.009566814624256703
230,430.000,0.011510882999132359
231,431.000,0.013682892867631826
232,432.000,0.013990143813689081
233,433.000,0.014580209125350671
234,434.000,0.01632848733756094
235,435.000,0.014945892424006797
236,436.000,0.01386190050073943
237,437.000,0.012794797378713111
238,438.000,0.008988666906900394
239,439.000,0.008153775581045825
240,440.000,0.00852518266629056
241,441.000,0.008631091784373216
242,442.000,0.007831554572342102
243,443.000,0.010006637352374347
244,444.000,0.012346896062203676
245,445.000,0.012675734868853428
246,446.000,0.014870154224622284
247,447.000,0.016937614289068356
248,448.000,0.01732455223437333
249,449.000,0.01783663010424348
250,450.000,0.018449515730354835
251,451.000,0.015557394670572568
252,452.000,0.013541055728880721
253,453.000,0.01313415228304332
254,454.000,0.011568623667176212
255,455.000,0.011402436454241579
256,456.000,0.010951002832433065
257,457.000,0.010370628861752782
258,458.000,0.009853403069041691
259,459.000,0.009465818240689225
260,460.000,0.008661694624426727
261,461.000,0.008110326357950337
262,462.000,0.00936188274655952
263,463.000,0.00904383668603566
264,464.000,0.011428328653746583
265,465.000,0.013845406982751926
266,466.000,0.014057563145254793
267,467.000,0.014462020481414605
268,468.000,0.015158136045737765
269,469.000,0.016464007651390694
270,470.000,0.014819868634074189
271,471.000,0.014279717774240615
272,472.000,0.01247281865131898
273,473.000,0.012804876962628447
274,474.000,0.0129675530064987
275,475.000,0.011892761940537523
276,476.000,0.01061803256329165
277,477.000,0.012018148090099474
278,478.000,0.013900129775376618
279,479.000,0.017440230124616752
280,480.000,0.018623141403010423
281,481.000,0.01929669048435461
282,482.000,0.01704368928588538
283,483.000,0.0163506919830498
284,484.000,0.014091004326047079
285,485.000,0.013503900582203781
286,486.000,0.014223312130767869
287,487.000,0.015329737813433554
288,488.000,0.016234289723835796
289,489.000,0.018133657982432324
290,490.000,0.018271341537353377
291,491.000,0.017197882945488328
292,492.000,0.015086054674661904
293,493.000,0.013144814180839867
294,494.000,0.011448265020106665
295,495.000,0.011732569022880099
296,496.000,0.011510867226217443
297,497.000,0.011460235016611087
298,498.000,0.012359800602572992
299,499.000,0.01341319562364466
300,500.000,0.013897217827103415
301,501.000,0.015445066390295041
302,502.000,0.01690100864429115
303,503.000,0.015802825727655696
304,504.000,0.013948630900717953
305,505.000,0.012526810447342383
306,506.000,0.009791423429354683
307,507.000,0.008356693090036069
308,508.000,0.0067479503442679145
309,509.000,0.005872104488828477
310,510.000,0.00710575598074793
311,511.000,0.011112597355211425
312,512.000,0.012562000030698005
313,513.000,0.014900168852142272
314,514.000,0.013442855513128453
315,515.000,0.013848574179062061
316,516.000,0.013569668965130458
317,517.000,0.01160452055455033
318,518.000,0.010882428795768341
319,519.000,0.010318643433403817
320,520.000,0.011213079467881169
321,521.000,0.012742532586405063
322,522.000,0.013019699966749586
323,523.000,0.014692700508839387
324,524.000,0.01442147220572827
325,525.000,0.01761477444741007
326,526.000,0.01875564437872131
327,527.000,0.017036924356199603
328,528.000,0.018166529836686755
329,529.000,0.01584465815711935
330,530.000,0.013971271241150255
331,531.000,0.013583889938139802
332,532.000,0.014418198262735356
333,533.000,0.014531385903487196
334,534.000,0.01368193144493633
335,535.000,0.014681056342336246
336,536.000,0.014151555850319707
337,537.000,0.013547428993482796
338,538.000,0.013940336930360049
339,539.000,0.011993546338065066
340,540.000,0.013314669526488796
341,541.000,0.014202419759887614
342,542.000,0.015528250395366204
343,543.000,0.01579352252739614
344,544.000,0.014738424545206031
345,545.000,0.016728628050702615
346,546.000,0.017245778314885607
347,547.000,0.017055042044308494
348,548.000,0.01467805779632604
349,549.000,0.012473514807609803
350,550.000,0.012873763467524788
351,551.000,0.011796274453722867
352,552.000,0.01142387731431165
353,553.000,0.010753897082531994
354,554.000,0.009569993159365292
355,555.000,0.010220677490851603
356,556.000,0.010325043814347502
357,557.000,0.011718824556277875
358,558.000,0.010484793601782881
359,559.000,0.011161993868991317
360,560.000,0.012529789438735606
361,561.000,0.01320916490116942
362,562.000,0.013072952137273816
363,563.000,0.01218887837547372
364,564.000,0.010731814251108078
365,565.000,0.010768059943056164
366,566.000,0.010817269761649274
367,567.000,0.01175138717391796
368,568.000,0.009926763773389021
369,569.000,0.010273687541576905
370,570.000,0.01148708174898168
371,571.000,0.01271300626755685
372,572.000,0.013567571175671339
373,573.000,0.013000171195643642
374,574.000,0.012422635439100799
375,575.000,0.010746643613906749
376,576.000,0.00997012730566165
377,577.000,0.0073403379232027674
378,578.000,0.0053619286160587485
379,579.000,0.0045429186397960095
380,580.000,0.004469892475833174
381,581.000,0.005908469983982375
382,582.000,0.005790025718863222
383,583.000,0.006917648383143588
384,584.000,0.009576278241911308
385,585.000,0.011437853152385267
386,586.000,0.014982657901927394
387,587.000,0.014365713683838918
388,588.000,0.014598229312848956
389,589.000,0.015283889519652177
390,590.000,0.01346458559717284
391,591.000,0.013907678576016708
392,592.000,0.011024881596752259
393,593.000,0.01178102172669488
394,594.000,0.013177654220680684
395,595.000,0.014902996098212516
396,596.000,0.017921381357613633
397,597.000,0.01921199836242711
398,598.000,0.021302978105449438
399,599.000,0.02340740637039455
400,600.000,0.025363139171912467
401,601.000,0.02860216265927978
402,602.000,0.02883125540773231
403,603.000,0.03088072381684652
404,604.000,0.03138021761952737
405,605.000,0.03274745519446993
406,606.000,0.03339368672173981
407,607.000,0.03402476883541515
408,608.000,0.03263493996386304
409,609.000,0.034023706611430206
410,610.000,0.04117837595510018
411,611.000,0.04863917531846368
412,612.000,0.0577617440527165
413,613.000,0.0704303459529896
414,614.000,0.08792967354402975
415,615.000,0.111720539395984
416,616.000,0.13589842431402055
417,617.000,0.15922123682220862
418,618.000,0.1771510068922417
419,619.000,0.19258633904002892
420,620.000,0.19867282668710246
421,621.000,0.19113656740333107
422,622.000,0.17575425437380393
423,623.000,0.15536982958511106
424,624.000,0.13314495170909907
425,625.000,0.11169700839420243
426,626.000,0.09162508780463988
427,627.000,0.07454615873791078
428,628.000,0.06286141199882572
429,629.000,0.055893285245800214
430,630.000,0.046797536341231634
431,631.000,0.03998249169311058
432,632.000,0.03648638513187479
433,633.000,0.034683551814404294
434,634.000,0.03353626479214846
435,635.000,0.029820400261528848
436,636.000,0.02681869851775679
437,637.000,0.024595207493719216
438,638.000,0.021585926491924045
439,639.000,0.02031607100287937
440,640.000,0.017348985250497186
441,641.000,0.015300207379013279
442,642.000,0.015781339860304573
443,643.000,0.016398734118966977
444,644.000,0.01575993013409589
445,645.000,0.013484898069996283
446,646.000,0.013198633670142821
447,647.000,0.013755301111204668
448,648.000,0.01315521897352119
449,649.000,0.013172783857651338
450,650.000,0.013021137811822635
451,651.000,0.014235258830983121
452,652.000,0.01697116427641923
453,653.000,0.017220679987283462
454,654.000,0.01692427404176756
455,655.000,0.0175262953570498
456,656.000,0.018247534475064303
457,657.000,0.01742135124896723
458,658.000,0.015556708206533782
459,659.000,0.011490518143108629
460,660.000,0.009910951948494284
461,661.000,0.01194076134904238
462,662.000,0.013404549643399957
463,663.000,0.015479075504097403
464,664.000,0.0166864014804888
465,665.000,0.016556042078055555
466,666.000,0.016706795894930945
467,667.000,0.015644404651775495
468,668.000,0.014067215179771907
469,669.000,0.011842776733551757
470,670.000,0.010109897170915642
471,671.000,0.01025805680428536
472,672.000,0.00994548247251406
473,673.000,0.011886166440116584
474,674.000,0.01371305562502185
475,675.000,0.013239078005275766
476,676.000,0.015090347134872839
477,677.000,0.014355875284323241
478,678.000,0.015101703415169232
479,679.000,0.01494974490653197
480,680.000,0.012000834614787811
481,681.000,0.011052249295258278
482,682.000,0.011217544201308431
483,683.000,0.010425515688678397
484,684.000,0.011637815858218799
485,685.000,0.010362879308891949
486,686.000,0.008672811198979141
487,687.000,0.007288009396033615
488,688.000,0.009201879945736988
489,689.000,0.008178907576471162
490,690.000,0.008432775292292053
491,691.000,0.009887315474689738
492,692.000,0.009751435723845247
493,693.000,0.006576603724026827
494,694.000,0.00803428210567791
495,695.000,0.008724710689432735
496,696.000,0.008990413367818688
497,697.000,0.011503702624747458
498,698.000,0.01285914099331764
499,699.000,0.012420895438970573
500,700.000,0.0147583113474885
501,701.000,0.011478980913492427
502,702.000,0.009289944338852003
503,703.000,0.0065400828501988835
504,704.000,0.0060626161508685345
505,705.000,0.007830803592080772
506,706.000,0.009028203818198206
507,707.000,0.01073527751474439
508,708.000,0.01310377415192046
509,709.000,0.012794456110483523
510,710.000,0.013757160088159014
511,711.000,0.012073527695114203
512,712.000,0.01375240628537552
513,713.000,0.014080379463349394
514,714.000,0.014713530299752604
515,715.000,0.01578759726232433
516,716.000,0.015760766006017658
517,717.000,0.01649072756164205
518,718.000,0.016417882107337568
519,719.000,0.014359505508783163
520,720.000,0.013239507805489657
521,721.000,0.01229951059836718
522,722.000,0.01177956314727132
523,723.000,0.010855729282945637
524,724.000,0.011217079992064102
525,725.000,0.008801866338755612
526,726.000,0.009466048348147437
527,727.000,0.009046049014261075
528,728.000,0.009386678380250726
529,729.000,0.01075689386705306
530,730.000,0.009590314425536888
531,731.000,0.01046267807051296
532,732.000,0.009681410196983509
533,733.000,0.009758394288968828
534,734.000,0.01105428026785951
535,735.000,0.00937881068956385
536,736.000,0.009038503456029058
537,737.000,0.007335876863085277
538,738.000,0.007031010949301333
539,739.000,0.007410273178889719
540,740.000,0.004514498867510518
541,741.000,0.0048115216901169445
542,742.000,0.003639170770832145
543,743.000,0.004613318802467128
544,744.000,0.005003737845441802
545,745.000,0.0050520335965501765
546,746.000,0.005648777977058243
547,747.000,0.005253531410019654
548,748.000,0.006656608407478456
549,749.000,0.009326944484658319
550,750.000,0.011226122593610863
551,751.000,0.016210053076961828
552,752.000,0.017537796841400707
553,753.000,0.01817475752741987
554,754.000,0.018311634956748077
555,755.000,0.016923865690780825
556,756.000,0.014517155243378904
557,757.000,0.009539718687712091
558,758.000,0.006547420529220551
559,759.000,0.007263990132347724
560,760.000,0.009755816701226423
561,761.000,0.014417512661392412
562,762.000,0.01439133950882448
563,763.000,0.013302199135075412
564,764.000,0.01336126190467555
565,765.000,0.012464944536618868
566,766.000,0.010083270669769526
567,767.000,0.009695652090881777
568,768.000,0.009336411116577365
569,769.000,0.011054211556911438
570,770.000,0.012740889681623966
571,771.000,0.015712115863490524
572,772.000,0.016651863548342482
573,773.000,0.017315458880122064
574,774.000,0.01904015302016776
575,775.000,0.022609522903654963
576,776.000,0.02379148224725176
577,777.000,0.026616820160325187
578,778.000,0.0268476165649775
579,779.000,0.026732426773339944
580,780.000,0.02684402966976568
581,781.000,0.028999718077184617
582,782.000,0.031199651283453148
583,783.000,0.03396130820457733
584,784.000,0.03681569722869533
585,785.000,0.042514150925078244
586,786.000,0.04580664343504515
587,787.000,0.051181350246518466
588,788.000,0.059792926937405365
589,789.000,0.0690021307400796
590,790.000,0.07904888096579275
591,791.000,0.09210311113633408
592,792.000,0.10283106230101248
593,793.000,0.11418338545693468
594,794.000,0.1200472313701182
595,795.000,0.12262277252128695
596,796.000,0.11877683655704419
597,797.000,0.11389877135004785
598,798.000,0.10645328493455603
599,799.000,0.09651006167405171
600,800.000,0.08386011241948836
601,801.000,0.07472698587356584
602,802.000,0.06505499654300598
603,803.000,0.05688265941335351
604,804.000,0.0480407200359762
605,805.000,0.04153153881842844
606,806.000,0.035793911177132404
607,807.000,0.031165267265687455
608,808.000,0.02792313737190433
609,809.000,0.024113563239900004
610,810.000,0.021310946153918577
611,811.000,0.022487526636900772
612,812.000,0.021518961319526426
613,813.000,0.018223776871736704
614,814.000,0.017403424140604706
615,815.000,0.016716573646339463
616,816.000,0.01609193300025473
617,817.000,0.014734079657783856
618,818.000,0.013735237434724873
619,819.000,0.012757987533946982
620,820.000,0.013354565547510005
621,821.000,0.013564037235626023
622,822.000,0.011290321511526756
623,823.000,0.011120732271551954
624,824.000,0.011680490838420226
625,825.000,0.011210464253370522
626,826.000,0.012130662949909873
627,827.000,0.013395582137268897
628,828.000,0.01222811911915863
629,829.000,0.01433857336717871
630,830.000,0.013158281821063052
631,831.000,0.013386389080581564
632,832.000,0.012731458834871352
633,833.000,0.014223347646083021
634,834.000,0.013130988062197478
635,835.000,0.013319552800105354
636,836.000,0.013741230107467401
637,837.000,0.014570242455751479
638,838.000,0.011770239166251004
639,839.000,0.01085386789503158
640,840.000,0.009619037126992299
641,841.000,0.010883375296227033
642,842.000,0.0104408883815047
643,843.000,0.011215905386645176
644,844.000,0.012165563863631202
645,845.000,0.013295002143760414
646,846.000,0.013101034592467408
647,847.000,0.01383944092781992
648,848.000,0.011097016508242215
649,849.000,0.008882732277540899
650,850.000,0.007129350950457469
651,851.000,0.005500410149375123
652,852.000,0.005297669421956777
653,853.000,0.0053040071699463134
654,854.000,0.006243038771763939
655,855.000,0.008237863923791982
656,856.000,0.01052920848432703
657,857.000,0.011420009841026162
658,858.000,0.01147946676241766
659,859.000,0.012409643918167778
660,860.000,0.013240323198866815
661,861.000,0.013318790998330915
662,862.000,0.014938683655677715
663,863.000,0.013345416874045637
664,864.000,0.0145991296814713
665,865.000,0.016067804213866776
666,866.000,0.015827131929092995
667,867.000,0.014500306762545136
668,868.000,0.014677691560215872
669,869.000,0.015203058785065322
670,870.000,0.015152822809706264
671,871.000,0.0126721238147999
672,872.000,0.011133175738582754
673,873.000,0.00877743341832414
674,874.000,0.008668850278745375
675,875.000,0.008940106328734182
676,876.000,0.008781371277809305
677,877.000,0.010134060888996878
678,878.000,0.013413547578746727
679,879.000,0.014404982212629742
680,880.000,0.014607281946440176
681,881.000,0.014478189643018632
682,882.000,0.013690989589609417
683,883.000,0.013348808321578398
684,884.000,0.013934521148170594
685,885.000,0.013672087280705562
686,886.000,0.012105788482450572
687,887.000,0.010610471631684819
688,888.000,0.010444197848866101
689,889.000,0.008636232622287826
690,890.000,0.007811716947099522
691,891.000,0.006863721615883654
692,892.000,0.005414229664965492
693,893.000,0.004739992963600375
694,894.000,0.006151637871005202
695,895.000,0.006764778375187819
696,896.000,0.008053026378736962
697,897.000,0.007344715789681224
698,898.000,0.007677980682167304
699,899.000,0.007746198012199022
700,900.000,0.009328071466119177
701,901.000,0.010612633082182452
702,902.000,0.012333168443403724
703,903.000,0.012684251447187041
704,904.000,0.014988661740297402
705,905.000,0.017798417500401446
706,906.000,0.0189581026178263
707,907.000,0.015999797185736794
708,908.000,0.013119556437752106
709,909.000,0.011627192303102996
710,910.000,0.010548581071113774
711,911.000,0.010026998834526304
712,912.000,0.008449291990602983
713,913.000,0.007751353599557973
714,914.000,0.007494241143353139
715,915.000,0.007875033260696693
716,916.000,0.006775642455825027
717,917.000,0.004781598219203932
718,918.000,0.006087958048318652
719,919.000,0.007362088435957023
720,920.000,0.0075634926194118835
721,921.000,0.009246423446577617
722,922.000,0.010622820589735169
723,923.000,0.011710664772564121
724,924.000,0.010660458565345785
725,925.000,0.009920060127372888
726,926.000,0.008773179543163855
727,927.000,0.00910421647039609
728,928.000,0.011769411776293847
729,929.000,0.01104539975171058
730,930.000,0.009711052362101113
731,931.000,0.01059631992854734
732,932.000,0.010415412779464311
733,933.000,0.010001789980374258
734,934.000,0.011954658088330515
735,935.000,0.013303250603316762
736,936.000,0.014093439852309304
737,937.000,0.015325866820932352
738,938.000,0.014892558652185493
739,939.000,0.013427809405485082
740,940.000,0.012633889037902937
741,941.000,0.012290677099279345
742,942.000,0.009739987669120287
743,943.000,0.007722021503244156
744,944.000,0.00784177262209499
745,945.000,0.009594262029635826
746,946.000,0.010550732528898736
747,947.000,0.011958157750285563
748,948.000,0.012710560588372881
749,949.000,0.01595445859835983
750,950.000,0.01872973196197286
751,951.000,0.019219483642778534
752,952.000,0.0197876647681318
753,953.000,0.01965246752333138
754,954.000,0.019684763680079556
755,955.000,0.02169552467678983
756,956.000,0.019914412824605526
757,957.000,0.019344329033171407
758,958.000,0.018751155071557796
759,959.000,0.01839632811544528
760,960.000,0.019411550903281796
761,961.000,0.018952825625203746
762,962.000,0.02126720045464816
763,963.000,0.022809810035484497
764,964.000,0.020691081205544158
765,965.000,0.019641314037007297
766,966.000,0.018437662399283586
767,967.000,0.017787098532493783
768,968.000,0.01632020341191816
769,969.000,0.01526720631903645
770,970.000,0.016414803026677853
771,971.000,0.017983712587050376
772,972.000,0.02037056584411431
773,973.000,0.025395169382471352
774,974.000,0.028712644786200777
775,975.000,0.03389683872781568
776,976.000,0.03946948184693532
777,977.000,0.04010443948095975
778,978.000,0.037352862457086564
779,979.000,0.034216565272497834
780,980.000,0.031543005614465026
781,981.000,0.03040587968786716
782,982.000,0.032900155596000534
783,983.000,0.03862557543369962
784,984.000,0.04428897609837382
785,985.000,0.05175243952629229
786,986.000,0.05991272752245776
787,987.000,0.06699453023971524
788,988.000,0.07344831725658257
789,989.000,0.0816834551627632
790,990.000,0.09200811040667528
791,991.000,0.10682926444983051
792,992.000,0.12931663625129197
793,993.000,0.15327644108361663
794,994.000,0.18935314385730218
795,995.000,0.24762887844085027
796,996.000,0.35847821677428227
797,997.000,0.5022675013744896
798,998.000,0.6794521377002252
799,999.000,0.8441020208958925
800,1000.000,0.9581380681331121
801,1001.000,1.0
802,1002.000,0.9595598813955365
803,1003.000,0.8458305336138384
804,1004.000,0.6823388461901392
805,1005.000,0.5065069842362968
806,1006.000,0.3652328626897659
807,1007.000,0.25556377929907603
808,1008.000,0.19897251765891366
809,1009.000,0.1641901605173995
810,1010.000,0.14137516173352813
811,1011.000,0.12178801243026008
812,1012.000,0.10634557292302728
813,1013.000,0.09547919193021401
814,1014.000,0.08749442175718625
815,1015.000,0.08209019029137733
816,1016.000,0.07785535740020944
817,1017.000,0.07616298728281254
818,1018.000,0.07808376414249386
819,1019.000,0.08062856591515552
820,1020.000,0.08562394649390184
821,1021.000,0.08882281051413247
822,1022.000,0.09498934583398605
823,1023.000,0.10412641098230789
824,1024.000,0.12465093507864194
825,1025.000,0.15296541140980024
826,1026.000,0.20025196939027423
827,1027.000,0.2610578463597932
828,1028.000,0.3316918073232687
829,1029.000,0.39610973574251035
830,1030.000,0.44232784851606094
831,1031.000,0.45832548170692566
832,1032.000,0.4409187196118767
833,1033.000,0.39352978942981154
834,1034.000,0.33134558828317806
835,1035.000,0.25925478171676053
836,1036.000,0.19719634137160627
837,1037.000,0.14609411733699518
838,1038.000,0.11421242928239607
839,1039.000,0.0951670055342972
840,1040.000,0.08001164987831177
841,1041.000,0.06966776138373088
842,1042.000,0.060041915928922544
843,1043.000,0.051850487475150385
844,1044.000,0.048749446324625696
845,1045.000,0.043909343484024574
846,1046.000,0.039759833845944205
847,1047.000,0.03654017565599271
848,1048.000,0.034367432261520996
849,1049.000,0.032769126127486066
850,1050.000,0.028486471236932185
851,1051.000,0.02739633936280624
852,1052.000,0.026270780068606888
853,1053.000,0.026423228593154453
854,1054.000,0.027629975703079478
855,1055.000,0.0276927786924423
856,1056.000,0.028794863845855716
857,1057.000,0.0293903426567973
858,1058.000,0.028215945973520114
859,1059.000,0.027155346006558653
860,1060.000,0.023854827725622783
861,1061.000,0.021706410586603754
862,1062.000,0.019954143554652116
863,1063.000,0.020404752909307076
864,1064.000,0.020095994785142894
865,1065.000,0.018995215163975707
866,1066.000,0.018854751044795493
867,1067.000,0.01924945500890478
868,1068.000,0.01854777418664024
869,1069.000,0.0199611497926865
870,1070.000,0.02028690406244114
871,1071.000,0.020127717243023844
872,1072.000,0.02141547107151764
873,1073.000,0.021603992544529754
874,1074.000,0.021034894781396786
875,1075.000,0.01889782529005278
876,1076.000,0.01693024845355626
877,1077.000,0.01679428774286858
878,1078.000,0.01588549914587202
879,1079.000,0.014945738037340678
880,1080.000,0.01692498105832871
881,1081.000,0.015233637380728419
882,1082.000,0.015152090943023508
883,1083.000,0.012992600079298174
884,1084.000,0.012288912993101003
885,1085.000,0.012126431257193765
886,1086.000,0.011332594444351758
887,1087.000,0.010361797760563878
888,1088.000,0.00928636864827918
889,1089.000,0.007222722523191483
890,1090.000,0.005183020674642939
891,1091.000,0.0028007783625564647
892,1092.000,0.004424360559600515
893,1093.000,0.006184662375994322
894,1094.000,0.009651204763153235
895,1095.000,0.015002500799932247
896,1096.000,0.016474001669469236
897,1097.000,0.017230176493715776
898,1098.000,0.01745659926246595
899,1099.000,0.01628726889557609
900,1100.000,0.015646332931716057
901,1101.000,0.017672280221265022
902,1102.000,0.018281366501550465
903,1103.000,0.01890606042616759
904,1104.000,0.020889238450236693
905,1105.000,0.018830944497328625
906,1106.000,0.01628782266967261
907,1107.000,0.013987229250268353
908,1108.000,0.013281181699777364
909,1109.000,0.015137857739914707
910,1110.000,0.01825131160384588
911,1111.000,0.019383307854413157
912,1112.000,0.019443447134043723
913,1113.000,0.018968109851854664
914,1114.000,0.01913992518304417
915,1115.000,0.018628224058901115
916,1116.000,0.01989683351489118
917,1117.000,0.019914138710838733
918,1118.000,0.020792170433810504
919,1119.000,0.021734554844895
920,1120.000,0.021744491977594524
921,1121.000,0.020618109516688396
922,1122.000,0.01929691130976626
923,1123.000,0.01744468372577114
924,1124.000,0.018032144341984004
925,1125.000,0.02172773778385212
926,1126.000,0.022377823863190812
927,1127.000,0.02209030133535656
928,1128.000,0.019921089281635523
929,1129.000,0.017274064688183027
930,1130.000,0.015552802859021875
931,1131.000,0.015689920534372653
932,1132.000,0.017173714484893274
933,1133.000,0.02033517691767923
934,1134.000,0.025007580798289707
935,1135.000,0.030848669286176567
936,1136.000,0.030739234409297628
937,1137.000,0.03215412848424126
938,1138.000,0.02962801863161219
939,1139.000,0.027193949649031383
940,1140.000,0.027884253013006472
941,1141.000,0.03041873914141309
942,1142.000,0.03358944898672261
943,1143.000,0.03888966035684946
944,1144.000,0.04191504113462918
945,1145.000,0.04384461748573332
946,1146.000,0.04805821990587186
947,1147.000,0.05632288608287888
948,1148.000,0.0653221345787681
949,1149.000,0.07913205911924973
950,1150.000,0.09831108050260393
951,1151.000,0.11856486765532946
952,1152.000,0.13781682624739466
953,1153.000,0.15597190803819536
954,1154.000,0.1661716673170722
955,1155.000,0.169242269563005
956,1156.000,0.16871151286659733
957,1157.000,0.15695032937455153
958,1158.000,0.14050800738176045
959,1159.000,0.12144691366283393
960,1160.000,0.10276198840250372
961,1161.000,0.0853058362395855
962,1162.000,0.07109062824297299
963,1163.000,0.062428610209480304
964,1164.000,0.05859743742241067
965,1165.000,0.05437892139452438
966,1166.000,0.052724899580838376
967,1167.000,0.05008332989039036
968,1168.000,0.04754047380603083
969,1169.000,0.04800267525464042
970,1170.000,0.047629496362211414
971,1171.000,0.045613059956340615
972,1172.000,0.047155097785231685
973,1173.000,0.048360791189027474
974,1174.000,0.05259442219685962
975,1175.000,0.057641170800080715
976,1176.000,0.06517749887960439
977,1177.000,0.0766261977269182
978,1178.000,0.08960510618381318
979,1179.000,0.10507039088691533
980,1180.000,0.11756676553278943
981,1181.000,0.12859178813555647
982,1182.000,0.13729956517598293
983,1183.000,0.13823942632764857
984,1184.000,0.13498199752410733
985,1185.000,0.12833817322598223
986,1186.000,0.11600239860847404
987,1187.000,0.10333940536251919
988,1188.000,0.08708850230436585
989,1189.000,0.07094298528016053
990,1190.000,0.05913413965449792
991,1191.000,0.050191152951082056
992,1192.000,0.043597426170933366
993,1193.000,0.037551300149348425
994,1194.000,0.033309602446337246
995,1195.000,0.030248638348367284
996,1196.000,0.02737518703603998
997,1197.000,0.02441655401926098
998,1198.000,0.021810513051623286
999,1199.000,0.020238067524581942
1000,1200.000,0.022033592581141858
1001,1201.000,0.01981617638051218
1002,1202.000,0.020991346450267612
1003,1203.000,0.019870177297890833
1004,1204.000,0.019449281829343166
1005,1205.000,0.018314160039564507
1006,1206.000,0.018047448267201085
1007,1207.000,0.018535402170505765
1008,1208.000,0.020425278211311442
1009,1209.000,0.02110292697989983
1010,1210.000,0.021819010309547353
1011,1211.000,0.01926757058437486
1012,1212.000,0.01880293602709495
1013,1213.000,0.016726169370818614
1014,1214.000,0.015254352376187703
1015,1215.000,0.012994425298353714
1016,1216.000,0.011229428865075122
1017,1217.000,0.012201133254997446
1018,1218.000,0.012336600985818815
1019,1219.000,0.011882491263772823
1020,1220.000,0.01467766540713515
1021,1221.000,0.01329114783504126
1022,1222.000,0.014250446185484768
1023,1223.000,0.014224115416035998
1024,1224.000,0.014924427601027326
1025,1225.000,0.013573218581290422
1026,1226.000,0.013394610734929124
1027,1227.000,0.014764244294651337
1028,1228.000,0.013286488780905291
1029,1229.000,0.013888495284104425
1030,1230.000,0.01698491000633371
1031,1231.000,0.015337557079737512
1032,1232.000,0.016501293375481646
1033,1233.000,0.016098962557860034
1034,1234.000,0.01587867892359458
1035,1235.000,0.012809021369436195
1036,1236.000,0.011621142881523838
1037,1237.000,0.010345815434225981
1038,1238.000,0.009592683029532081
1039,1239.000,0.011552352981795423
1040,1240.000,0.013210933847716296
1041,1241.000,0.012773299638091113
1042,1242.000,0.01421265029433895
1043,1243.000,0.015362574300600264
1044,1244.000,0.014207931670884471
1045,1245.000,0.014618078642927562
1046,1246.000,0.015842317264101735
1047,1247.000,0.013936624981886114
1048,1248.000,0.013298591454058942
1049,1249.000,0.012595306324447761
1050,1250.000,0.01160045659654381
1051,1251.000,0.010333935310983347
1052,1252.000,0.011315670896624361
1053,1253.000,0.012684935208842996
1054,1254.000,0.01278433734664437
1055,1255.000,0.01463030475055103
1056,1256.000,0.015310629544071285
1057,1257.000,0.013759896259429437
1058,1258.000,0.013592433558945974
1059,1259.000,0.013718783805420664
1060,1260.000,0.013318127125514695
1061,1261.000,0.012933539003996198
1062,1262.000,0.01179988049277517
1063,1263.000,0.011425445320829827
1064,1264.000,0.010779855460299031
1065,1265.000,0.010412048133892836
1066,1266.000,0.012415478746449623
1067,1267.000,0.011919572916581554
1068,1268.000,0.012899224612471168
1069,1269.000,0.0121714102686033
1070,1270.000,0.013178278057441968
1071,1271.000,0.012625441575538812
1072,1272.000,0.010788284585703696
1073,1273.000,0.01132618048586827
1074,1274.000,0.010504437463255804
1075,1275.000,0.011403248650426958
1076,1276.000,0.013761082366621984
1077,1277.000,0.011541801272084224
1078,1278.000,0.013680208290873127
1079,1279.000,0.012602787402810484
1080,1280.000,0.014957681294764723
1081,1281.000,0.015653441399319724
1082,1282.000,0.015470054928456285
1083,1283.000,0.015285166356577744
1084,1284.000,0.013396195126393104
1085,1285.000,0.014231603788810986
1086,1286.000,0.014241404350181217
1087,1287.000,0.012967923850480565
1088,1288.000,0.015546042122091736
1089,1289.000,0.015466774464408396
1090,1290.000,0.014799602219508778
1091,1291.000,0.01539626990620319
1092,1292.000,0.015164505580800474
1093,1293.000,0.013695240415667274
1094,1294.000,0.013837681159659825
1095,1295.000,0.012288943222073904
1096,1296.000,0.013734617447714084
1097,1297.000,0.013844215344603575
1098,1298.000,0.014796228166297932
1099,1299.000,0.01306137914919125
1100,1300.000,0.011429620620577695
1101,1301.000,0.011559652018242468
1102,1302.000,0.010162558288780444
1103,1303.000,0.00820976207634485
1104,1304.000,0.006917417585906596
1105,1305.000,0.006860611753091174
1106,1306.000,0.010870596786353555
1107,1307.000,0.011916779333087373
1108,1308.000,0.012461595837444238
1109,1309.000,0.01452195790498466
1110,1310.000,0.017421814002756622
1111,1311.000,0.019031876584304188
1112,1312.000,0.018141154382303737
1113,1313.000,0.0182237612825539
1114,1314.000,0.016634194057390462
1115,1315.000,0.01703821437356796
1116,1316.000,0.01666538283170111
1117,1317.000,0.015168839514224838
1118,1318.000,0.013934514795322815
1119,1319.000,0.013301429939086732
1120,1320.000,0.012822912508128859
1121,1321.000,0.01120916673006207
1122,1322.000,0.008487303775804768
1123,1323.000,0.009307795805676486
1124,1324.000,0.008130569954529168
1125,1325.000,0.010348049358453818
1126,1326.000,0.011382686873710293
1127,1327.000,0.01186923600148294
1128,1328.000,0.0133778280446875
1129,1329.000,0.01345963595924428
1130,1330.000,0.014718354658257885
1131,1331.000,0.01303676155243775
1132,1332.000,0.010437445071909553
1133,1333.000,0.011040817903874626
1134,1334.000,0.010949234410358138
1135,1335.000,0.011883819747791811
1136,1336.000,0.01217527626859264
1137,1337.000,0.011811284088968569
1138,1338.000,0.012748082860981643
1139,1339.000,0.013807809354934522
1140,1340.000,0.014397842104277426
1141,1341.000,0.013516725451747993
1142,1342.000,0.01374903954678982
1143,1343.000,0.016402011826837117
1144,1344.000,0.018416393261265474
1145,1345.000,0.017717426640975975
1146,1346.000,0.01848300451058403
1147,1347.000,0.015203941272991198
1148,1348.000,0.01326292006208963
1149,1349.000,0.009255211449205695
1150,1350.000,0.005826651882770362
1151,1351.000,0.005261968510862268
1152,1352.000,0.00732379928231332
1153,1353.000,0.010543122888924096
1154,1354.000,0.016512111896079384
1155,1355.000,0.01940028826012108
1156,1356.000,0.02097936260716124
1157,1357.000,0.018135038684854866
1158,1358.000,0.015502847264462171
1159,1359.000,0.009739687299290829
1160,1360.000,0.005072027047240493
1161,1361.000,0.002020583633048679
1162,1362.000,0.0
1163,1363.000,0.0014849731887061988
1164,1364.000,0.0055160509006810165
1165,1365.000,0.00690463997483288
1166,1366.000,0.007242641916562925
1167,1367.000,0.006137688428757868
1168,1368.000,0.004557920636716282
1169,1369.000,0.004574771911706308
1170,1370.000,0.005958696644821522
1171,1371.000,0.007615963713380613
1172,1372.000,0.008671939834765087
1173,1373.000,0.0109946223492901
1174,1374.000,0.013457332301159272
1175,1375.000,0.013675026873608684
1176,1376.000,0.013410601047986142
1177,1377.000,0.009894287967875795
1178,1378.000,0.007463923380176502
1179,1379.000,0.008642319861827114
1180,1380.000,0.011764687801386297
1181,1381.000,0.012173870717718308
1182,1382.000,0.014720458831087954
1183,1383.000,0.016268667820561723
1184,1384.000,0.01924517632947081
1185,1385.000,0.02043984487544447
1186,1386.000,0.021380315201267302
1187,1387.000,0.018398832712621774
1188,1388.000,0.01622470453995368
1189,1389.000,0.016271329374112728
1190,1390.000,0.014322056519880054
1191,1391.000,0.00895301515244704
1192,1392.000,0.008874329756687692
1193,1393.000,0.005828217036269537
1194,1394.000,0.00784054502127419
1195,1395.000,0.009272976677192037
1196,1396.000,0.012186246334754796
1197,1397.000,0.013505476014816576
1198,1398.000,0.01618132713377241
1199,1399.000,0.018987162556878483
1200,1400.000,0.019434963225545825
1201,1401.000,0.017328630406682623
1202,1402.000,0.018818156792018426
1203,1403.000,0.016574849076488284
1204,1404.000,0.017615626210086603
1205,1405.000,0.015845029506107996
1206,1406.000,0.014892199712086284
1207,1407.000,0.01402822774664316
1208,1408.000,0.01563409418898494
1209,1409.000,0.016518920514847324
1210,1410.000,0.01568039616734727
1211,1411.000,0.015627449993924278
1212,1412.000,0.017960442187529565
1213,1413.000,0.017830464512222144
1214,1414.000,0.01859424465919554
1215,1415.000,0.017596704549802646
1216,1416.000,0.01979371684340007
1217,1417.000,0.02105866956149552
1218,1418.000,0.02135975118343256
1219,1419.000,0.022525789150685004
1220,1420.000,0.023298234288112903
1221,1421.000,0.02607083483680869
1222,1422.000,0.027037340122636182
1223,1423.000,0.027474594131026
1224,1424.000,0.02954547284520572
1225,1425.000,0.030455607682482743
1226,1426.000,0.032669936611061365
1227,1427.000,0.03163793227480994
1228,1428.000,0.029984602808738138
1229,1429.000,0.03249183083041959
1230,1430.000,0.03684994043952
1231,1431.000,0.04145102745179663
1232,1432.000,0.04271089232799048
1233,1433.000,0.04716320118568892
1234,1434.000,0.052214059091631106
1235,1435.000,0.05656078107007781
1236,1436.000,0.0619556696421696
1237,1437.000,0.06935365663630115
1238,1438.000,0.07714613936933892
1239,1439.000,0.08782830211160877
1240,1440.000,0.10106967798688561
1241,1441.000,0.11502553193252665
1242,1442.000,0.12774195406752079
1243,1443.000,0.1446990633520419
1244,1444.000,0.16210434147112565
1245,1445.000,0.18341128945191792
1246,1446.000,0.205693403282666
1247,1447.000,0.22891182842514515
1248,1448.000,0.24540952982731257
1249,1449.000,0.25841240939956234
1250,1450.000,0.2660549255999122
1251,1451.000,0.2644766139222255
1252,1452.000,0.2487832979521246
1253,1453.000,0.22839872206466444
1254,1454.000,0.2068581609124379
1255,1455.000,0.18267943375497558
1256,1456.000,0.15957180254248482
1257,1457.000,0.1384059641313582
1258,1458.000,0.1187642342336638
1259,1459.000,0.10556675466228778
1260,1460.000,0.09632128736815977
1261,1461.000,0.08734274258780104
1262,1462.000,0.0743805581925163
1263,1463.000,0.06650542760075812
1264,1464.000,0.061616814410318944
1265,1465.000,0.055044938163239826
1266,1466.000,0.04771487013477245
1267,1467.000,0.04362737635828608
1268,1468.000,0.038498457983047116
1269,1469.000,0.03485654162509959
1270,1470.000,0.03377269212312114
1271,1471.000,0.033168623042213775
1272,1472.000,0.032272843707946225
1273,1473.000,0.032162354054078524
1274,1474.000,0.033316770007687964
1275,1475.000,0.030406660847337754
1276,1476.000,0.02838154133197015
1277,1477.000,0.029832012790081085
1278,1478.000,0.025798933154287027
1279,1479.000,0.025164946513875373
1280,1480.000,0.023562651122006607
1281,1481.000,0.02256621025079675
1282,1482.000,0.02369762966341143
1283,1483.000,0.02500497828910332
1284,1484.000,0.025907479771821285
1285,1485.000,0.022469762916488247
1286,1486.000,0.022576732845879178
1287,1487.000,0.023041653484818892
1288,1488.000,0.01954242970914766
1289,1489.000,0.01977684841628364
1290,1490.000,0.016478530712404207
1291,1491.000,0.014818780704888025
1292,1492.000,0.014973000322848899
1293,1493.000,0.015107525740305378
1294,1494.000,0.014300702305458516
1295,1495.000,0.012797454817515496
1296,1496.000,0.014470630673138888
1297,1497.000,0.01649565567723476
1298,1498.000,0.01816741667224607
1299,1499.000,0.019952405563370926
1300,1500.000,0.019907492005162574
1301,1501.000,0.01800222849552372
1302,1502.000,0.01482745576271202
1303,1503.000,0.01245318382445792
1304,1504.000,0.009590085603109885
1305,1505.000,0.006916454339542647
1306,1506.000,0.005488201863932433
1307,1507.000,0.005118271027631109
1308,1508.000,0.006508131064553929
1309,1509.000,0.007361185014916342
1310,1510.000,0.009440105280588442
1311,1511.000,0.010096987287268816
1312,1512.000,0.009471100276530853
1313,1513.000,0.009336317701455758
1314,1514.000,0.010931347955078627
1315,1515.000,0.010288693362949812
1316,1516.000,0.009341041552924392
1317,1517.000,0.010595335314775307
1318,1518.000,0.010941743487064169
1319,1519.000,0.011584149404322588
1320,1520.000,0.013601538618810092
1321,1521.000,0.015207842645114423
1322,1522.000,0.01662030789188771
1323,1523.000,0.017323725596657794
1324,1524.000,0.02053496963734484
1325,1525.000,0.021634279818877986
1326,1526.000,0.022866702592841612
1327,1527.000,0.022380606836372916
1328,1528.000,0.02052517418654224
1329,1529.000,0.019058004536063468
1330,1530.000,0.019619349578997986
1331,1531.000,0.017494129750816777
1332,1532.000,0.019205732147526754
1333,1533.000,0.017401475245072656
1334,1534.000,0.015500203671690648
1335,1535.000,0.014966262857249522
1336,1536.000,0.014488990124835345
1337,1537.000,0.013121691113503735
1338,1538.000,0.013599040813251213
1339,1539.000,0.015769672316874775
1340,1540.000,0.018892182157179086
1341,1541.000,0.01984114742699225
1342,1542.000,0.0214410775387485
1343,1543.000,0.020254469911520405
1344,1544.000,0.019269496358383965
1345,1545.000,0.01987143062474201
1346,1546.000,0.021445927519180542
1347,1547.000,0.02291179404849171
1348,1548.000,0.023582702487539065
1349,1549.000,0.023948288796890826
1350,1550.000,0.024357254026431067
1351,1551.000,0.023554843671771915
1352,1552.000,0.02135400517810021
1353,1553.000,0.01863003554347714
1354,1554.000,0.019264255937323064
1355,1555.000,0.020223708514054115
1356,1556.000,0.023673016489139165
1357,1557.000,0.025837521593883635
1358,1558.000,0.02644693397111733
1359,1559.000,0.027491979888249092
1360,1560.000,0.028341031479839972
1361,1561.000,0.02964623343543348
1362,1562.000,0.030822259578137612
1363,1563.000,0.0315183846611729
1364,1564.000,0.034446683636902224
1365,1565.000,0.03693386356956607
1366,1566.000,0.037983318214955875
1367,1567.000,0.04015612884282495
1368,1568.000,0.04158088283081616
1369,1569.000,0.043559144627238866
1370,1570.000,0.04640901660575152
1371,1571.000,0.05185437617534007
1372,1572.000,0.060141339659830935
1373,1573.000,0.06970520362298152
1374,1574.000,0.07964910144057152
1375,1575.000,0.09271590246487989
1376,1576.000,0.10684286371238962
1377,1577.000,0.12726753811121302
1378,1578.000,0.15150010746695564
1379,1579.000,0.18017058131974523
1380,1580.000,0.2088352853222162
1381,1581.000,0.23359640028089632
1382,1582.000,0.2527040364127447
1383,1583.000,0.25970103224217334
1384,1584.000,0.2551967322470289
1385,1585.000,0.2408852337311223
1386,1586.000,0.2197447232553604
1387,1587.000,0.19874965140499504
1388,1588.000,0.18048649232094705
1389,1589.000,0.16644178557516173
1390,1590.000,0.15733294325888628
1391,1591.000,0.15750304513331215
1392,1592.000,0.16248366993421745
1393,1593.000,0.17320473515990678
1394,1594.000,0.19042525969958762
1395,1595.000,0.21967542968800902
1396,1596.000,0.2660184692700036
1397,1597.000,0.33776082722917516
1398,1598.000,0.42096911258543296
1399,1599.000,0.5167620556814878
1400,1600.000,0.6026189865536415
1401,1601.000,0.6647555358284559
1402,1602.000,0.6883225339971831
1403,1603.000,0.672435807128164
1404,1604.000,0.6127579671686798
1405,1605.000,0.5260971700037683
1406,1606.000,0.4300386732152577
1407,1607.000,0.341292673673305
1408,1608.000,0.26077460830028226
1409,1609.000,0.20542356613860838
1410,1610.000,0.15969330749502758
1411,1611.000,0.12894052813732776
1412,1612.000,0.10837273028961862
1413,1613.000,0.09420084912091553
1414,1614.000,0.07957506719704674
1415,1615.000,0.0694852944153493
1416,1616.000,0.06363365782426189
1417,1617.000,0.05765779346757352
1418,1618.000,0.051795588329596326
1419,1619.000,0.04847226491912287
1420,1620.000,0.0440393640779997
1421,1621.000,0.04287809595828088
1422,1622.000,0.03988039038818152
1423,1623.000,0.03727321753846434
1424,1624.000,0.034494759129362236
1425,1625.000,0.033150332761972975
1426,1626.000,0.03355827484732651
1427,1627.000,0.031222469176184705
1428,1628.000,0.030774033528725705
1429,1629.000,0.027479594028871953
1430,1630.000,0.02583449275924174
1431,1631.000,0.025268402952987695
1432,1632.000,0.02261265715174233
1433,1633.000,0.020241587931675478
1434,1634.000,0.019265596230578084
1435,1635.000,0.017146493276247433
1436,1636.000,0.0159952004627267
1437,1637.000,0.015905989964645442
1438,1638.000,0.016747015422947605
1439,1639.000,0.01635034847699703
1440,1640.000,0.018413559415659198
1441,1641.000,0.020142615407546634
1442,1642.000,0.01970829590600052
1443,1643.000,0.016732432590875302
1444,1644.000,0.01646706143976388
1445,1645.000,0.014438687693223932
1446,1646.000,0.01307780767738542
1447,1647.000,0.015495304111362396
1448,1648.000,0.0169821487555429
1449,1649.000,0.018164047868180693
1450,1650.000,0.019694625409024755
1451,1651.000,0.019193514706121323
1452,1652.000,0.01781146588722691
1453,1653.000,0.014270770902788782
1454,1654.000,0.014646663688365756
1455,1655.000,0.014054074772938225
1456,1656.000,0.013205452613041275
1457,1657.000,0.013537956974798374
1458,1658.000,0.01481429731958146
1459,1659.000,0.015316352893012154
1460,1660.000,0.014750651735234073
1461,1661.000,0.015143550846331106
1462,1662.000,0.014570753049931388
1463,1663.000,0.01239545178429112
1464,1664.000,0.012288626932709122
1465,1665.000,0.010471420436960963
1466,1666.000,0.01030693751296051
1467,1667.000,0.009789555549686342
1468,1668.000,0.011250828273257787
1469,1669.000,0.011562684473616101
1470,1670.000,0.012106238652727605
1471,1671.000,0.0160186112935272
1472,1672.000,0.016361166710881853
1473,1673.000,0.01598132781469533
1474,1674.000,0.01489467753531541
1475,1675.000,0.011704235978038382
1476,1676.000,0.009629129949687192
1477,1677.000,0.005905464229488449
1478,1678.000,0.004087236416800616
1479,1679.000,0.0032824414060579426
1480,1680.000,0.005378082493296643
1481,1681.000,0.00844395436966751
1482,1682.000,0.009301357876206753
1483,1683.000,0.010318474902412852
1484,1684.000,0.01196182901934578
1485,1685.000,0.013150474492481488
1486,1686.000,0.012685062403431443
1487,1687.000,0.013512047319795793
1488,1688.000,0.012796324580985346
1489,1689.000,0.01380251150441122
1490,1690.000,0.014990749734994402
1491,1691.000,0.01534205352289245
1492,1692.000,0.013280844681702146
1493,1693.000,0.009742388548936687
1494,1694.000,0.007981211998682057
1495,1695.000,0.008469809083043676
1496,1696.000,0.011092449778406645
1497,1697.000,0.01322528710699051
1498,1698.000,0.013184653309001638
1499,1699.000,0.013978384510875769
1500,1700.000,0.014617816024278292
1501,1701.000,0.013988089578745507
1502,1702.000,0.012366355961403667
1503,1703.000,0.009217678703766085
1504,1704.000,0.007641002716816556
1505,1705.000,0.009149415681946348
1506,1706.000,0.010019150681396447
1507,1707.000,0.00945719228587561
1508,1708.000,0.00873202578172143
1509,1709.000,0.007134917937342374
1510,1710.000,0.006961875892625482
1511,1711.000,0.006478078053412632
1512,1712.000,0.008180768015480969
1513,1713.000,0.011212278888015263
1514,1714.000,0.014707082954011446
1515,1715.000,0.017837152132965862
1516,1716.000,0.018853986135596194
1517,1717.000,0.017748971597884453
1518,1718.000,0.014235198739828514
1519,1719.000,0.011937449086920314
1520,1720.000,0.008748417290073569
1521,1721.000,0.008144519501361943
1522,1722.000,0.007892609582642734
1523,1723.000,0.00793858330610964
1524,1724.000,0.00902761838608474
1525,1725.000,0.00998258696619058
1526,1726.000,0.009116204979582794
1527,1727.000,0.007064478616214086
1528,1728.000,0.00712759793463429
1529,1729.000,0.008417248779799373
1530,1730.000,0.008165966218344669
1531,1731.000,0.011065998763094569
1532,1732.000,0.013864253174431655
1533,1733.000,0.015113451438356561
1534,1734.000,0.015489590048694653
1535,1735.000,0.015465044108334661
1536,1736.000,0.0133979582952357
1537,1737.000,0.012893386196281347
1538,1738.000,0.012941144975881919
1539,1739.000,0.01226936551460724
1540,1740.000,0.010311741966955628
1541,1741.000,0.010017231494994389
1542,1742.000,0.010256022260823195
1543,1743.000,0.010084657301282926
1544,1744.000,0.008990130671730899
1545,1745.000,0.01003711767122394
1546,1746.000,0.010114539764039159
1547,1747.000,0.010642973618232927
1548,1748.000,0.012157144689915397
1549,1749.000,0.01159920382274291
1550,1750.000,0.00912663250703723
1551,1751.000,0.0073965690559833945
1552,1752.000,0.00790070057670475
1553,1753.000,0.010293284462100712
1554,1754.000,0.012255202798723098
1555,1755.000,0.013741191473864506
1556,1756.000,0.01463873078525756
1557,1757.000,0.016519454782342322
1558,1758.000,0.01750397535415319
1559,1759.000,0.013391350164607803
1560,1760.000,0.010269307900253767
1561,1761.000,0.007048392032860142
1562,1762.000,0.008828147662968782
1563,1763.000,0.008499182008266864
1564,1764.000,0.008454301784965451
1565,1765.000,0.006200249950785399
1566,1766.000,0.007931709595489864
1567,1767.000,0.01055151400806406
1568,1768.000,0.010855099267879524
1569,1769.000,0.009753242829996824
1570,1770.000,0.008741372224885956
1571,1771.000,0.009196671403245225
1572,1772.000,0.012005055570049855
1573,1773.000,0.013556060543395903
1574,1774.000,0.014262260270765034
1575,1775.000,0.013182771163262953
1576,1776.000,0.015977163115120995
1577,1777.000,0.017313711653930784
1578,1778.000,0.018862053738729265
1579,1779.000,0.019680518422209425
1580,1780.000,0.01747582154850292
1581,1781.000,0.01720888461280211
1582,1782.000,0.017847541373798674
1583,1783.000,0.01723717495241797
1584,1784.000,0.015126663872781573
1585,1785.000,0.012358587987948652
1586,1786.000,0.013924423507101165
1587,1787.000,0.015188300416857906
1588,1788.000,0.01813124577004106
1589,1789.000,0.016812916970622295
1590,1790.000,0.01513155864439791
1591,1791.000,0.013088003023340865
1592,1792.000,0.012624279603481682
1593,1793.000,0.012191645503941393
1594,1794.000,0.01130138230130804
1595,1795.000,0.00961775868109868
1596,1796.000,0.010501189688523996
1597,1797.000,0.01197175310224001
1598,1798.000,0.012946323155036807
1599,1799.000,0.012792946680465921
1600,1800.000,0.01408730632773351
1601,1801.000,0.014801652086411494
1602,1802.000,0.016167298153108658
1603,1803.000,0.016626073534169155
1604,1804.000,0.016218184952583446
1605,1805.000,0.01370939968265861
1606,1806.000,0.011780661290794966
1607,1807.000,0.011874606795149262
1608,1808.000,0.01192883499790555
1609,1809.000,0.012748251565883604
1610,1810.000,0.012756170949928215
1611,1811.000,0.013656558682807357
1612,1812.000,0.012833033336294089
1613,1813.000,0.011306687729208764
1614,1814.000,0.012204895859881784
1615,1815.000,0.010233384486015889
1616,1816.000,0.010145216108972408
1617,1817.000,0.010438701385477504
1618,1818.000,0.010599374237005335
1619,1819.000,0.009474428284335848
1620,1820.000,0.010552994260608616
1621,1821.000,0.009924555935031557
1622,1822.000,0.009222459021177628
1623,1823.000,0.009295192272278386
1624,1824.000,0.011736504383720174
1625,1825.000,0.012026868868838506
1626,1826.000,0.012813219476290248
1627,1827.000,0.013014763875496825
1628,1828.000,0.01504980760374408
1629,1829.000,0.016265279020893652
1630,1830.000,0.017980441625490007
1631,1831.000,0.016128836461380337
1632,1832.000,0.016588546690737418
1633,1833.000,0.014922242375076087
1634,1834.000,0.014514760925303006
1635,1835.000,0.012413266205736385
1636,1836.000,0.011176815425045589
1637,1837.000,0.010422423246695088
1638,1838.000,0.012624316728701502
1639,1839.000,0.011640125890442747
1640,1840.000,0.011066437947229038
1641,1841.000,0.009627670724301122
1642,1842.000,0.010827933750010862
1643,1843.000,0.01052320495959823
1644,1844.000,0.011471922767519642
1645,1845.000,0.012520551397201636
1646,1846.000,0.012926529696721815
1647,1847.000,0.013117251617768931
1648,1848.000,0.013705201615476646
1649,1849.000,0.011182651350059363
1650,1850.000,0.012360896756678407
1651,1851.000,0.010103203373095877
1652,1852.000,0.009831646357301606
1653,1853.000,0.009695415011516691
1654,1854.000,0.010471632723423531
1655,1855.000,0.010368815890345131
1656,1856.000,0.009729524758282758
1657,1857.000,0.010839077306395923
1658,1858.000,0.012546513015039961
1659,1859.000,0.014693938005259113
1660,1860.000,0.019196657250413928
1661,1861.000,0.021485450107373863
1662,1862.000,0.024497685544531616
1663,1863.000,0.025612861260787604
1664,1864.000,0.0237078592212467
1665,1865.000,0.019672458070243436
1666,1866.000,0.017621356767711982
1667,1867.000,0.01563071586625475
1668,1868.000,0.014911621298779761
1669,1869.000,0.013783581422175456
1670,1870.000,0.013111805415279974
1671,1871.000,0.014435442074501337
1672,1872.000,0.015164556190737703
1673,1873.000,0.014489800877322602
1674,1874.000,0.011140125514856528
1675,1875.000,0.011532206193099677
1676,1876.000,0.012497461157583274
1677,1877.000,0.012507601180997585
1678,1878.000,0.012874033232060938
1679,1879.000,0.01169144927214005
1680,1880.000,0.012431200869730446
1681,1881.000,0.014403090777926304
1682,1882.000,0.013994407316849245
1683,1883.000,0.013275875306361956
1684,1884.000,0.010976282647567375
1685,1885.000,0.010933573694716293
1686,1886.000,0.008791481401310681
1687,1887.000,0.009271022682878868
1688,1888.000,0.007991914358419809
1689,1889.000,0.009010858396591716
1690,1890.000,0.010814049262037844
1691,1891.000,0.013281954809123812
1692,1892.000,0.014574185185481921
1693,1893.000,0.017144746871429077
1694,1894.000,0.016340134551360512
1695,1895.000,0.016072363144293146
1696,1896.000,0.016249016353610347
1697,1897.000,0.014080699677963977
1698,1898.000,0.011668675830655567
1699,1899.000,0.01107141197880349
1700,1900.000,0.008745636781235591
1701,1901.000,0.008563142064184412
1702,1902.000,0.01031255086005687
1703,1903.000,0.012408583321652997
1704,1904.000,0.013618224169854027
1705,1905.000,0.01465699220211206
1706,1906.000,0.013786485464395563
1707,1907.000,0.010837738933795868
1708,1908.000,0.009415101294773295
1709,1909.000,0.009242228558584007
1710,1910.000,0.009133132064956575
1711,1911.000,0.008977685936325709
1712,1912.000,0.010543126638209676
1713,1913.000,0.01267216120145154
1714,1914.000,0.012619776666982828
1715,1915.000,0.011834944105275236
1716,1916.000,0.012029031179757623
1717,1917.000,0.01350151203985324
1718,1918.000,0.013413515469150789
1719,1919.000,0.015581238911537603
1720,1920.000,0.015532206530468462
1721,1921.000,0.015202946076892888
1722,1922.000,0.017123924372020736
1723,1923.000,0.016444653129532687
1724,1924.000,0.015500986438015518
1725,1925.000,0.014963768126257044
1726,1926.000,0.013947381801247575
1727,1927.000,0.014010142599946969
1728,1928.000,0.014381726216368058
1729,1929.000,0.014149569723355272
1730,1930.000,0.012096004473610951
1731,1931.000,0.012661353793417443
1732,1932.000,0.01562836044197094
1733,1933.000,0.015732354013026986
1734,1934.000,0.018518622893022176
1735,1935.000,0.01922835899494298
1736,1936.000,0.016640576101109104
1737,1937.000,0.01752972141136542
1738,1938.000,0.01808332158980568
1739,1939.000,0.016588583962816466
1740,1940.000,0.014434200094414986
1741,1941.000,0.01596030120633453
1742,1942.000,0.017401977536688523
1743,1943.000,0.016968270494564543
1744,1944.000,0.017807965856420038
1745,1945.000,0.01723730241560304
1746,1946.000,0.012787998286695608
1747,1947.000,0.010043279057456554
1748,1948.000,0.008536919338608746
1749,1949.000,0.007476682782273889
1750,1950.000,0.008205596168614453
1751,1951.000,0.011933303412397164
1752,1952.000,0.01435505412002715
1753,1953.000,0.016512999237512163
1754,1954.000,0.01725012924183385
1755,1955.000,0.01568125127773828
1756,1956.000,0.014726113174348182
1757,1957.000,0.013729069647454963
1758,1958.000,0.014217078561301697
1759,1959.000,0.014868182479879862
1760,1960.000,0.015541588342382989
1761,1961.000,0.017006320642148885
1762,1962.000,0.018111737620394808
1763,1963.000,0.018359717809230177
1764,1964.000,0.017753992125699097
1765,1965.000,0.01700052564855495
1766,1966.000,0.016803192246138833
1767,1967.000,0.016144269625931053
1768,1968.000,0.013393357682946477
1769,1969.000,0.010192245715722522
1770,1970.000,0.008139933510430913
1771,1971.000,0.00689088532726846
1772,1972.000,0.008635964465792102
1773,1973.000,0.009749314252200793
1774,1974.000,0.011456145965768534
1775,1975.000,0.013251270431339522
1776,1976.000,0.014533729115241076
1777,1977.000,0.016283695469693736
1778,1978.000,0.016329871470166787
1779,1979.000,0.01456530512043706
1780,1980.000,0.014980249868956573
1781,1981.000,0.013308948057849825
1782,1982.000,0.015436632359241084
1783,1983.000,0.01484461151642347
1784,1984.000,0.01356731693396528
1785,1985.000,0.012806285624019366
1786,1986.000,0.009933195235574548
1787,1987.000,0.00944656482613378
1788,1988.000,0.006995638426064615
1789,1989.000,0.005985655999261083
1790,1990.000,0.007791093972510172
1791,1991.000,0.007837756835864398
1792,1992.000,0.010254522372019964
1793,1993.000,0.011546179769122507
1794,1994.000,0.012342067993232371
1795,1995.000,0.011069154576209701
1796,1996.000,0.008806091720159242
1797,1997.000,0.007311911926439136
1798,1998.000,0.007490930364794113
1799,1999.000,0.010247462204968843
1800,2000.000,0.016485822616707974
