# kind,background_subtracted
# version_label,v1_poly4
# poly_order,4
# iterations_run,7
pixel_index,raman_shift_cm-1,intensity,background_intensity
0,200.000,0.0,278.2349320050019
1,201.000,0.0,278.6004369224143
2,202.000,3.0125390264322505,278.96912797356777
3,203.000,9.116874691083865,279.34099730891614
4,204.000,0.0,279.71603708474817
5,205.000,0.0,280.09423946318753
6,206.000,0.5256273878071056,280.4755966121929
7,207.000,0.0,280.8601007055577
8,208.000,0.0,281.2477439229105
9,209.000,5.3187395502855,281.6385184497145
10,210.000,0.0,282.03241647726816
11,211.000,0.6582167972955517,282.42943020270445
12,212.000,0.0,282.82955182899155
13,213.000,0.0,283.23277356493253
14,214.000,0.0,283.63908762516525
15,215.000,3.923748769837516,284.0484862301625
16,216.000,2.9143553937678917,284.4609616062321
17,217.000,0.0,284.8765059855167
18,218.000,0.0,285.29511160599384
19,219.000,0.0,285.7167707114761
20,220.000,0.0,286.14147555161077
21,221.000,16.18948561811976,286.56921838188026
22,222.000,0.0,286.99999146360176
23,223.000,4.254133936072549,287.43378706392747
24,224.000,0.0,287.87059745584435
25,225.000,5.644520081825476,288.3104149181745
26,226.000,0.0,288.75323173557473
27,227.000,0.0,289.19904019853686
28,228.000,0.0,289.64783260338766
29,229.000,5.420677747711352,290.09960125228866
30,230.000,0.0,290.55433845323654
31,231.000,7.0109724799373225,291.0120365200627
32,232.000,5.103874227566621,291.4726877724334
33,233.000,0.0,291.9362845358501
34,234.000,0.0,292.402819141649
35,235.000,0.0,292.87228392700115
36,236.000,0.0,293.34467123491254
37,237.000,11.891146585775743,293.81997341422425
38,238.000,15.893660180387997,294.298182819612
39,239.000,7.73650218841334,294.7792918115867
40,240.000,19.740852243506083,295.2632927564939
41,241.000,0.0,295.75017802651433
42,242.000,8.168073000336562,296.2399399996634
43,243.000,8.290704940208343,296.73257105979167
44,244.000,7.822518403415643,297.2280635965844
45,245.000,8.003970994438191,297.72641000556183
46,246.000,4.712700311920742,298.22760268807923
47,247.000,0.0,298.7316340513266
48,248.000,7.136891491671065,299.2384965083289
49,249.000,9.004023522053785,299.7481824779462
50,250.000,11.663200615126698,300.2606843848733
51,251.000,5.837561340360196,300.7759946596398
52,252.000,8.990275261389456,301.29410573861054
53,253.000,14.062262936015031,301.81501006398497
54,254.000,7.668207916202391,302.3387000837976
55,255.000,10.812306748082108,302.8651682519179
56,256.000,5.293776971949853,303.3944070280501
57,257.000,7.952229122266488,303.92640887773354
58,258.000,13.261592727657728,304.46116627234227
59,259.000,7.0907253109146495,304.99867168908537
60,260.000,11.602712388993211,305.5389176110068
61,261.000,5.608173473014517,306.0818965269855
62,262.000,4.226755068264765,306.62760093173523
63,263.000,6.8244676741953185,307.1760233258047
64,264.000,8.890418784422423,307.72715621557757
65,265.000,5.0617308867276165,308.28099211327236
66,266.000,11.240302463057446,308.83752353694257
67,267.000,6.764623989523443,309.39674301047654
68,268.000,14.793684936402428,309.95864306359755
69,269.000,16.109352768136205,310.5232162318638
70,270.000,4.427395943331533,311.0904550566685
71,271.000,4.8091589147605305,311.6603520852395
72,272.000,9.982191129360103,312.23289987063987
73,273.000,14.10157002823263,312.8080909717674
74,274.000,12.987536046645005,313.385917953355
75,275.000,14.220240614029876,313.96637338597014
76,276.000,11.016538153984413,314.5494498460156
77,277.000,8.954486084271196,315.1351399157288
78,278.000,0.0,315.7234361831823
79,279.000,14.43847475771679,316.31433124228323
80,280.000,24.470991307225972,316.907817692774
81,281.000,14.005011859768217,317.50388814023177
82,282.000,11.419927803931444,318.1025351960686
83,283.000,12.930906522468547,318.70375147753145
84,284.000,10.869337392297723,319.3075296077023
85,285.000,10.120684784502032,319.91386221549794
86,286.000,9.425175064329892,320.5227419356701
87,287.000,13.722190591194476,321.13416140880554
88,288.000,10.637231718674286,321.7481132813257
89,289.000,0.0,322.3645902054871
90,290.000,20.23971416061886,322.98358483938114
91,291.000,15.960555153065798,323.6050898469342
92,292.000,3.675626102092565,324.2290978979074
93,293.000,23.997867332103056,324.85560166789696
94,294.000,0.0,325.484593838334
95,295.000,16.277207903515716,326.1160670964843
96,296.000,2.1586878645511547,326.75001413544885
97,297.000,19.65487234583651,327.38642765416347
98,298.000,25.979007642601175,328.0253003573988
99,299.000,6.510237044239432,328.6666249557606
100,300.000,9.2334068343107,329.3103941656893
101,301.000,24.422401290539653,329.95660070946036
102,302.000,19.078659684815875,330.6052373151841
103,303.000,8.40204628319401,331.256296716806
104,304.000,20.461810345893923,331.90977165410607
105,305.000,18.39325012730052,332.5656548726995
106,306.000,11.842858875963714,333.2239391240363
107,307.000,12.875079834598637,333.8846171654014
108,308.000,15.752948240085345,334.54768175991467
109,309.000,18.684550323469125,335.21312567653086
110,310.000,5.6903823099603414,335.88094169003966
111,311.000,10.503425418934341,336.55112258106567
112,312.000,10.12849286393157,337.2236611360684
113,313.000,28.335431852657734,337.8985501473423
114,314.000,13.025130586983323,338.57578241301667
115,315.000,6.847322262944203,339.2553507370558
116,316.000,10.490226070741187,339.93724792925883
117,317.000,6.441988194740134,340.62146680525984
118,318.000,7.322640813472162,341.30800018652786
119,319.000,15.022879099633315,341.9968409003667
120,320.000,20.658947220084656,342.68798177991533
121,321.000,10.230635335852583,343.3814156641474
122,322.000,15.933399602128361,344.07713539787164
123,323.000,16.354489168268458,344.7751338317315
124,324.000,17.38111517779447,345.4754038222055
125,325.000,13.988376768392868,346.17793823160713
126,326.000,14.80830607191541,346.8827299280846
127,327.000,22.17891521437889,347.5897717856211
128,328.000,24.72884931596508,348.2990566840349
129,329.000,16.864889491021074,349.01057750897894
130,330.000,7.283691848058766,349.7243271519412
131,331.000,22.632081489755308,350.4402985102447
132,332.000,13.638619512952914,351.1584844870471
133,333.000,22.252964008658978,351.878877991341
134,334.000,8.267931062045704,352.6014719379543
135,335.000,6.47796175245071,353.3262592475493
136,336.000,12.513678153376418,354.0532328466236
137,337.000,11.388840332490531,354.78238566750946
138,338.000,10.586695351625849,355.5137106483742
139,339.000,28.029756266779884,356.2472007332201
140,340.000,18.32149312811589,356.98284887188413
141,341.000,15.611013979961626,357.72064802003837
142,342.000,21.7123298608102,358.4605911391898
143,343.000,27.11493880331983,359.20267119668017
144,344.000,22.91070983431365,359.94688116568636
145,345.000,22.277819974780016,360.69321402521996
146,346.000,15.468185239872412,361.4416627601276
147,347.000,30.930091638909232,362.1922203610908
148,348.000,16.223513175374023,362.94487982462596
149,349.000,10.300393846915597,363.6996341530844
150,350.000,18.451631645347618,364.4564763546524
151,351.000,17.756820556648847,365.21539944335115
152,352.000,10.542819560963324,365.97639643903665
153,353.000,18.933489632600015,366.7394603674
154,354.000,18.679700740033013,367.504584259967
155,355.000,13.782601845901524,368.2717611540985
156,356.000,19.322637907009778,369.04098409299024
157,357.000,19.0112348743271,369.8122461256729
158,358.000,14.59771869298794,370.5855403070121
159,359.000,19.05492430229185,371.3608596977081
160,360.000,22.55309963570346,372.13819736429656
161,361.000,6.809580620852444,372.91754637914755
162,362.000,21.48119117953354,373.69889982046647
163,363.000,15.171154227706666,374.48225077229336
164,364.000,12.1324386754967,375.2675923245033
165,365.000,16.784851427193757,376.05491757280623
166,366.000,11.553894381252974,376.84421961874705
167,367.000,16.17590143029446,377.63549156970555
168,368.000,22.37246446110362,378.4287265388964
169,369.000,8.323372354630749,379.2239176453692
170,370.000,3.1792079859913542,380.02105801400864
171,371.000,24.709608224465967,380.820140775534
172,372.000,19.6318469335003,381.62115906649973
173,373.000,19.570487970705017,382.424106029295
174,374.000,29.83713318785584,383.22897481214414
175,375.000,12.726352430893826,384.0357585691062
176,376.000,14.271266539924852,384.84445046007517
177,377.000,15.017422349219999,385.65504365078
178,378.000,17.119339687215415,386.46753131278456
179,379.000,16.595994376512465,387.28190662348754
180,380.000,16.12928223387729,388.0981627661227
181,381.000,12.815437070241444,388.9162929297586
182,382.000,27.83559069070128,389.73629030929874
183,383.000,18.781421894518473,390.5581481054815
184,384.000,16.856469475119752,391.38185952488027
185,385.000,24.50099222009669,392.2074177799033
186,386.000,8.646863911206253,393.0348160887937
187,387.000,23.922884324370386,393.8640476756296
188,388.000,10.356015229676075,394.69510577032395
189,389.000,18.836408391375357,395.52798360862465
190,390.000,12.450695567885475,396.36267443211455
191,391.000,21.973544511788646,397.19917148821133
192,392.000,10.76359796983229,398.0374680301677
193,393.000,20.51798168292885,398.87755731707114
194,394.000,14.794677386155797,399.7194326138442
195,395.000,22.73925480875573,400.5630871912443
196,396.000,14.263338674136378,401.4085143258636
197,397.000,12.238267699870562,402.2557073001294
198,398.000,24.299870597696156,403.10465940230387
199,399.000,8.938177073515988,403.95536392648404
200,400.000,19.385843827398276,404.80781417260175
201,401.000,19.621941553575994,405.662003446424
202,402.000,17.407448940447352,406.5179250595526
203,403.000,21.950772670575873,407.37557232942413
204,404.000,17.045371420689662,408.2349385793103
205,405.000,18.52682986168236,409.0960171383176
206,406.000,21.54064465861245,409.9588013413875
207,407.000,19.583232470703592,410.8232845292964
208,408.000,19.230594951344585,411.6894600486554
209,409.000,22.667354748089053,412.55732125191093
210,410.000,9.725670502656158,413.42686149734385
211,411.000,11.49404785092969,414.2980741490703
212,412.000,17.24509942295873,415.17095257704125
213,413.000,24.675246842957506,416.0454901570425
214,414.000,13.838890729305263,416.92168027069476
215,415.000,17.24837169454628,417.7995163054537
216,416.000,23.05546634538996,418.67899165461006
217,417.000,25.91442528271085,419.5600997172892
218,418.000,22.036097101548535,420.44283389845145
219,419.000,21.720147391107616,421.32718760889236
220,420.000,21.677068734757995,422.213154265242
221,421.000,8.200033710034404,423.1007272899656
222,422.000,14.016148888636735,423.9899001113633
223,423.000,19.621076836430063,424.8806661635699
224,424.000,10.228772113444506,425.7730188865555
225,425.000,5.938532273875239,426.66695172612475
226,426.000,8.201972866082485,427.5624581339175
227,427.000,23.639870432591692,428.4595315674083
228,428.000,9.370952510093332,429.3581654899067
229,429.000,22.177263629442734,430.25835337055724
230,430.000,27.734053315660617,431.16008868433937
231,431.000,8.14930008793283,432.0633649120672
232,432.000,16.234987459609897,432.9681755403901
233,433.000,12.202080938207871,433.8745140617921
234,434.000,12.737781025407628,434.78237397459236
235,435.000,12.586564217055411,435.6917487829446
236,436.000,6.222757003161973,436.602631996838
237,437.000,18.59297286790388,437.5150171320961
238,438.000,11.44589728962228,438.4288977103777
239,439.000,18.70185574082359,439.34426725917643
240,440.000,16.009292688179244,440.2611193118208
241,441.000,14.467469592525788,441.1794474074742
242,442.000,14.404956908865017,442.099245091135
243,443.000,14.932407086363526,443.0205059136365
244,444.000,14.47724756835305,443.94322343164697
245,445.000,20.45220779233074,444.86739120766924
246,446.000,18.64978418995844,445.79300281004157
247,447.000,19.04526418706314,446.72005181293684
248,448.000,19.148513203637208,447.6485317963628
249,449.000,19.836175653837643,448.57843634616233
250,450.000,23.789490945986984,449.509759054013
251,451.000,25.19193848257254,450.44249351742747
252,452.000,19.528273660246896,451.3766333397531
253,453.000,22.47219886982765,452.31217213017237
254,454.000,11.314868496297265,453.2491035037027
255,455.000,14.811160918803807,454.1874210811962
256,456.000,20.982967510659932,455.1271184893401
257,457.000,11.074802639343545,456.06818936065645
258,458.000,17.79585266649775,457.01062733350227
259,459.000,19.79277794793063,457.9544260520694
260,460.000,11.334597833615533,458.89957916638446
261,461.000,6.452271667690411,459.8460803323096
262,462.000,13.913219788458832,460.79392321154114
263,463.000,4.328085528389238,461.74310147161077
264,464.000,16.267037214115078,462.6936087858849
265,465.000,13.159089166435024,463.645438833565
266,466.000,7.379890700312899,464.5985852996871
267,467.000,7.759654124877272,465.55304187512274
268,468.000,29.958122743422166,466.50880225657784
269,469.000,10.00681385340647,467.4658601465935
270,470.000,14.926765746454237,468.42420925354577
271,471.000,18.875098708354642,469.38384329164535
272,472.000,17.612097019061935,470.3447559809381
273,473.000,16.952242952695315,471.3069410473047
274,474.000,14.276557777539267,472.2703922224607
275,475.000,18.272067756043327,473.2351032439567
276,476.000,13.430944144821808,474.20106785517817
277,477.000,17.068034194654615,475.1682798053454
278,478.000,21.287538150486398,476.1367328495136
279,479.000,15.210277251426874,477.1064207485731
280,480.000,12.882112730751203,478.0773372692488
281,481.000,7.086179815899129,479.04947618410085
282,482.000,11.169921728475742,480.02283127152424
283,483.000,14.285788684251372,480.99739631574863
284,484.000,16.375606893161205,481.9731651068388
285,485.000,7.2291625593054505,482.9501314406946
286,486.000,13.93614588094971,483.9282891190503
287,487.000,8.004586050524324,484.9076319494757
288,488.000,7.423043254624986,485.888153745375
289,489.000,15.03032767401237,486.8698483259876
290,490.000,18.272939483612276,487.85270951638773
291,491.000,11.012495852515542,488.83673114748444
292,492.000,11.92444494397796,489.82190705602204
293,493.000,16.35542291542066,490.80823108457935
294,494.000,15.25691391842986,491.79569708157015
295,495.000,30.238970098756567,492.78429890124346
296,496.000,21.071323596317143,493.7740304036829
297,497.000,4.749389545192912,494.7648854548071
298,498.000,29.186106073630413,495.75685792636955
299,499.000,9.497048304041186,496.7499416959588
300,500.000,5.0119923530017445,497.74413064699826
301,501.000,4.622364331253777,498.7394186687462
302,502.000,15.350836343704259,499.73579965629574
303,503.000,5.017709489424931,500.73326751057505
304,504.000,10.008010861652792,501.7318161383472
305,505.000,20.27159254778985,502.7314394522101
306,506.000,6.6062086294033975,503.7321313705966
307,507.000,5.149995182225496,504.7338858177745
308,508.000,15.050637276153509,505.7366967238465
309,509.000,8.175172975249893,506.74055802475016
310,510.000,15.380371337741963,507.7454636622581
311,511.000,16.141608416022336,508.75140758397765
312,512.000,12.84539825664882,509.7583837433512
313,513.000,20.033387900343996,510.76638609965596
314,514.000,7.539478381995764,511.77540861800423
315,515.000,0.0,512.785445269343
316,516.000,6.386474969545702,513.7964900304543
317,517.000,16.014056116045026,514.808536883955
318,518.000,19.677841181703002,515.821579818297
319,519.000,3.4501021722330734,516.8356128277669
320,520.000,19.73784408751328,517.8506299124867
321,521.000,7.839249921587339,518.8666250784127
322,522.000,8.334638662663679,519.8835923373363
323,523.000,22.254882293115884,520.9015257068842
324,524.000,18.694884789482558,521.9204192105175
325,525.000,13.705395122467507,522.9402668775325
326,526.000,20.297419256939634,523.9610627430603
327,527.000,0.0,524.9828008480671
328,528.000,14.73614776064619,526.0054752393538
329,529.000,14.921710030443705,527.0290799695563
330,530.000,16.28084690285482,528.0536090971452
331,531.000,8.665258313573531,529.0790566864265
332,532.000,17.80144919245936,530.1054168075407
333,533.000,5.401867463536632,531.1326835364633
334,534.000,5.922332044995073,532.1608509550049
335,535.000,22.5838858491893,533.1899131508108
336,536.000,10.735199782638688,534.2198642173613
337,537.000,4.706638746028489,535.2506982539716
338,538.000,5.457907634208368,536.2824093657916
339,539.000,20.308609336193285,537.3149916638067
340,540.000,21.71594373516325,538.3484392648368
341,541.000,17.569832708463537,539.3827462915365
342,542.000,9.785698127604292,540.4179068723957
343,543.000,12.032454858260849,541.4539151417391
344,544.000,12.693365760273537,542.4907652397264
345,545.000,8.411153687648039,543.528451312352
346,546.000,13.58758048855475,544.5669675114452
347,547.000,8.140700005329563,545.6063079946705
348,548.000,16.023784074472815,546.6464669255272
349,549.000,13.638502526650427,547.6874384733495
350,550.000,6.950476186693663,548.7292168133064
351,551.000,3.88170087359822,549.7717961264018
352,552.000,15.528588400525223,550.8151705994748
353,553.000,23.256396574800988,551.859334425199
354,554.000,8.397381197916502,552.9042818020835
355,555.000,21.370855065528417,553.9500069344716
356,556.000,26.75207296745782,554.9965040325421
357,557.000,4.803764687691569,556.0437673123084
358,558.000,5.041769004381081,557.0917909956189
359,559.000,15.000683689843072,558.1405693101569
360,560.000,12.439438510559398,559.1900964894406
361,561.000,2.4210172271766623,560.2403667728233
362,562.000,17.25080259450715,561.2913744054929
363,563.000,12.398347361527726,562.3431136384722
364,564.000,16.081813271380383,563.3955787286196
365,565.000,13.869097061372486,564.4487639386275
366,566.000,0.0,565.5026635370239
367,567.000,12.203704201829055,566.557271798171
368,568.000,16.74322399773348,567.6125830022665
369,569.000,2.391115564656843,568.6685914353432
370,570.000,5.973939610732032,569.725291389268
371,571.000,13.990796838256415,570.7826771617435
372,572.000,5.987935943693174,571.8407430563068
373,573.000,7.392976617669888,572.8994833823301
374,574.000,11.252004544979854,573.9588924550202
375,575.000,17.723087404580724,575.0189645954192
376,576.000,6.461316869596089,576.0796941304039
377,577.000,18.262531607313804,577.1410753926862
378,578.000,7.71517527918752,578.2031027208125
379,579.000,5.8792525408354095,579.2657704591646
380,580.000,15.375832042040884,580.3290729579592
381,581.000,9.054606426752684,581.3930045732474
382,582.000,4.018181333084385,582.4575596669156
383,583.000,11.05098039331483,583.5227326066852
384,584.000,0.0,584.5885177661121
385,585.000,3.608603475412224,585.6549095245878
386,586.000,12.156359732662168,586.7219022673378
387,587.000,7.599911614576513,587.7894903854235
388,588.000,13.821168724259564,588.8576682757405
389,589.000,22.495707658980677,589.9264303410193
390,590.000,2.495021010174014,590.995770989826
391,591.000,6.326085363439006,592.065684636561
392,592.000,1.4020382985404467,593.1361657014595
393,593.000,5.457430389407705,594.2072086105923
394,594.000,17.40142420413565,595.2788077958644
395,595.000,8.891246304983724,596.3509576950163
396,596.000,6.210807248377023,597.423652751623
397,597.000,9.929724584905443,598.4968874150945
398,598.000,20.404372859323985,599.570656140676
399,599.000,13.237836610553018,600.644953389447
400,600.000,14.585809371677442,601.7197736283225
401,601.000,11.430209669947658,602.7951113300524
402,602.000,23.43434302677906,603.8709609732209
403,603.000,17.508388957752004,604.947317042248
404,604.000,15.671304972612234,606.0241740273877
405,605.000,36.75037157527015,607.1015264247299
406,606.000,16.31651926380175,608.1793687361983
407,607.000,22.36050953044753,609.2576954695525
408,608.000,32.02368386161356,610.3365011383864
409,609.000,38.46582873787088,611.4157802621291
410,610.000,33.19885463395542,612.4955273660446
411,611.000,49.79729201876819,613.5757369812318
412,612.000,56.19064335537587,614.6564036446241
413,613.000,63.278528101009215,615.7375218989907
414,614.000,65.99850570706519,616.8190862929348
415,615.000,88.35800061910504,617.901091380895
416,616.000,97.39652627685518,618.9835317231448
417,617.000,133.9951091142076,620.0664018857924
418,618.000,152.0557165592187,621.1496964407813
419,619.000,179.17654303411052,622.2334099658895
420,620.000,180.47504395527005,623.31753704473
421,621.000,169.59500173324898,624.402072266751
422,622.000,144.34093977276473,625.4870102272353
423,623.000,120.87745847269946,626.5723455273005
424,624.000,103.37016122610032,627.6580727738997
425,625.000,90.75014342017971,628.7441865798203
426,626.000,67.14568543631503,629.830681563685
427,627.000,53.96881865004866,630.9175523499514
428,628.000,44.94378443108849,632.0047935689115
429,629.000,50.28809414330692,633.0923998566931
430,630.000,37.590402144741915,634.1803658552581
431,631.000,28.780075787596616,635.2686862124034
432,632.000,33.49342541823842,636.3573555817616
433,633.000,19.775867377200598,637.4463686227994
434,634.000,9.749767999181358,638.5357200008186
435,635.000,24.16982861304382,639.6254043869562
436,636.000,22.930227541816294,640.7154164581837
437,637.000,7.223871102692101,641.8057508973079
438,638.000,14.11050660702972,642.8964023929702
439,639.000,5.291352360353017,643.987365639647
440,640.000,10.481249662350251,645.0786353376498
441,641.000,3.9051548068752027,646.1702061931248
442,642.000,13.756165081946733,647.2620729180533
443,643.000,9.819804769748657,648.3542302302513
444,644.000,18.754253146630163,649.4466728533698
445,645.000,17.5379924831052,650.5393955168948
446,646.000,9.605913043852752,651.6323929561472
447,647.000,7.540100087717406,652.7256599122826
448,648.000,15.97982186770821,653.8191911322917
449,649.000,8.496439630999589,654.9129813690004
450,650.000,7.220722618931404,656.0070253810686
451,651.000,2.4865340670077103,657.1013179329923
452,652.000,7.502423204898378,658.1958537951016
453,653.000,0.0,659.2906277435617
454,654.000,10.972728439627076,660.385634560373
455,655.000,6.383042966629887,661.4808690333701
456,656.000,10.099327043776498,662.5763259562235
457,657.000,1.5981858715622366,663.6720001284377
458,658.000,5.735253644647173,664.7678863553529
459,659.000,7.974331551856267,665.8639794481437
460,660.000,4.694012776180557,666.9602742238194
461,661.000,3.7097344947749207,668.056765505225
462,662.000,15.870777878960212,669.1534481210398
463,663.000,3.7306100942216744,670.2503169057783
464,664.000,0.0,671.3473666997895
465,665.000,0.0,672.4445923492581
466,666.000,0.1431542937972381,673.5419887062028
467,667.000,5.68776637152223,674.6395506284778
468,668.000,1.3222490202279005,675.7372729797721
469,669.000,8.21245037039057,676.8351506296094
470,670.000,11.865880546651283,677.9331784533488
471,671.000,8.320635667816305,679.0313513321837
472,672.000,9.168961846856973,680.129664153143
473,673.000,0.0,681.22811180909
474,674.000,4.0483818012768324,682.3266891987232
475,675.000,0.30275277342400386,683.425391226576
476,676.000,10.356472196983304,684.5242128030167
477,677.000,4.506478155751552,685.6231488442485
478,678.000,2.6789857276907014,686.7221942723093
479,679.000,13.68932498492768,687.8213440150723
480,680.000,0.5806009937547287,688.9205930062453
481,681.000,0.0,690.0199361853713
482,682.000,0.0,691.1193684978282
483,683.000,1.4197841051719706,692.2188848948281
484,684.000,0.0,693.3184803334193
485,685.000,3.8330372235162713,694.4181497764837
486,686.000,1.8623098072608855,695.5178881927391
487,687.000,0.0,696.6176905567376
488,688.000,0.8659741511334005,697.7175518488666
489,689.000,11.094801944651863,698.8174670553482
490,690.000,1.3177348317607311,699.9174311682393
491,691.000,18.359962814567666,701.0174391854323
492,692.000,0.0,702.1174861106538
493,693.000,8.750941046534422,703.2175669534656
494,694.000,0.0,704.3176767292645
495,695.000,0.0,705.4178104592822
496,696.000,14.960910829414956,706.5179631705851
497,697.000,1.0129461039251737,707.6181298960748
498,698.000,11.769308325512156,708.7183056744879
499,699.000,9.271253449604956,709.818485550395
500,700.000,0.1536464257968646,710.9186645742031
501,701.000,0.0,712.0188378021529
502,702.000,5.812301703679395,713.1190002963206
503,703.000,1.2623478753829431,714.219147124617
504,704.000,10.850143639211751,715.3192733607882
505,705.000,3.9101049155852934,716.4193740844147
506,706.000,2.1612246190876476,717.5194443809123
507,707.000,0.0,718.6194793415318
508,708.000,0.0,719.7194740633586
509,709.000,6.496302350686847,720.8194236493132
510,710.000,1.7199877918494622,721.9193232081506
511,711.000,0.0,723.0191678544616
512,712.000,3.018758291328936,724.118952708671
513,713.000,15.381793102961069,725.2186728970389
514,714.000,0.0,726.3183235516608
515,715.000,0.0,727.417899810466
516,716.000,3.5853351827801134,728.5173968172198
517,717.000,6.307951278478299,729.6168097215217
518,718.000,3.7066563211934636,730.7161336788065
519,719.000,0.0,731.8153638503436
520,720.000,2.641527596762444,732.9144954032375
521,721.000,12.330944489571948,734.0135235104281
522,722.000,2.51796764931089,735.1124433506891
523,723.000,3.5262828913701014,736.2112501086299
524,724.000,0.5855880253051282,737.3099389746949
525,725.000,6.051342854836889,738.4085051451631
526,726.000,0.0,739.5069438221483
527,727.000,6.94847678640042,740.6052502135996
528,728.000,0.0,741.7034195333005
529,729.000,0.7101749991300039,742.80144700087
530,730.000,12.369687158238207,743.8993278417618
531,731.000,11.958006712735823,744.9970572872642
532,732.000,7.700454425499174,746.0946305745008
533,733.000,0.0,747.1920429464299
534,734.000,10.512148348154824,748.2892896518451
535,735.000,0.0,749.3863659453741
536,736.000,5.949537912519531,750.4832670874805
537,737.000,9.628590655537778,751.5799883444622
538,738.000,0.0,752.6765249884518
539,739.000,1.4219697025822597,753.7728722974177
540,740.000,1.6842354448376682,754.8690255551624
541,741.000,0.0,755.9649800513237
542,742.000,4.293608918625978,757.060731081374
543,743.000,0.0,758.156273946621
544,744.000,5.245775045792811,759.2516039542072
545,745.000,7.721326582890242,760.3467164171097
546,746.000,10.0154373458588,761.4416066541412
547,747.000,2.815115010051727,762.5362699899483
548,748.000,0.0,763.6307017550137
549,749.000,1.8901337143462342,764.7248972856538
550,750.000,2.3302140759789154,765.818851924021
551,751.000,0.13922598189799373,766.912561018102
552,752.000,6.565983078281647,768.0060199217183
553,753.000,8.963716005472975,769.099223994527
554,754.000,0.45318539798063284,770.1921686020194
555,755.000,0.0,771.2848491155221
556,756.000,6.334330087803551,772.3772609121964
557,757.000,7.336577624961137,773.4693993750388
558,758.000,0.0,774.5612598928803
559,759.000,1.8652191396129183,775.6528378603871
560,760.000,0.0,776.7441286780606
561,761.000,0.0,777.8351277522363
562,762.000,0.0,778.9258304950854
563,763.000,0.0,780.0162323246134
564,764.000,19.251378335338472,781.1063286646615
565,765.000,0.0,782.196114944905
566,766.000,0.0,783.2855866008547
567,767.000,6.8250469261444096,784.3747390738556
568,768.000,7.870287188911448,785.4635678110885
569,769.000,0.0,786.5520682655686
570,770.000,4.731423103854127,787.6402358961459
571,771.000,4.155986832494136,788.7280661675059
572,772.000,19.50766044983186,789.8155545501681
573,773.000,8.291283479512003,790.902696520488
574,774.000,4.983811439344663,791.9894875606553
575,775.000,2.3839198413055556,793.0759231586944
576,776.000,3.261934191534465,794.1619988084656
577,777.000,4.083256990336963,795.247710009663
578,778.000,1.669474732183403,796.3330522678166
579,779.000,9.706430905709567,797.4180210942905
580,780.000,3.6526259937161285,798.5026120062839
581,781.000,14.755588473168586,799.5868205268314
582,782.000,23.0841448151981,800.6706421848019
583,783.000,23.726015485100106,801.7540725148999
584,784.000,12.92408394233621,802.8371070576638
585,785.000,32.44895764053183,803.9197413594682
586,786.000,35.28541502747839,805.0019709725216
587,787.000,44.98772554513255,806.0837914548674
588,788.000,41.968856629615175,807.1651983703848
589,789.000,46.908050711212695,808.2461872887873
590,790.000,53.14759121437703,809.3267537856229
591,791.000,75.42504555772427,810.4068934422758
592,792.000,72.44583215403634,811.4866018459636
593,793.000,80.0321034102601,812.5658745897399
594,794.000,98.99772972750702,813.644707272493
595,795.000,88.12243550105461,814.7230954989454
596,796.000,81.92651312034434,815.8010348796556
597,797.000,88.37241696898388,816.8785210310161
598,798.000,72.012134424745,817.955549575255
599,799.000,71.62063985956502,819.0321161404349
600,800.000,57.285462639546495,820.1082163604535
601,801.000,46.26185912495646,821.1838458750435
602,802.000,34.068786670228064,822.2590003297719
603,803.000,20.301971623958593,823.3336753760414
604,804.000,31.330994328910947,824.4078666710891
605,805.000,29.687803122012383,825.4815698779876
606,806.000,19.103868334356548,826.5547806656434
607,807.000,23.663721291200886,827.6274947087991
608,808.000,15.087202311968667,828.6997076880314
609,809.000,14.128919710248056,829.771415289752
610,810.000,8.964132793792032,830.842613206208
611,811.000,17.18566486451914,831.9132971354809
612,812.000,3.2125222185126177,832.9834627814873
613,813.000,0.0,834.0531058539786
614,814.000,13.300882931458432,835.1222220685415
615,815.000,10.14426585340243,836.1908071465975
616,816.000,0.0,837.2588568154024
617,817.000,1.0954981919524016,838.3263668080476
618,818.000,1.2273291365411296,839.3933328634589
619,819.000,5.710769273602068,840.4597507263979
620,820.000,0.0,841.5256161474599
621,821.000,11.895507116924023,842.590924883076
622,822.000,0.0,843.6556726955121
623,823.000,3.9050736471314167,844.7198553528685
624,824.000,0.0,845.7834686290812
625,825.000,5.408227696079734,846.8465083039202
626,826.000,0.0,847.9089701629914
627,827.000,5.575746002265191,848.9708499977348
628,828.000,0.0,850.0321436054257
629,829.000,0.0,851.0928467891742
630,830.000,0.0,852.1529553579253
631,831.000,2.874649873540875,853.2124651264592
632,832.000,1.095704084609224,854.2713719153908
633,833.000,4.210875448830507,855.3296715511694
634,834.000,4.627295133919688,856.3873598660803
635,835.000,0.0,857.444432698243
636,836.000,3.6690291083882585,858.5008858916117
637,837.000,0.0,859.5567152959761
638,838.000,0.0,860.6119167669608
639,839.000,10.050114833975499,861.6664861660245
640,840.000,0.0,862.7204193604621
641,841.000,4.778963776597948,863.7737122234021
642,842.000,0.0,864.8263606338089
643,843.000,0.0,865.8783604764815
644,844.000,1.838964357946793,866.9297076420532
645,845.000,0.0,867.9803980269935
646,846.000,5.140484466394582,869.0304275336055
647,847.000,0.0,870.0797920700284
648,848.000,0.0,871.1284875502349
649,849.000,0.0,872.1765098940341
650,850.000,0.0,873.2238550270692
651,851.000,9.653080119181595,874.2705188808184
652,852.000,10.707358607405467,875.3164973925946
653,853.000,0.0,876.3617865055462
654,854.000,0.0,877.4063821686564
655,855.000,1.6116316632575263,878.4502803367425
656,856.000,0.0,879.4934769704578
657,857.000,0.0,880.5359680362899
658,858.000,4.503943493438442,881.5777495065615
659,859.000,0.0,882.6188173594301
660,860.000,0.0,883.6591675788882
661,861.000,0.0,884.6987961547634
662,862.000,0.9822729172825575,885.7376990827174
663,863.000,0.0,886.7758723642482
664,864.000,9.832624993312493,887.8133120066875
665,865.000,0.0,888.8500140232024
666,866.000,0.0,889.8859744327949
667,867.000,0.0,890.9211892603018
668,868.000,0.0,891.9556545363951
669,869.000,9.271223702418524,892.9893662975815
670,870.000,2.5620674137976494,894.0223205862023
671,871.000,3.6894555495656505,895.0545134504343
672,872.000,0.0,896.085940944289
673,873.000,0.0,897.1165991276125
674,874.000,8.178729933913473,898.1464840660865
675,875.000,0.0,899.1755918312269
676,876.000,0.0,900.2039185003846
677,877.000,0.0,901.2314601567462
678,878.000,2.721309110667903,902.2582128893321
679,879.000,7.351262207001469,903.2841727929986
680,880.000,9.611217031564024,904.309335968436
681,881.000,0.0,905.3336985221706
682,882.000,0.0,906.3572565665622
683,883.000,1.9787327801930132,907.380006219807
684,884.000,0.0,908.401943605935
685,885.000,0.0,909.4230648548119
686,886.000,0.0,910.4433661021376
687,887.000,0.0,911.4628434894473
688,888.000,0.7619248358887489,912.4814931641113
689,889.000,0.0,913.4993112793343
690,890.000,3.851597005843246,914.5162939941567
691,891.000,5.324889526547281,915.5324374734528
692,892.000,0.0,916.5477378879325
693,893.000,0.0,917.5621914141407
694,894.000,0.0,918.5757942344567
695,895.000,0.0,919.588542537095
696,896.000,0.44641148389496266,920.600432516105
697,897.000,0.0,921.6114603713711
698,898.000,0.0,922.6216223086124
699,899.000,0.0,923.630914539383
700,900.000,0.0,924.6393332810724
701,901.000,0.0,925.6468747569038
702,902.000,6.257386804063344,926.6535351959367
703,903.000,0.5076481669353825,927.6593108330646
704,904.000,0.0,928.6641979090164
705,905.000,2.4955233296443566,929.6681926703557
706,906.000,0.0,930.6712913694807
707,907.000,0.0,931.6734902646253
708,908.000,2.4159073801425848,932.6747856198574
709,909.000,0.0,933.6751737050809
710,910.000,7.302559203966666,934.6746507960333
711,911.000,1.3060718257116832,935.6732131742883
712,912.000,0.0,936.6708571272534
713,913.000,0.0,937.6675789481719
714,914.000,0.0,938.6633749361217
715,915.000,0.28417360398475466,939.6582413960152
716,916.000,0.11642336139959752,940.6521746386004
717,917.000,0.0,941.6451709804596
718,918.000,0.0,942.6372267440106
719,919.000,0.0,943.6283382575057
720,920.000,0.0,944.6185018550323
721,921.000,8.308225123487546,945.6077138765124
722,922.000,0.0,946.5959706677033
723,923.000,0.0,947.5832685801972
724,924.000,2.1081530285788403,948.5696039714212
725,925.000,0.0,949.5549732046368
726,926.000,0.0,950.539372648941
727,927.000,10.554193320734385,951.5227986792656
728,928.000,0.0,952.5052476763772
729,929.000,0.0,953.4867160268775
730,930.000,6.526754876797327,954.4672001232027
731,931.000,1.2921356363756331,955.4466963636244
732,932.000,0.0,956.4252011522487
733,933.000,3.009948100982797,957.4027108990172
734,934.000,0.0,958.3792220197056
735,935.000,0.0,959.3547309359251
736,936.000,3.505095924877992,960.329234075122
737,937.000,4.2732571294232,961.3027278705767
738,938.000,0.0,962.2752087614049
739,939.000,2.7278758074421603,963.2466731925579
740,940.000,12.480616385179133,964.2171176148208
741,941.000,1.8647895151857483,965.1865384848143
742,942.000,0.4274287350060604,966.1549322649939
743,943.000,0.0,967.12229542365
744,944.000,3.185339565092363,968.0886244349076
745,945.000,0.0,969.0539157787273
746,946.000,0.0,970.0181659409038
747,947.000,0.0,970.9813714130673
748,948.000,4.13807030731698,971.943528692683
749,949.000,0.0,972.9046342830502
750,950.000,0.6710473066959821,973.8646846933041
751,951.000,0.0,974.8236764384139
752,952.000,0.0,975.7816060391849
753,953.000,5.846564977744151,976.7384700222558
754,954.000,12.917912079898315,977.6942649201017
755,955.000,0.0,978.6489872710315
756,956.000,0.0,979.6026336191896
757,957.000,3.762875485444738,980.5552005145553
758,958.000,0.0,981.5066845129425
759,959.000,13.268502824000166,982.4570821759999
760,960.000,3.6511779287880017,983.406390071212
761,961.000,6.586400228103116,984.3546047718969
762,962.000,7.099546142790814,985.3017228572091
763,963.000,11.505689087863175,986.2477409121368
764,964.000,2.2898584724962348,987.1926555275038
765,965.000,9.064749700031825,988.1364632999682
766,966.000,5.18502016797629,989.0791608320237
767,967.000,11.924340268001401,990.0207447319985
768,968.000,14.434085385944172,990.9612116140559
769,969.000,13.01192190180609,991.9005580981939
770,970.000,9.837074189754276,992.8387808102457
771,971.000,13.359973618121217,993.7758763818788
772,972.000,20.21608154940327,994.7118414505967
773,973.000,2.4305923402631606,995.6466726597369
774,974.000,12.796221341528167,996.5803666584718
775,975.000,12.25969289819011,997.5129201018099
776,976.000,2.92463534940714,998.4443296505929
777,977.000,11.60430602850181,999.3745919714981
778,978.000,11.702676262961404,1000.3037037370386
779,979.000,18.0692763744388,1001.2316616255612
780,980.000,22.07140567875149,1002.1584623212484
781,981.000,13.27080148588334,1003.0841025141167
782,982.000,21.018725099980884,1004.0085789000191
783,983.000,21.14808281935848,1004.9318881806414
784,984.000,30.47319393649377,1005.8540270635062
785,985.000,29.493294738030045,1006.77499226197
786,986.000,37.41930950477558,1007.6947804952244
787,987.000,39.93923951170359,1008.6133884882963
788,988.000,55.49545102795332,1009.5308129720468
789,989.000,67.05247831682732,1010.4470506831726
790,990.000,67.08156363579496,1011.3620983642049
791,991.000,85.81536623649004,1012.2759527635101
792,992.000,94.10369436471092,1013.188610635289
793,993.000,122.30775526042203,1014.1000687395779
794,994.000,150.96627515775208,1015.010323842248
795,995.000,193.02963628499538,1015.9193727150046
796,996.000,269.54482786461085,1016.8272121353891
797,997.000,361.47115911322294,1017.733838886777
798,998.000,500.19585424162096,1018.639249758379
799,999.000,693.1821784547592,1019.5434415452407
800,1000.000,895.6260199517578,1020.4464110482422
801,1001.000,998.3446339259006,1021.3481550740994
802,1002.000,893.3552085646379,1022.2486704353621
803,1003.000,704.516015049584,1023.147953950416
804,1004.000,504.96487455651936,1024.0460024434806
805,1005.000,362.19409225538834,1024.9428127446117
806,1006.000,276.3594053103013,1025.8383816896987
807,1007.000,208.9403148795334,1026.7327061204667
808,1008.000,155.8670651155246,1027.6257828844755
809,1009.000,137.45309516488055,1028.5176088351195
810,1010.000,106.82805016837142,1029.4081808316287
811,1011.000,94.84545926093278,1030.2974957390672
812,1012.000,87.00806157166494,1031.185550428335
813,1013.000,76.6075712238337,1032.0723417761662
814,1014.000,52.489090334870525,1032.9578666651296
815,1015.000,55.91130801636973,1033.8421219836302
816,1016.000,68.27810837409334,1034.7251046259066
817,1017.000,52.09607150796705,1035.6068114920329
818,1018.000,55.850321512082246,1036.4872394879178
819,1019.000,64.58435647469446,1037.3663855253055
820,1020.000,59.658762478225526,1038.2442465217746
821,1021.000,66.12973259926116,1039.1208194007388
822,1022.000,73.2109949085534,1039.9961010914467
823,1023.000,88.90897347101827,1040.8700885289818
824,1024.000,105.30747734573765,1041.7427786542623
825,1025.000,117.13540758595832,1042.6141684140416
826,1026.000,149.65127523909177,1043.4842547609082
827,1027.000,186.67804034671508,1044.353034653285
828,1028.000,239.52629894456982,1045.2205050554303
829,1029.000,325.0344560625631,1046.0866629374368
830,1030.000,387.91651672476746,1046.9515052752326
831,1031.000,427.7976839494197,1047.8150290505803
832,1032.000,392.3291987489224,1048.6772312510775
833,1033.000,324.5293161298425,1049.5381088701574
834,1034.000,245.0863010929129,1050.3976589070871
835,1035.000,194.07071663303077,1051.2558783669692
836,1036.000,139.67359773925887,1052.1127642607412
837,1037.000,109.78237039482497,1052.9683136051751
838,1038.000,82.07322857712165,1053.8225234228782
839,1039.000,71.88837925770713,1054.6753907422928
840,1040.000,69.55728440230405,1055.5269125976959
841,1041.000,47.38367297080072,1056.3770860291993
842,1042.000,46.40552491724998,1057.22590808275
843,1043.000,38.58661918987036,1058.0733758101296
844,1044.000,30.24883073104479,1058.919486268955
845,1045.000,25.040445477322237,1059.7642365226777
846,1046.000,28.302457359415712,1060.6076236405843
847,1047.000,16.00472130220396,1061.449644697796
848,1048.000,8.511908224730632,1062.2902967752693
849,1049.000,27.395979040204338,1063.1295769597957
850,1050.000,18.84836365599881,1063.9674823440012
851,1051.000,25.85207297365355,1064.8040100263465
852,1052.000,13.612334888871828,1065.6391571111283
853,1053.000,12.313740291523118,1066.472920708477
854,1054.000,16.232003065641493,1067.3052979343586
855,1055.000,15.123431089426049,1068.1362859105739
856,1056.000,16.248805235241434,1068.9658817647585
857,1057.000,8.092364369617144,1069.794082630383
858,1058.000,7.588408353247132,1070.6208856467529
859,1059.000,3.5642440409915253,1071.4462879590085
860,1060.000,9.042964281874447,1072.2702867181256
861,1061.000,13.00830891908663,1073.0928790809135
862,1062.000,5.309146789981924,1073.914062210018
863,1063.000,0.0,1074.7338332739193
864,1064.000,21.391346553067933,1075.552189446932
865,1065.000,2.869778090793716,1076.3691279092063
866,1066.000,15.840742153273368,1077.1846458467267
867,1067.000,10.065825548687144,1077.9987404513129
868,1068.000,0.0,1078.81140892062
869,1069.000,3.327859541863063,1079.6226484581368
870,1070.000,13.779095726811647,1080.4324562731883
871,1071.000,17.08694641906618,1081.240829580934
872,1072.000,3.182135397632237,1082.0477656023677
873,1073.000,0.0,1082.853261564319
874,1074.000,6.261435300548328,1083.6573146994517
875,1075.000,8.58385375373473,1084.4599222462653
876,1076.000,5.467815550906607,1085.2610814490934
877,1077.000,0.0,1086.0607895581045
878,1078.000,0.3506841706969226,1086.8590438293031
879,1079.000,13.257315475472524,1087.6558415245274
880,1080.000,2.111907088548378,1088.4511799114516
881,1081.000,4.047956736416609,1089.2450562635834
882,1082.000,2.528330139733498,1090.0374678602666
883,1083.000,0.0,1090.8284119866798
884,1084.000,12.226521066164196,1091.6178859338359
885,1085.000,2.767987001416941,1092.4058869985831
886,1086.000,9.405971516395311,1093.1924124836046
887,1087.000,0.5045653025815682,1093.9774596974185
888,1088.000,5.39707804562272,1094.7610259543774
889,1089.000,4.204063425330332,1095.5431085746698
890,1090.000,13.871234115682455,1096.3237048843175
891,1091.000,1.8722707848212394,1097.1028122151788
892,1092.000,13.364312095053947,1097.8804279049461
893,1093.000,1.1776657028533464,1098.6565492971467
894,1094.000,8.2118222588565,1099.4311737411435
895,1095.000,1.0914674078662756,1100.2042985921337
896,1096.000,7.536666788851107,1100.975921211149
897,1097.000,5.058389034943048,1101.7460389650569
898,1098.000,3.9093447734403526,1102.5146492265596
899,1099.000,13.679337625806056,1103.2817493741939
900,1100.000,12.229449207668495,1104.0473367923314
901,1101.000,7.16817012882052,1104.8114088711795
902,1102.000,0.0,1105.5739630067794
903,1103.000,4.326149398991447,1106.3349966010085
904,1104.000,0.0,1107.0945070615771
905,1105.000,6.562881197967272,1107.8524918020328
906,1106.000,0.0,1108.6089482417563
907,1107.000,8.622524194035805,1109.3638738059642
908,1108.000,11.687584074292317,1110.1172659257077
909,1109.000,5.660166962127505,1110.8691220378726
910,1110.000,0.0,1111.61943958518
911,1111.000,8.583788983813747,1112.3682160161864
912,1112.000,11.421653214717935,1113.115448785282
913,1113.000,13.56660364730692,1113.861135352693
914,1114.000,6.249750815519974,1114.60527318448
915,1115.000,11.072515247461752,1115.3478597525382
916,1116.000,0.0,1116.0888925345985
917,1117.000,9.969903985773726,1116.8283690142264
918,1118.000,0.0,1117.5662866808218
919,1119.000,11.613802970379538,1118.3026430296204
920,1120.000,12.895771438307975,1119.037435561692
921,1121.000,0.0,1119.7706617839424
922,1122.000,10.389068790889269,1120.5023192091107
923,1123.000,12.528832644227805,1121.2324053557722
924,1124.000,19.95950025166303,1121.960917748337
925,1125.000,22.851275082950906,1122.687853917049
926,1126.000,5.6783886020107275,1123.4132113979892
927,1127.000,18.436935266928913,1124.136987733071
928,1128.000,1.1052185299554367,1124.8591804700445
929,1129.000,0.12407083750645143,1125.5797871624936
930,1130.000,4.78790663016207,1126.298805369838
931,1131.000,11.138496342668532,1127.0162326573316
932,1132.000,17.00146140393599,1127.732066596064
933,1133.000,10.780016237041082,1128.446304762959
934,1134.000,14.040911259224458,1129.1589447407755
935,1135.000,11.760649881892505,1129.8699841181076
936,1136.000,20.459722510616075,1130.579420489384
937,1137.000,8.512408545131848,1131.287251454868
938,1138.000,22.158739379341114,1131.9934746206588
939,1139.000,20.55097340131033,1132.6980875986897
940,1140.000,23.46816499327042,1133.4010880067297
941,1141.000,19.31770653161925,1134.1024734683808
942,1142.000,32.71517038691741,1134.8022416130825
943,1143.000,26.21811692389224,1135.5003900761078
944,1144.000,18.847234501435423,1136.1969164985646
945,1145.000,27.60965947260388,1136.891818527396
946,1146.000,42.83133918462045,1137.5850938153797
947,1147.000,45.95643097887114,1138.276740021129
948,1148.000,54.40533919090922,1138.9667548090908
949,1149.000,66.62812115045085,1139.6551358495492
950,1150.000,81.03036818137934,1140.3418808186207
951,1151.000,92.49351060174195,1141.0269873982581
952,1152.000,110.42212472375104,1141.710453276249
953,1153.000,124.61687985378467,1142.3922761462154
954,1154.000,131.76689929238523,1143.0724537076148
955,1155.000,139.6546733342609,1143.750983665739
956,1156.000,138.54502226828413,1144.427863731716
957,1157.000,124.2736903774935,1145.1030916225066
958,1158.000,117.4020869390913,1145.7766650609087
959,1159.000,82.14451522444642,1146.4485817755535
960,1160.000,76.30618749909218,1147.1188395009078
961,1161.000,71.34140902272657,1147.7874359772734
962,1162.000,54.267073049213195,1148.4543689507868
963,1163.000,50.80714882658003,1149.11963617342
964,1164.000,44.80269859702139,1149.7832354029786
965,1165.000,34.693655596895496,1150.4451644031044
966,1166.000,37.794608056726474,1151.1054209432734
967,1167.000,36.9864102012034,1151.7640027987966
968,1168.000,18.70778024917945,1152.4209077508206
969,1169.000,32.40749741367449,1153.0761335863256
970,1170.000,50.5500659018719,1153.729678098128
971,1171.000,38.3397329151212,1154.3815390848788
972,1172.000,28.730204648936706,1155.0317143510633
973,1173.000,27.649855292997927,1155.680201707002
974,1174.000,53.238007031149436,1156.3269989688506
975,1175.000,39.65695104140036,1156.9721039585997
976,1176.000,48.758970495925496,1157.6155145040746
977,1177.000,48.73379656106431,1158.2572284389357
978,1178.000,65.82651139732207,1158.897243602678
979,1179.000,87.96036115936863,1159.5355578406313
980,1180.000,94.64115599603883,1160.1721690039612
981,1181.000,106.15593805033245,1160.8070749496676
982,1182.000,122.25866145941495,1161.440273540585
983,1183.000,138.1768613546169,1162.0717626453832
984,1184.000,126.06722286143327,1162.7015401385668
985,1185.000,104.1685080995237,1163.3296039004763
986,1186.000,86.46172018271523,1163.9559518172848
987,1187.000,68.62788321899734,1164.5805817810026
988,1188.000,70.40001031052634,1165.2034916894736
989,1189.000,51.78172055362211,1165.8246794463778
990,1190.000,35.500754038771674,1166.4441429612284
991,1191.000,34.06654685062472,1167.0618801493754
992,1192.000,28.485311067998055,1167.677888932002
993,1193.000,25.089124763872633,1168.2921672361274
994,1194.000,30.199186005394495,1168.9047129946055
995,1195.000,10.180403853875077,1169.515524146125
996,1196.000,18.604635364790283,1170.1245986352096
997,1197.000,14.926278587782235,1170.7319344122177
998,1198.000,17.679810566657352,1171.3375294333428
999,1199.000,15.458903339386325,1171.9413816606136
1000,1200.000,19.25594393810684,1172.543489061893
1001,1201.000,16.387206389120593,1173.1438496108794
1002,1202.000,14.444876712894029,1173.742461287106
1003,1203.000,13.603921924059705,1174.3393220759403
1004,1204.000,20.579011031413756,1174.9344299685863
1005,1205.000,13.254828037919197,1175.527782962081
1006,1206.000,19.121069940702228,1176.1193790592977
1007,1207.000,5.705019731056609,1176.7092162689435
1008,1208.000,3.2894113944382752,1177.2972926055618
1009,1209.000,6.809742910470277,1177.8836060895296
1010,1210.000,13.18304425294059,1178.4681547470593
1011,1211.000,16.6104233898011,1179.050936610199
1012,1212.000,0.0,1179.63194971683
1013,1213.000,0.0,1180.2111921106698
1014,1214.000,13.392828158729344,1180.7886618412706
1015,1215.000,9.054129035980395,1181.3643569640196
1016,1216.000,0.0,1181.9382755401386
1017,1217.000,4.515152363315565,1182.5104156366845
1018,1218.000,12.671273673451196,1183.0807753265487
1019,1219.000,5.952083311541628,1183.6493526884583
1020,1220.000,3.260913193025317,1184.2161458069747
1021,1221.000,0.0,1184.7811527724946
1022,1222.000,2.0020943187510056,1185.344371681249
1023,1223.000,0.0,1185.9058006353046
1024,1224.000,10.497673257437555,1186.4654377425625
1025,1225.000,2.0601318832411835,1187.0232811167589
1026,1226.000,11.461384122535264,1187.5793288774648
1027,1227.000,1.4366458499137025,1188.1335791500862
1028,1228.000,6.544460934135941,1188.686030065864
1029,1229.000,0.5045362381256382,1189.2366797618743
1030,1230.000,14.685804618972725,1189.7855263810272
1031,1231.000,8.35307092793073,1190.3325680720693
1032,1232.000,18.007641010419775,1190.8778029895802
1033,1233.000,8.944685706024075,1191.421229293976
1034,1234.000,7.095683848493081,1191.9628451515068
1035,1235.000,3.396825265742109,1192.502648734258
1036,1236.000,4.093236779850486,1193.0406382201495
1037,1237.000,1.7582412070632927,1193.5768117929367
1038,1238.000,13.321712357790148,1194.11116764221
1039,1239.000,14.580472036606352,1194.6437039633936
1040,1240.000,7.724532042251894,1195.174418957748
1041,1241.000,0.1808921676324644,1195.7033108323676
1042,1242.000,12.40614419981739,1196.2303778001826
1043,1243.000,20.078940920042896,1196.755618079957
1044,1244.000,16.195499103709608,1197.2790298962905
1045,1245.000,5.725184520382072,1197.8006114796178
1046,1246.000,3.8363949337920076,1198.320361066208
1047,1247.000,0.29477310183415284,1198.8382768981658
1048,1248.000,5.005956776570429,1199.3543572234296
1049,1249.000,10.326598704225717,1199.8686002957743
1050,1250.000,12.396405625191392,1200.3810043748085
1051,1251.000,8.072158274023877,1200.891567725976
1052,1252.000,7.971537379444044,1201.400288620556
1053,1253.000,15.039844664338034,1201.907165335662
1054,1254.000,7.030199845756897,1202.412196154243
1055,1255.000,0.8361976349178804,1202.9153793650821
1056,1256.000,0.0,1203.4167132627983
1057,1257.000,8.591420852155352,1203.9161961478446
1058,1258.000,6.243393673490573,1204.4138263265095
1059,1259.000,1.4295558890837583,1204.9096021109162
1060,1260.000,3.032859180977084,1205.403521819023
1061,1261.000,2.5119292253773438,1205.8955837746228
1062,1262.000,0.0,1206.3857863073436
1063,1263.000,11.068741247351909,1206.874127752648
1064,1264.000,15.471107548165037,1207.3606064518349
1065,1265.000,0.010867247964142734,1207.8452207520359
1066,1266.000,12.580584993781258,1208.3279690062188
1067,1267.000,15.204744426813477,1208.8088495731865
1068,1268.000,0.0,1209.2878608175765
1069,1269.000,0.004260890138994,1209.765001109861
1070,1270.000,15.701017173652872,1210.2402688263471
1071,1271.000,0.0,1210.7136623491774
1072,1272.000,4.286621933671313,1211.1851800663287
1073,1273.000,0.0,1211.6548203716136
1074,1274.000,0.0,1212.1225816646784
1075,1275.000,12.304803648994948,1212.588462351005
1076,1276.000,3.899457158089035,1213.052460841911
1077,1277.000,0.0,1213.5145755545468
1078,1278.000,11.128709088099868,1213.9748049119
1079,1279.000,8.990785657208107,1214.433147342792
1080,1280.000,0.0018747181211438146,1214.8896012818789
1081,1281.000,5.709406830347689,1215.3441651696523
1082,1282.000,5.904605547561687,1215.7968374524382
1083,1283.000,0.0,1216.2476165823982
1084,1284.000,1.1771019824718678,1216.6965010175281
1085,1285.000,2.3152617783409823,1217.143489221659
1086,1286.000,18.106602335542902,1217.588579664457
1087,1287.000,4.00512117857761,1218.0317708214225
1088,1288.000,4.588385826108606,1218.4730611738914
1089,1289.000,3.087871790965437,1218.9124492090345
1090,1290.000,2.7691125801425187,1219.3499334198575
1091,1291.000,2.154387694799425,1219.7855123052007
1092,1292.000,21.232171630260382,1220.2191843697397
1093,1293.000,5.110883876015578,1220.6509481239843
1094,1294.000,0.0,1221.0808020842805
1095,1295.000,2.5160892271921966,1221.5087447728079
1096,1296.000,7.898398282418384,1221.9347747175816
1097,1297.000,0.0,1222.3588904524518
1098,1298.000,14.911228482896604,1222.7810905171034
1099,1299.000,9.469493542944065,1223.201373457056
1100,1300.000,15.834187176335718,1223.6197378236643
1101,1301.000,4.372257825881661,1224.0361821741183
1102,1302.000,0.36884892855755425,1224.4507050714424
1103,1303.000,12.405587915504157,1224.8633050844958
1104,1304.000,0.0,1225.273980787973
1105,1305.000,14.080967237596496,1225.6827307624035
1106,1306.000,0.0,1226.0895535941513
1107,1307.000,4.124264124583988,1226.494447875416
1108,1308.000,0.0,1226.8974122042305
1109,1309.000,2.501707815534701,1227.2984451844652
1110,1310.000,2.56279857417735,1227.6975454258227
1111,1311.000,7.30113445615757,1228.0947115438423
1112,1312.000,0.0,1228.489942159898
1113,1313.000,1.3801890988022478,1228.8832359011978
1114,1314.000,1.2587675992140248,1229.274591400786
1115,1315.000,8.782113702459583,1229.6640072975404
1116,1316.000,12.766133763825565,1230.0514822361745
1117,1317.000,13.350689132763591,1230.4370148672365
1118,1318.000,0.0,1230.8206038471096
1119,1319.000,6.3940621619876765,1231.2022478380122
1120,1320.000,2.872392492002973,1231.581945507997
1121,1321.000,5.553327469047872,1231.959695530952
1122,1322.000,13.047265413400055,1232.3354965866
1123,1323.000,5.73914563950143,1232.7093473604987
1124,1324.000,4.211287455958882,1233.081246544041
1125,1325.000,10.168644165545857,1233.451192834454
1126,1326.000,9.65272906519931,1233.8191849348007
1127,1327.000,12.012397446021623,1234.1852215539784
1128,1328.000,1.8203295932805759,1234.5493014067195
1129,1329.000,7.6038847864094805,1234.9114232135905
1130,1330.000,17.36572929900558,1235.2715857009944
1131,1331.000,9.272983398832139,1235.629787601168
1132,1332.000,17.92324234781654,1235.9860276521836
1133,1333.000,0.0,1236.3403045979471
1134,1334.000,0.0,1236.692617188201
1135,1335.000,14.051255821477753,1237.0429641785222
1136,1336.000,0.0,1237.3913443303222
1137,1337.000,5.869475589152671,1237.7377564108474
1138,1338.000,0.0,1238.0821991931791
1139,1339.000,13.688282543765808,1238.4246714562341
1140,1340.000,1.28291501523654,1238.7651719847634
1141,1341.000,8.52735043064672,1239.1036995693532
1142,1342.000,0.0,1239.4402530064247
1143,1343.000,2.8206819017659654,1239.774831098234
1144,1344.000,10.126567347127775,1240.1074326528721
1145,1345.000,21.679208515735354,1240.4380564842647
1146,1346.000,13.92207058782742,1240.7667014121726
1147,1347.000,6.265116737808739,1241.0933662621912
1148,1348.000,10.311385134248212,1241.4180498657518
1149,1349.000,12.94432793988085,1241.7407510601192
1150,1350.000,8.325803311605796,1242.0614686883941
1151,1351.000,0.0,1242.3802015995125
1152,1352.000,19.291683351756546,1242.6969486482435
1153,1353.000,21.004880304807102,1243.011708695193
1154,1354.000,1.229193393199239,1243.3244806068008
1155,1355.000,12.934644744657817,1243.6352632553421
1156,1356.000,12.926751481073097,1243.944055518927
1157,1357.000,12.939348718500241,1244.2508562814999
1158,1358.000,12.568035567159768,1244.5556644328403
1159,1359.000,2.753526131436047,1244.858478868564
1160,1360.000,12.085277509880825,1245.1592984901192
1161,1361.000,11.017440795208586,1245.4581222047914
1162,1362.000,0.0,1245.7549489256996
1163,1363.000,1.1481064282017996,1246.0497775717981
1164,1364.000,16.479807932123776,1246.3426070678763
1165,1365.000,1.1498576554417923,1246.6334363445583
1166,1366.000,0.2903066616970591,1246.922264338303
1167,1367.000,3.862615008595867,1247.2090899914042
1168,1368.000,6.70821174800858,1247.4939122519913
1169,1369.000,3.6167029259720493,1247.776730074028
1170,1370.000,4.28111358268734,1248.0575424173126
1171,1371.000,0.0,1248.3363482474788
1172,1372.000,10.366274464004164,1248.6131465359958
1173,1373.000,21.277533739833416,1248.8879362601665
1174,1374.000,12.716776596870432,1249.1607164031295
1175,1375.000,11.302797046142587,1249.4314859538574
1176,1376.000,11.72753009284088,1249.7002439071591
1177,1377.000,6.788059736321884,1249.9669892636782
1178,1378.000,13.288308970108346,1250.2317210298916
1179,1379.000,0.0,1250.494438218113
1180,1380.000,11.41441515351039,1250.7551398464896
1181,1381.000,7.571041060995185,1251.0138249390047
1182,1382.000,16.469954474523774,1251.2704925254761
1183,1383.000,2.9997353584440134,1251.525141641556
1184,1384.000,8.73188467126738,1251.7777713287326
1185,1385.000,17.173111365673094,1252.0283806343268
1186,1386.000,5.674691388502424,1252.2769686114975
1187,1387.000,4.707920680763664,1252.5235343192364
1188,1388.000,6.276384177629552,1252.7680768223704
1189,1389.000,12.493425808437678,1253.0105951915623
1190,1390.000,19.94125149669162,1253.2510885033084
1191,1391.000,4.4422191600590395,1253.489555839941
1192,1392.000,0.0,1253.7259962896267
1193,1393.000,9.865028053632841,1253.9604089463671
1194,1394.000,4.224373090000427,1254.1927929099995
1195,1395.000,15.603470713805336,1254.4231472861948
1196,1396.000,5.607557813540325,1254.6514711864597
1197,1397.000,2.280824271863821,1254.8777637281362
1198,1398.000,5.476591965600392,1255.1020240343996
1199,1399.000,7.11926276573854,1255.3242512342615
1200,1400.000,7.688308537431567,1255.5444444625684
1201,1401.000,7.157430139999178,1255.762602860001
1202,1402.000,6.877259426924638,1255.9787255730753
1203,1403.000,11.476511245858092,1256.192811754142
1204,1404.000,2.0819834386124967,1256.4048605613875
1205,1405.000,4.885594841168086,1256.6148711588319
1206,1406.000,14.235605283668974,1256.822842716331
1207,1407.000,13.15935259042385,1257.028774409576
1208,1408.000,16.74195957990878,1257.2326654200913
1209,1409.000,9.318996064762132,1257.4345149352378
1210,1410.000,11.89623185178948,1257.6343221482105
1211,1411.000,16.668982741959553,1257.8320862580404
1212,1412.000,11.33084253040829,1258.0278064695917
1213,1413.000,18.52919000643533,1258.2214819935646
1214,1414.000,16.986054953506027,1258.413112046494
1215,1415.000,0.0,1258.6026958507505
1216,1416.000,24.111268365462138,1258.790232634538
1217,1417.000,8.918122368103468,1258.9757216318965
1218,1418.000,18.176089917299578,1259.1591620827005
1219,1419.000,21.74235376734032,1259.3405532326597
1220,1420.000,17.328073666681576,1259.5198943333185
1221,1421.000,8.146346357943912,1259.697184642056
1222,1422.000,16.335673577913212,1259.8724234220867
1223,1423.000,21.248825057540216,1260.0456099424598
1224,1424.000,20.040308521940915,1260.216743478059
1225,1425.000,19.348968690396077,1260.385823309604
1226,1426.000,29.063276276352553,1260.5528487236475
1227,1427.000,21.85971898741991,1260.71781901258
1228,1428.000,31.088177525376068,1260.8807334746239
1229,1429.000,32.71479758616147,1261.0415914138384
1230,1430.000,35.643112859883104,1261.200392140117
1231,1431.000,32.09979003081253,1261.3571349691874
1232,1432.000,30.527067777385355,1261.5118192226146
1233,1433.000,33.208098772204494,1261.6644442277955
1234,1434.000,31.810626682035718,1261.8150093179643
1235,1435.000,36.73517416781124,1261.9635138321887
1236,1436.000,38.01525388462892,1262.1099571153711
1237,1437.000,41.55650348174936,1262.2543385182507
1238,1438.000,57.1270986026002,1262.3966573973998
1239,1439.000,73.93221588477422,1262.5369131152258
1240,1440.000,75.56524696002771,1262.6751050399723
1241,1441.000,86.84804045428405,1262.811232545716
1242,1442.000,103.11233998762987,1262.94529501237
1243,1443.000,117.4136791743183,1263.0772918256816
1244,1444.000,129.35530662276665,1263.2072223772334
1245,1445.000,142.75949193555812,1263.3350860644418
1246,1446.000,173.94967270943994,1263.46088229056
1247,1447.000,178.3923415353254,1263.5846104646746
1248,1448.000,208.52848499829156,1263.7062700017084
1249,1449.000,217.44552367758274,1263.8258603224172
1250,1450.000,226.26057614660658,1263.9433808533934
1251,1451.000,209.38180797293626,1264.0588310270637
1252,1452.000,197.84974671830992,1264.17221028169
1253,1453.000,188.5236779386314,1264.2835180613686
1254,1454.000,171.57491718396955,1264.3927538160306
1255,1455.000,150.12375799855658,1264.4999170014435
1256,1456.000,138.2874089207919,1264.605007079208
1257,1457.000,119.07368148324008,1264.70802351676
1258,1458.000,97.21332121262844,1264.8089657873716
1259,1459.000,84.16344962985204,1264.907833370148
1260,1460.000,74.14681424996934,1265.0046257500308
1261,1461.000,71.03291258220497,1265.099342417795
1262,1462.000,54.066101129947356,1265.1919828700527
1263,1463.000,51.21756939075135,1265.2825466092486
1264,1464.000,34.04953485633587,1265.3710331436641
1265,1465.000,48.31378501258564,1265.4574419874143
1266,1466.000,45.812812339549964,1265.54177266045
1267,1467.000,31.732493311443704,1265.6240246885563
1268,1468.000,21.804884396646912,1265.7041976033531
1269,1469.000,31.53214405770359,1265.7822909422964
1270,1470.000,40.680472751323805,1265.8583042486762
1271,1471.000,24.940411928383128,1265.9322370716168
1272,1472.000,21.195279033920315,1266.0040889660797
1273,1473.000,30.236152507141924,1266.073859492858
1274,1474.000,12.569821781417204,1266.1415482185828
1275,1475.000,26.359548284281345,1266.2071547157186
1276,1476.000,27.79550643743596,1266.270678562564
1277,1477.000,25.897844656745747,1266.3321193432544
1278,1478.000,9.184664352240816,1266.3914766477592
1279,1479.000,12.385407928117047,1266.4487500718828
1280,1480.000,20.094215782735773,1266.5039392172641
1281,1481.000,17.640660308622273,1266.5570436913777
1282,1482.000,22.811922892467237,1266.6080631075329
1283,1483.000,12.191946915127119,1266.656997084873
1284,1484.000,15.39646375162306,1266.7038452483769
1285,1485.000,18.98126177114068,1266.7486072288593
1286,1486.000,9.279534337031691,1266.7912826629683
1287,1487.000,17.257031806811938,1266.8318711931881
1288,1488.000,6.401457532163249,1266.8703724678367
1289,1489.000,15.923430858931852,1266.906786141068
1290,1490.000,19.25796212712953,1266.9411118728706
1291,1491.000,13.4366526709332,1266.9733493290669
1292,1492.000,11.962330818684222,1267.0034981813158
1293,1493.000,0.0,1267.0315581071109
1294,1494.000,8.951982210220422,1267.0575287897796
1295,1495.000,6.974287081515058,1267.081409918485
1296,1496.000,13.96845281177525,1267.1032011882248
1297,1497.000,2.174183700167532,1267.1229022998325
1298,1498.000,4.15290804002484,1267.1405129599752
1299,1499.000,6.010235118843639,1267.1560328811563
1300,1500.000,3.0975052182875515,1267.1694617817125
1301,1501.000,10.557596614183694,1267.1807993858163
1302,1502.000,3.400084576524023,1267.190045423476
1303,1503.000,0.0,1267.1971996305326
1304,1504.000,6.934926251335355,1267.2022617486646
1305,1505.000,13.761807474616944,1267.2052315253832
1306,1506.000,12.821676285963804,1267.2061087140362
1307,1507.000,4.797352926195572,1267.2048930738044
1308,1508.000,8.547979630293867,1267.201584369706
1309,1509.000,8.401143627408146,1267.196182372592
1310,1510.000,16.11574714085009,1267.1886868591498
1311,1511.000,3.237182388099882,1267.1790976119
1312,1512.000,10.90796558080001,1267.1674144192
1313,1513.000,5.888401924759137,1267.1536370752408
1314,1514.000,3.126544619951801,1267.1377653800482
1315,1515.000,15.226215860515367,1267.1197991394847
1316,1516.000,10.768441834754185,1267.0997381652458
1317,1517.000,0.0,1267.077582274863
1318,1518.000,14.110664708298373,1267.0533312917016
1319,1519.000,10.374462955036734,1267.0269850449633
1320,1520.000,9.42153663031604,1266.998543369684
1321,1521.000,6.232277893266655,1266.9680061067334
1322,1522.000,7.245134897182197,1266.9353731028177
1323,1523.000,13.406442789522316,1266.9006442104776
1324,1524.000,12.721818711911055,1266.863819288089
1325,1525.000,12.21811480013821,1266.8248981998618
1326,1526.000,15.125378184158762,1266.7838808158413
1327,1527.000,20.97086998809141,1266.7407670119087
1328,1528.000,0.0,1266.6955566697777
1329,1529.000,5.530167323001251,1266.6482496769988
1330,1530.000,25.642822073042453,1266.5988459269574
1331,1531.000,2.318250681127438,1266.5473453188727
1332,1532.000,9.47314924219927,1266.4937477578007
1333,1533.000,0.0,1266.4380531546306
1334,1534.000,2.520429573913134,1266.380261426087
1335,1535.000,3.39901250527123,1266.3203724947289
1336,1536.000,0.0,1266.2583862889508
1337,1537.000,0.0,1266.194302742983
1338,1538.000,12.784402203110858,1266.1281217968892
1339,1539.000,11.312223603431221,1266.0598433965688
1340,1540.000,5.864038506244242,1265.9894674937557
1341,1541.000,9.687603953981352,1265.9169940460185
1342,1542.000,0.2948299832371504,1265.842423016763
1343,1543.000,4.925142624773798,1265.7657543752262
1344,1544.000,2.754320903517737,1265.6869880964823
1345,1545.000,15.058532838559813,1265.6061241614402
1346,1546.000,9.78399944315629,1265.5231625568438
1347,1547.000,20.25533572472932,1265.4381032752706
1348,1548.000,10.7148846848645,1265.3509463151354
1349,1549.000,11.380900319313923,1265.261691680686
1350,1550.000,2.220841617994438,1265.1703393820055
1351,1551.000,5.82004156498806,1265.076889435012
1352,1552.000,13.155340138541533,1264.9813418614585
1353,1553.000,0.8150653110667463,1264.8836966889332
1354,1554.000,22.903491049140484,1264.7839539508595
1355,1555.000,13.557321313504872,1264.682113686495
1356,1556.000,8.751069059067959,1264.578175940932
1357,1557.000,8.313598234901065,1264.4721407650989
1358,1558.000,18.454612784242954,1264.364008215757
1359,1559.000,23.70354564449508,1264.253778355505
1360,1560.000,18.57742674722499,1264.141451252775
1361,1561.000,21.07240101816592,1264.027026981834
1362,1562.000,20.888112377215293,1263.9105056227847
1363,1563.000,18.070477738435784,1263.7918872615642
1364,1564.000,21.489235010055836,1263.6711719899442
1365,1565.000,20.83348809446761,1263.5483599055324
1366,1566.000,22.44567388823043,1263.4234511117695
1367,1567.000,33.77145128206621,1263.2964457179337
1368,1568.000,22.148358160864518,1263.1673438391356
1369,1569.000,38.359056403678096,1263.0361455963218
1370,1570.000,25.69681288372476,1262.9028511162753
1371,1571.000,39.19575446838917,1262.7674605316108
1372,1572.000,55.319969019219116,1262.629973980781
1373,1573.000,47.30135139192839,1262.4903916080716
1374,1574.000,57.52897543639642,1262.3487135636035
1375,1575.000,63.79352099666676,1262.2049400033331
1376,1576.000,93.28452691094799,1262.059071089052
1377,1577.000,103.2270360116147,1261.9111069883852
1378,1578.000,105.67419312520565,1261.7610478747943
1379,1579.000,141.19759107242498,1261.608893927575
1380,1580.000,159.18109966814222,1261.4546453318578
1381,1581.000,195.14262572139182,1261.2983022786082
1382,1582.000,219.48197703537357,1261.1398649646264
1383,1583.000,226.16699340745095,1260.979333592549
1384,1584.000,219.98381162915462,1260.8167083708454
1385,1585.000,215.21817148617924,1260.6519895138208
1386,1586.000,170.8214957583839,1260.4851772416162
1387,1587.000,166.81088521979427,1260.3162717802056
1388,1588.000,138.44815663859936,1260.1452733614005
1389,1589.000,128.07886177715613,1259.972182222844
1390,1590.000,141.16715839198332,1259.7969986080166
1391,1591.000,123.30475423376629,1259.6197227662337
1392,1592.000,129.4262140473552,1259.4403549526448
1393,1593.000,142.37528857176585,1259.2588954282342
1394,1594.000,163.16896754017853,1259.0753444598215
1395,1595.000,172.8995696799393,1258.8897023200607
1396,1596.000,218.46599671255876,1258.7019692874412
1397,1597.000,262.0007473537123,1258.5121456462878
1398,1598.000,308.9091873132402,1258.3202316867598
1399,1599.000,416.09354229514975,1258.1262277048502
1400,1600.000,505.6364149976114,1257.9301340023885
1401,1601.000,593.3129211129612,1257.7319508870387
1402,1602.000,632.5706103276998,1257.5316786723001
1403,1603.000,597.6139963224946,1257.3293176775055
1404,1604.000,499.1113237721763,1257.1248682278238
1405,1605.000,406.14274134574134,1256.9183306542586
1406,1606.000,313.3910887063514,1256.7097052936485
1407,1607.000,257.214388511333,1256.498992488667
1408,1608.000,203.64942241217796,1256.2861925878221
1409,1609.000,162.43240305454287,1256.0713059454572
1410,1610.000,126.1353790782498,1255.8543329217503
1411,1611.000,101.19032611728517,1255.6352738827147
1412,1612.000,86.85528779980245,1255.4141292001975
1413,1613.000,87.2789277481179,1255.190899251882
1414,1614.000,66.44099057871358,1254.9655844212864
1415,1615.000,47.211406902235694,1254.7381850977642
1416,1616.000,47.35844032349951,1254.5087016765006
1417,1617.000,44.968253441479874,1254.2771345585202
1418,1618.000,45.08167184932063,1254.0434841506794
1419,1619.000,37.37709613432958,1253.8077508656704
1420,1620.000,30.198231877978515,1253.5699351220214
1421,1621.000,39.4402626559056,1253.3300373440943
1422,1622.000,28.5138140379147,1253.0880579620853
1423,1623.000,24.434314587972494,1252.8439974120274
1424,1624.000,19.670425864212802,1252.5978561357872
1425,1625.000,20.44400441893322,1252.3496345810668
1426,1626.000,13.108469798597525,1252.0993332014025
1427,1627.000,7.5119515438341296,1251.8469524561658
1428,1628.000,24.080054189436623,1251.5924928105633
1429,1629.000,21.07580026436267,1251.3359547356374
1430,1630.000,15.512127291736306,1251.0773387082636
1431,1631.000,13.518891788846304,1250.8166452111536
1432,1632.000,15.559091267146414,1250.5538747328535
1433,1633.000,23.3334412322547,1250.2890277677452
1434,1634.000,0.0,1250.022104816043
1435,1635.000,5.203893616200958,1249.7531063837991
1436,1636.000,7.6399600171012025,1249.4820329828988
1437,1637.000,17.791981868935636,1249.2088851310643
1438,1638.000,7.6750566481500755,1248.9336633518499
1439,1639.000,2.833604825353177,1248.6563681746468
1440,1640.000,0.6585378653198859,1248.3770001346802
1441,1641.000,7.737509226989459,1248.0955597730106
1442,1642.000,0.0,1247.8120476365336
1443,1643.000,0.0,1247.5264642779796
1444,1644.000,0.0,1247.238810255913
1445,1645.000,14.603791865264611,1246.9490861347354
1446,1646.000,13.408232515320151,1246.6572924846798
1447,1647.000,5.391916118181371,1246.3634298818185
1448,1648.000,11.636542091944875,1246.067498908055
1449,1649.000,7.206763848871333,1245.7695001511286
1450,1650.000,1.9163087953852482,1245.4694342046148
1451,1651.000,4.6402743320763875,1245.1673016679235
1452,1652.000,6.071794853702158,1244.8631031462978
1453,1653.000,13.282217749181427,1244.5568392508185
1454,1654.000,0.0,1244.2485105984003
1455,1655.000,0.5170191882089057,1243.938117811791
1456,1656.000,2.053385480424595,1243.6256615195755
1457,1657.000,7.821675643827348,1243.3111423561727
1458,1658.000,8.395682038163613,1242.9945609618364
1459,1659.000,2.459177017343791,1242.6759179826563
1460,1660.000,0.0,1242.3552140705553
1461,1661.000,0.0,1242.0324498832933
1462,1662.000,0.0,1241.707626084463
1463,1663.000,0.0,1241.3807433434934
1464,1664.000,0.0,1241.0518023356476
1465,1665.000,3.2785022579762426,1240.7208037420237
1466,1666.000,4.4542347504441295,1240.387748249556
1467,1667.000,8.201859448987989,1240.052636551012
1468,1668.000,16.828289655004255,1239.7154693449957
1469,1669.000,3.6412556640559615,1239.376247335944
1470,1670.000,1.3826657658689783,1239.034971234131
1471,1671.000,5.598928244336548,1238.6916417556633
1472,1672.000,0.0,1238.3462596224851
1473,1673.000,0.0,1237.9988255623728
1474,1674.000,0.0,1237.6493403089394
1475,1675.000,4.544965398366685,1237.2978046016333
1476,1676.000,0.0,1236.9442191857368
1477,1677.000,0.0,1236.588584812366
1478,1678.000,0.0,1236.2309022384743
1479,1679.000,0.0,1235.8711722268486
1480,1680.000,3.7816814538896324,1235.5093955461105
1481,1681.000,0.0,1235.1455729707177
1482,1682.000,0.0,1234.7797052809617
1483,1683.000,6.316467737029598,1234.4117932629704
1484,1684.000,0.0,1234.0418377087046
1485,1685.000,0.0,1233.6698394159612
1486,1686.000,4.67093681162828,1233.2957991883718
1487,1687.000,0.0,1232.9197178354023
1488,1688.000,0.0,1232.5415961723552
1489,1689.000,0.0,1232.1614350203663
1490,1690.000,0.0,1231.7792352064064
1491,1691.000,0.0,1231.3949975632831
1492,1692.000,0.0,1231.008722929636
1493,1693.000,3.9063018500578437,1230.6204121499422
1494,1694.000,0.0,1230.2300660745111
1495,1695.000,5.431091440510272,1229.8376855594897
1496,1696.000,0.0,1229.4432714668585
1497,1697.000,0.0,1229.0468246644339
1498,1698.000,0.8255219741354267,1228.6483460258646
1499,1699.000,0.0,1228.2478364306385
1500,1700.000,4.264840235925249,1227.8452967640746
1501,1701.000,0.0,1227.4407279173274
1502,1702.000,0.0,1227.0341307873882
1503,1703.000,0.0680177229171477,1226.6255062770829
1504,1704.000,5.815444704930769,1226.2148552950691
1505,1705.000,0.0,1225.8021787558444
1506,1706.000,0.7523564202624584,1225.3874775797376
1507,1707.000,5.517253307086548,1224.9707526929135
1508,1708.000,2.3652789726284027,1224.5520050273717
1509,1709.000,0.0,1224.1312355209468
1510,1710.000,0.0,1223.7084451173082
1511,1711.000,5.770859234039108,1223.2836347659609
1512,1712.000,9.519085577755959,1222.856805422244
1513,1713.000,0.3471489526687037,1222.4279580473312
1514,1714.000,0.0,1221.997093608233
1515,1715.000,0.0,1221.5642130777926
1516,1716.000,0.0,1221.1293174346895
1517,1717.000,3.332969336563565,1220.6924076634364
1518,1718.000,0.6667002456169939,1220.253484754383
1519,1719.000,0.0,1219.8125497037136
1520,1720.000,0.17798148655333534,1219.3696035134467
1521,1721.000,0.0,1218.924647191435
1522,1722.000,0.0,1218.477681751368
1523,1723.000,0.0,1218.0287082127693
1524,1724.000,7.797198399004628,1217.5777276009953
1525,1725.000,0.0,1217.1247409472412
1526,1726.000,3.6462807114646694,1216.6697492885353
1527,1727.000,0.0,1216.2127536677383
1528,1728.000,0.24240386644851242,1215.7537551335515
1529,1729.000,0.0,1215.2927547405054
1530,1730.000,0.0,1214.8297535489692
1531,1731.000,0.41185237485569814,1214.3647526251443
1532,1732.000,0.0,1213.8977530410693
1533,1733.000,0.0,1213.4287558746162
1534,1734.000,0.0,1212.9577622094932
1535,1735.000,11.072243864757866,1212.4847731352422
1536,1736.000,0.0,1212.0097897472403
1537,1737.000,5.225529853299349,1211.5328131467006
1538,1738.000,4.47372555933066,1211.0538444406693
1539,1739.000,0.0,1210.5728847420294
1540,1740.000,0.0,1210.0899351694964
1541,1741.000,0.0,1209.604996847623
1542,1742.000,0.0,1209.1180709067962
1543,1743.000,0.0,1208.629158483238
1544,1744.000,2.475107280995644,1208.1382607190044
1545,1745.000,0.0,1207.6453787619869
1546,1746.000,0.0,1207.1505137659128
1547,1747.000,0.0,1206.6536668903423
1548,1748.000,0.0,1206.1548393006713
1549,1749.000,2.7094338318670452,1205.654032168133
1550,1750.000,0.0,1205.1512466697918
1551,1751.000,0.0,1204.6464839885496
1552,1752.000,4.7294976868583944,1204.1397453131417
1553,1753.000,0.0,1203.6310318381404
1554,1754.000,0.0,1203.1203447639498
1555,1755.000,0.7550117031901209,1202.60768529681
1556,1756.000,1.6589733512018938,1202.0930546487982
1557,1757.000,6.52282796217537,1201.5764540378245
1558,1758.000,4.315147312365752,1201.0578846876342
1559,1759.000,0.0,1200.537347827808
1560,1760.000,9.304406306238434,1200.0148446937615
1561,1761.000,7.224771473256851,1199.4903765267431
1562,1762.000,7.102083426161016,1198.963944573839
1563,1763.000,0.0,1198.4355500879687
1564,1764.000,0.0,1197.9051943278882
1565,1765.000,0.7441044418135334,1197.3728785581864
1566,1766.000,1.8004909507112643,1196.8386040492887
1567,1767.000,1.1539829225459926,1196.302372077454
1568,1768.000,0.0,1195.7641839247772
1569,1769.000,0.0,1195.2240408791874
1570,1770.000,1.5423677655501251,1194.68194423445
1571,1771.000,0.0,1194.1378952901632
1572,1772.000,0.0,1193.5918953517614
1573,1773.000,0.0,1193.0439457305147
1574,1774.000,0.0,1192.4940477435262
1575,1775.000,0.0,1191.9422027137348
1576,1776.000,0.0,1191.388411969915
1577,1777.000,6.995942153324677,1190.8326768466752
1578,1778.000,4.38621231554157,1190.2749986844585
1579,1779.000,5.7869371704548485,1189.7153788295452
1580,1780.000,0.0,1189.1538186340467
1581,1781.000,0.0,1188.590319455913
1582,1782.000,4.258286341071653,1188.0248826589284
1583,1783.000,11.29888738729187,1187.4575096127082
1584,1784.000,0.0,1186.8882016927075
1585,1785.000,6.5832797197861055,1186.3169602802138
1586,1786.000,2.6634802376490825,1185.743786762351
1587,1787.000,0.0,1185.1686825320755
1588,1788.000,11.638756011817577,1184.5916489881824
1589,1789.000,0.0,1184.0126875352973
1590,1790.000,0.0,1183.4317995838833
1591,1791.000,6.527514449760474,1182.8489865502395
1592,1792.000,0.0,1182.2642498564965
1593,1793.000,5.401413069377213,1181.6775909306227
1594,1794.000,0.0,1181.0890112064194
1595,1795.000,6.835544876474387,1180.4985121235256
1596,1796.000,0.0,1179.9060951274118
1597,1797.000,0.0,1179.3117616693864
1598,1798.000,2.4848567934088805,1178.7155132065911
1599,1799.000,0.0,1178.1173512020023
1600,1800.000,7.971719875568169,1177.5172771244318
1601,1801.000,0.5600275514746045,1176.9152924485254
1602,1802.000,0.0,1176.3113986547667
1603,1803.000,0.0,1175.7055972294716
1604,1804.000,1.7961893352080551,1175.0978896647919
1605,1805.000,3.3179525412865587,1174.4882774587134
1606,1806.000,11.363656884943566,1173.8767621150564
1607,1807.000,11.78283585652116,1173.2633451434788
1608,1808.000,12.920093940529341,1172.6480280594706
1609,1809.000,10.549052615640903,1172.030812384359
1610,1810.000,3.810021354696346,1171.4116996453035
1611,1811.000,3.3242866246982885,1170.7906913753018
1612,1812.000,10.734045886817057,1170.1677891131828
1613,1813.000,9.729089596385847,1169.542994403614
1614,1814.000,0.0,1168.9163087970946
1615,1815.000,3.7296641500397527,1168.2877338499602
1616,1816.000,6.222258875618536,1167.6572711243814
1617,1817.000,3.0446448116358624,1167.0249221883641
1618,1818.000,7.481679384251038,1166.390688615749
1619,1819.000,7.53367001379047,1165.7545719862096
1620,1820.000,1.9915201147418884,1165.116573885258
1621,1821.000,9.350611095762815,1164.4766959042372
1622,1822.000,1.4753303596712612,1163.8349396403287
1623,1823.000,0.0,1163.1913066965456
1624,1824.000,6.202707318260309,1162.5457986817396
1625,1825.000,0.7495077894061524,1161.8984172105938
1626,1826.000,8.219459096369746,1161.2491639036302
1627,1827.000,4.099554612799693,1160.5980403872004
1628,1828.000,8.492653706504825,1159.9450482934951
1629,1829.000,0.0,1159.2901892605387
1630,1830.000,9.39550606780972,1158.6334649321902
1631,1831.000,15.376512041856358,1157.9748769581436
1632,1832.000,6.426397006071284,1157.3144269939287
1633,1833.000,6.171961299091208,1156.652116700909
1634,1834.000,0.0,1155.9879477462828
1635,1835.000,16.881050196915567,1155.3219218030845
1636,1836.000,2.125957449816042,1154.654040550184
1637,1837.000,9.681612327717176,1153.9843056722827
1638,1838.000,8.382155140079703,1153.3127188599203
1639,1839.000,10.39414119053049,1152.6392818094696
1640,1840.000,10.662546776859926,1151.9639962231402
1641,1841.000,5.372880191024933,1151.286863808975
1642,1842.000,0.0,1150.6078862808515
1643,1843.000,7.368984641515453,1149.9270653584845
1644,1844.000,6.609865232580432,1149.2444027674196
1645,1845.000,4.5428697609584106,1148.5599002390416
1646,1846.000,3.2479994894326865,1147.8735595105672
1647,1847.000,0.0,1147.1853823250492
1648,1848.000,13.422950568623946,1146.4953704313762
1649,1849.000,0.0,1145.8035255842717
1650,1850.000,7.15521545570914,1145.109849544291
1651,1851.000,11.16968092217212,1144.414344077828
1652,1852.000,10.34114204289176,1143.7170109571082
1653,1853.000,0.0,1143.017851960196
1654,1854.000,9.641449129012244,1142.3168688709877
1655,1855.000,2.6220595207842052,1141.6140634792157
1656,1856.000,12.029743419553142,1140.9094375804468
1657,1857.000,5.660085023917418,1140.2029929760827
1658,1858.000,5.414180526639484,1139.4947314733606
1659,1859.000,1.4985781146478985,1138.7846548853522
1660,1860.000,2.664135969036124,1138.0727650309639
1661,1861.000,1.9805672650632005,1137.3590637349369
1662,1862.000,16.803604172151154,1136.643552827849
1663,1863.000,9.422153853890677,1135.9262341461094
1664,1864.000,3.677103468031646,1135.2071095319684
1665,1865.000,12.756254166497001,1134.4861808335029
1666,1866.000,3.996426095369088,1133.763449904631
1667,1867.000,10.720198394895533,1133.0389186051045
1668,1868.000,13.454493199492617,1132.3125888005075
1669,1869.000,7.698461637738092,1131.584462362262
1670,1870.000,11.51950383237704,1130.854541167623
1671,1871.000,11.719369900315996,1130.122827099684
1672,1872.000,3.6426239526333575,1129.3893220473667
1673,1873.000,13.391220094566052,1128.6540279054338
1674,1874.000,2.054492425518447,1127.9169465744815
1675,1875.000,4.981339039062277,1127.1780799609378
1676,1876.000,11.295758022930158,1126.4374299770698
1677,1877.000,11.737877459022457,1125.6949985409776
1678,1878.000,12.142842423404772,1124.9507875765953
1679,1879.000,10.443202986306005,1124.204799013694
1680,1880.000,1.3979402121221938,1123.4570347878778
1681,1881.000,16.260131159411458,1122.7074968405886
1682,1882.000,3.1993458809026833,1121.9561871190974
1683,1883.000,2.0453274234828314,1121.2031075765171
1684,1884.000,21.36322582820935,1120.4482601717907
1685,1885.000,7.625969130301428,1119.6916468696986
1686,1886.000,5.013526359144862,1118.933269640855
1687,1887.000,1.3593915382903106,1118.1731304617097
1688,1888.000,15.20993268545385,1117.411231314546
1689,1889.000,1.9639358125164108,1116.6475741874835
1690,1890.000,5.51833592552407,1115.882161074476
1691,1891.000,13.047762024687472,1115.1149939753125
1692,1892.000,1.1115901043822305,1114.3460748956177
1693,1893.000,26.127414153150312,1113.5754058468497
1694,1894.000,9.098558153696786,1112.8029888463032
1695,1895.000,13.27561508289432,1112.0288259171057
1696,1896.000,17.021487911778422,1111.2529190882217
1697,1897.000,12.39270760555246,1110.4752703944475
1698,1898.000,14.091523123580373,1109.6958818764197
1699,1899.000,8.759252419395125,1108.9147555806048
1700,1900.000,22.554435440693624,1108.1318935593063
1701,1901.000,12.152001129337577,1107.3472978706625
1702,1902.000,24.711310421353346,1106.5609705786467
1703,1903.000,20.262364246933203,1105.7729137530669
1704,1904.000,20.294957530435568,1104.9831294695643
1705,1905.000,9.648487190381275,1104.1916198096187
1706,1906.000,12.618211139457799,1103.3983868605421
1707,1907.000,4.618416284518162,1102.6034327154819
1708,1908.000,22.514577526578705,1101.8067594734214
1709,1909.000,4.779429760822495,1101.0083692391775
1710,1910.000,12.369719876596946,1100.208264123403
1711,1911.000,19.891708757415017,1099.406446242585
1712,1912.000,2.4124782809558383,1098.6029177190442
1713,1913.000,19.098029319059606,1097.7976806809404
1714,1914.000,5.839892737736818,1096.990737262263
1715,1915.000,15.315495397158656,1096.1820896028414
1716,1916.000,15.928872151664109,1095.371739848336
1717,1917.000,18.599045849756067,1094.559690150244
1718,1918.000,16.534500334103996,1093.745942665896
1719,1919.000,13.68507644153874,1092.9304995584612
1720,1920.000,17.80213100306173,1092.1133629969383
1721,1921.000,26.484754843834253,1091.2945351561657
1722,1922.000,9.63162378318657,1090.4740182168134
1723,1923.000,17.26624863461211,1089.651814365388
1724,1924.000,15.93860020576949,1088.8279257942306
1725,1925.000,20.72373029848086,1088.0023547015192
1726,1926.000,10.817203708737225,1087.1751032912628
1727,1927.000,7.061853226693529,1086.3461737733064
1728,1928.000,26.66704363666713,1085.515568363333
1729,1929.000,17.829986717143584,1084.6832892828563
1730,1930.000,19.35412424077049,1083.8493387592296
1731,1931.000,40.95975597436427,1083.0137190256357
1732,1932.000,19.596349678902243,1082.1764323210978
1733,1933.000,30.46935210953052,1081.3374808904696
1734,1934.000,22.289885015559094,1080.4968669844409
1735,1935.000,9.247506140461837,1079.654592859538
1736,1936.000,15.013084221878444,1078.8106607781215
1737,1937.000,22.902344991615564,1077.9650730083845
1738,1938.000,21.561477175641357,1077.1178318243587
1739,1939.000,27.77842949409137,1076.2689395059085
1740,1940.000,22.249141661265867,1075.418398338734
1741,1941.000,17.37970238563048,1074.5662106143695
1742,1942.000,15.347077369815679,1073.7123786301843
1743,1943.000,19.36689731061665,1072.8569046893833
1744,1944.000,26.371108898993498,1071.9997911010064
1745,1945.000,29.63982482007259,1071.1410401799274
1746,1946.000,37.51765975314447,1070.2806542468554
1747,1947.000,22.81544537166451,1069.4186356283356
1748,1948.000,20.781715343252927,1068.5549866567471
1749,1949.000,11.02304132969789,1067.6897096703021
1750,1950.000,13.658251986949153,1066.8228070130508
1751,1951.000,16.355956965122914,1065.954281034877
1752,1952.000,22.675116908500968,1065.084134091499
1753,1953.000,32.9276044555279,1064.2123685444722
1754,1954.000,26.836408238816375,1063.3389867611836
1755,1955.000,20.9982478851432,1062.4639911148568
1756,1956.000,31.563593015448987,1061.587383984551
1757,1957.000,21.495593244841075,1060.709167755159
1758,1958.000,22.05281518259244,1059.8293448174077
1759,1959.000,21.10495343213688,1058.9479175678632
1760,1960.000,21.94733859107896,1058.064888408921
1761,1961.000,28.806971251184677,1057.1802597488154
1762,1962.000,19.627339998385878,1056.2940340016141
1763,1963.000,27.667589412779535,1055.4062135872205
1764,1964.000,19.64332706862865,1054.5168009313713
1765,1965.000,20.133162534360736,1053.6257984656393
1766,1966.000,22.607209372567922,1052.733208627432
1767,1967.000,21.801792140007137,1051.839033859993
1768,1968.000,30.206312387601656,1050.9432766123984
1769,1969.000,32.40170266043924,1050.0459393395608
1770,1970.000,24.159290497770826,1049.1470245022292
1771,1971.000,26.463220433016886,1048.2465345669832
1772,1972.000,19.680047993759672,1047.3444720062403
1773,1973.000,24.391452701747085,1046.440839298253
1774,1974.000,25.44765907289161,1045.5356389271085
1775,1975.000,35.95924461727168,1044.6288733827282
1776,1976.000,30.19572283913135,1043.7205451608686
1777,1977.000,26.722320236877295,1042.8106567631228
1778,1978.000,30.15147430308457,1041.8992106969154
1779,1979.000,36.53938952449107,1040.986209475509
1780,1980.000,30.932017382001504,1040.0716556179984
1781,1981.000,35.769285350683276,1039.1555516493167
1782,1982.000,29.943231899770808,1038.2379001002291
1783,1983.000,35.25291549266308,1037.318703507337
1784,1984.000,31.69720058692201,1036.397964413078
1785,1985.000,33.575451634279716,1035.4756853657202
1786,1986.000,26.094047080628798,1034.5518689193711
1787,1987.000,43.218335366028896,1033.6265176339712
1788,1988.000,38.914068924704225,1032.6996340752958
1789,1989.000,28.564413185044486,1031.7712208149555
1790,1990.000,29.48910456960425,1030.8412804303957
1791,1991.000,27.188289495102026,1029.909815504898
1792,1992.000,27.060278372422545,1028.9768286275776
1793,1993.000,31.792797606616205,1028.0423223933838
1794,1994.000,33.569767596898146,1027.106299403102
1795,1995.000,22.273289736648394,1026.1687622633517
1796,1996.000,37.21057741341042,1025.2297135865895
1797,1997.000,39.62719900889692,1024.2891559911031
1798,1998.000,33.59449389898077,1023.3470921010191
1799,1999.000,33.14505845370263,1022.4035245462974
1800,2000.000,37.25749903726819,1021.4584559627317
