pixel_index,raman_shift_cm-1,intensity
0,200.000,-1.5730029632937317
1,201.000,6.301527921565992
2,202.000,8.608427038669788
3,203.000,-3.829868018333059
4,204.000,-0.968321623043721
5,205.000,-8.883283116361383
6,206.000,-1.9783008065298873
7,207.000,-8.15621896918475
8,208.000,-2.440688847400679
9,209.000,4.552047348261908
10,210.000,3.660425439709627
11,211.000,-0.37578471873104036
12,212.000,-9.977815240360485
13,213.000,-3.3140852061532087
14,214.000,-1.547563664804784
15,215.000,-1.0008516327790176
16,216.000,-4.048686094354878
17,217.000,6.297032998326529
18,218.000,7.129928725214768
19,219.000,-6.391463801697114
20,220.000,-11.26715443841897
21,221.000,-1.6395840090113438
22,222.000,5.174382694367921
23,223.000,2.8293369114163625
24,224.000,-0.33568008635973
25,225.000,-1.0834279956928867
26,226.000,0.9165175183991323
27,227.000,-4.8272651774344695
28,228.000,-0.4575896849238461
29,229.000,-8.000536574225805
30,230.000,5.564092616028745
31,231.000,3.0349653786885824
32,232.000,-2.343741761965532
33,233.000,2.0543327497321116
34,234.000,17.791554500785594
35,235.000,14.37500610949013
36,236.000,-9.348043774615292
37,237.000,5.821801529205402
38,238.000,6.271725732838377
39,239.000,-7.827060420727435
40,240.000,-10.338101157447227
41,241.000,-1.613252672267265
42,242.000,-4.95737712917213
43,243.000,0.2987073387684518
44,244.000,7.1372216293525526
45,245.000,0.1411686711985567
46,246.000,0.02729142369901183
47,247.000,4.777704876972564
48,248.000,3.699936051817758
49,249.000,4.475499999665544
50,250.000,8.316441802532381
51,251.000,3.240127572973279
52,252.000,13.889908454034185
53,253.000,-5.743907380793985
54,254.000,5.874995272376907
55,255.000,4.897135647784751
56,256.000,3.1619850099714313
57,257.000,4.152325653734408
58,258.000,1.9181509040808464
59,259.000,-3.3837058838204825
60,260.000,1.6557926753147854
61,261.000,6.011810996838676
62,262.000,4.699866526124481
63,263.000,2.8517007385192983
64,264.000,3.8868001392973497
65,265.000,-3.9938067363873984
66,266.000,0.8175986764517802
67,267.000,4.282715972587766
68,268.000,-8.886282223468015
69,269.000,-4.950663257512474
70,270.000,-2.0882224456976815
71,271.000,-1.9213670745780291
72,272.000,2.3226525988429785
73,273.000,-7.471046652935399
74,274.000,6.114518972043243
75,275.000,-0.7792236948549771
76,276.000,1.6697472070982258
77,277.000,6.343992567946202
78,278.000,5.62055230700139
79,279.000,2.4842083727970703
80,280.000,8.7475407430411
81,281.000,4.420804424568473
82,282.000,3.3579874532946405
83,283.000,6.29641489416781
84,284.000,6.8072818411227445
85,285.000,5.66029641703301
86,286.000,-1.0673172263352626
87,287.000,6.128034091628365
88,288.000,4.197367580333093
89,289.000,-11.990448522061342
90,290.000,-0.30694594869157754
91,291.000,-9.86907440403661
92,292.000,-16.81999156396614
93,293.000,0.7169419242130743
94,294.000,-2.387975558289895
95,295.000,-7.371645601797468
96,296.000,-2.0325437682101892
97,297.000,1.35850140894604
98,298.000,-2.358265575526957
99,299.000,2.0478038014526874
100,300.000,0.8888390912010209
101,301.000,0.10663287322017823
102,302.000,-5.368596244848277
103,303.000,1.6431703727300828
104,304.000,-2.61021061026554
105,305.000,-0.19721450205724977
106,306.000,-6.120895582915864
107,307.000,-4.027352105208138
108,308.000,-2.647234293443489
109,309.000,-9.156310344321128
110,310.000,-0.20046242677722148
111,311.000,7.102613317968235
112,312.000,5.61260277636427
113,313.000,6.994723862481919
114,314.000,-6.534903482032519
115,315.000,0.07180371199456204
116,316.000,5.977335441218088
117,317.000,-1.1828682702730475
118,318.000,4.1941326289967265
119,319.000,-12.747562782157274
120,320.000,3.8935366023730467
121,321.000,-0.769988084058582
122,322.000,-2.8729596808997258
123,323.000,-6.438733000446064
124,324.000,6.195294172110948
125,325.000,-5.0598319213626155
126,326.000,-4.1083980119897205
127,327.000,6.07695719606977
128,328.000,3.9511230255725422
129,329.000,-6.517827173855494
130,330.000,7.494252974234087
131,331.000,-3.9147411269349277
132,332.000,7.78810295258927
133,333.000,1.5058486694402973
134,334.000,3.1193565068851967
135,335.000,2.995280974778666
136,336.000,7.535035609515376
137,337.000,8.809006973983287
138,338.000,0.11983865751608391
139,339.000,3.821604275846539
140,340.000,-0.5855965289405276
141,341.000,-5.577311088455303
142,342.000,-9.98283870805028
143,343.000,-11.70884366686687
144,344.000,1.8744177821168932
145,345.000,2.947803412040116
146,346.000,-11.136931977888253
147,347.000,0.8802034375629546
148,348.000,-3.3775704903988526
149,349.000,3.6405581153617277
150,350.000,1.0864761578619664
151,351.000,-6.3916724340462
152,352.000,11.843085294276534
153,353.000,-6.791157676790249
154,354.000,-3.1496213411732015
155,355.000,-0.535278667152852
156,356.000,9.193133402589638
157,357.000,-4.300171049074606
158,358.000,0.9844910862309462
159,359.000,-9.535885057659016
160,360.000,7.612196678501164
161,361.000,-5.508330520678442
162,362.000,-4.269365445270637
163,363.000,2.6409961399214126
164,364.000,-1.5045175046817576
165,365.000,-3.7350870934842533
166,366.000,8.749342684239082
167,367.000,5.477679164295296
168,368.000,6.1551897075261195
169,369.000,6.250354699761374
170,370.000,-3.9821934482283723
171,371.000,2.5878026992209016
172,372.000,-3.0024963973797867
173,373.000,-9.033213252719634
174,374.000,6.165756643264331
175,375.000,5.950309825341151
176,376.000,-1.7862731470619337
177,377.000,-5.897311689905791
178,378.000,0.8886998054126707
179,379.000,-1.714825027985512
180,380.000,-6.916299532509015
181,381.000,9.758459973856588
182,382.000,-2.324955802497925
183,383.000,5.2905578691479604
184,384.000,2.120862743796465
185,385.000,5.022894600685277
186,386.000,7.130706243239956
187,387.000,4.877089499027875
188,388.000,-15.401999780290225
189,389.000,0.9208812809937399
190,390.000,13.102438582587752
191,391.000,-11.506595951847089
192,392.000,4.0520936252560205
193,393.000,0.9563482853232017
194,394.000,-1.9023979764079968
195,395.000,6.8167198590649605
196,396.000,-5.968435165537812
197,397.000,-0.7661819838250494
198,398.000,0.605111494217681
199,399.000,5.533616382182117
200,400.000,-10.18461418281106
201,401.000,-0.5916220401581995
202,402.000,-6.402199005820307
203,403.000,-0.09755087236987947
204,404.000,-5.273872409037608
205,405.000,-0.2043963617601321
206,406.000,5.015886546773345
207,407.000,6.553792617074123
208,408.000,-8.676112827193492
209,409.000,-12.993576439258504
210,410.000,2.94817315070884
211,411.000,1.673878335550853
212,412.000,3.0339195310748437
213,413.000,-1.2800038239939795
214,414.000,9.250244731941052
215,415.000,-2.7873813166994523
216,416.000,4.812863537281942
217,417.000,-4.437971176187602
218,418.000,-3.335885904497104
219,419.000,6.057320927598994
220,420.000,4.664885917936203
221,421.000,0.2601856868913046
222,422.000,0.44492087733578956
223,423.000,3.258230154589228
224,424.000,2.948119206371416
225,425.000,16.69879374275604
226,426.000,8.987588496123635
227,427.000,-4.355716778886517
228,428.000,0.29159069457841724
229,429.000,1.2598907155360166
230,430.000,-4.949493894877492
231,431.000,1.6269347065456259
232,432.000,9.61470238503739
233,433.000,-0.8546929721929928
234,434.000,-10.84015445600562
235,435.000,3.929388864622183
236,436.000,1.0598369425495093
237,437.000,-6.604832247575246
238,438.000,3.7175472906382083
239,439.000,-5.577202424724646
240,440.000,-1.2201953539304213
241,441.000,7.1744575643556345
242,442.000,3.976254413021934
243,443.000,1.1896942964639265
244,444.000,6.260005340536964
245,445.000,1.4073086925092184
246,446.000,16.532486521014675
247,447.000,0.4950530160061817
248,448.000,-8.226728611291833
249,449.000,-8.366288128430142
250,450.000,5.108844718218279
251,451.000,8.826677203410895
252,452.000,16.38505562298849
253,453.000,-3.7776777061707207
254,454.000,-2.6552214462001302
255,455.000,-9.78398323828992
256,456.000,4.048980297264848
257,457.000,-1.3501044389824983
258,458.000,-3.2907390256769986
259,459.000,-8.891303020709643
260,460.000,5.628421038735837
261,461.000,-2.6649913638641465
262,462.000,1.9535742755803085
263,463.000,2.158589481725244
264,464.000,3.8815217997454283
265,465.000,7.085277795288107
266,466.000,-0.8599489455748426
267,467.000,3.239035183607143
268,468.000,-1.4267321903854508
269,469.000,2.2582685795127873
270,470.000,3.0478231606033432
271,471.000,0.13839924037847595
272,472.000,4.35189652647216
273,473.000,-11.203747253385018
274,474.000,4.976875648585747
275,475.000,10.277660000165156
276,476.000,4.611568589088392
277,477.000,4.0417212229986035
278,478.000,1.3300437293992218
279,479.000,8.132253955607098
280,480.000,1.219801768705679
281,481.000,3.6990750554979286
282,482.000,0.7010757224593362
283,483.000,0.061893695690514505
284,484.000,-5.469974079129543
285,485.000,-5.796438636790526
286,486.000,-5.399335992597798
287,487.000,1.8345928575804464
288,488.000,-5.20346206273382
289,489.000,-1.7444777106754827
290,490.000,-8.50587102408349
291,491.000,-11.980113921547627
292,492.000,0.8802576975446073
293,493.000,-2.9620640470396893
294,494.000,-7.524871016425436
295,495.000,1.513202947323748
296,496.000,2.7904040211574284
297,497.000,2.3071104009926557
298,498.000,-1.7448406983343148
299,499.000,4.277151956886087
300,500.000,-3.1832903808111723
301,501.000,-2.188487440112681
302,502.000,-4.426650930972983
303,503.000,10.883915455337728
304,504.000,5.899190046187073
305,505.000,-1.7315288124674453
306,506.000,-13.971520756124164
307,507.000,9.995358598214807
308,508.000,-2.808246348003763
309,509.000,-0.17334517492963641
310,510.000,9.31694555564161
311,511.000,13.558845300223197
312,512.000,1.3738295335894009
313,513.000,0.5821907487289764
314,514.000,1.356712456797709
315,515.000,-0.0128768129288801
316,516.000,-7.323856513101532
317,517.000,1.124108921654738
318,518.000,1.4446150746933881
319,519.000,4.345934547300999
320,520.000,5.080879958647984
321,521.000,-0.5926750542568016
322,522.000,12.412737163386282
323,523.000,-1.2355577158795086
324,524.000,-4.447397001814011
325,525.000,4.0427360134727905
326,526.000,0.7983640554732574
327,527.000,6.2944048672356985
328,528.000,2.2252452093167676
329,529.000,0.8904488597351019
330,530.000,-6.681839386076604
331,531.000,-5.5272057153180185
332,532.000,2.7885997021320463
333,533.000,4.612425713667449
334,534.000,-7.490110816090919
335,535.000,7.8135809946568315
336,536.000,-3.5577309551570124
337,537.000,-5.461177749514945
338,538.000,-7.888196455361253
339,539.000,1.4469578773509966
340,540.000,-6.6632157843870345
341,541.000,0.6082465433128164
342,542.000,-6.012301138811495
343,543.000,8.51783118678145
344,544.000,-7.651658445611247
345,545.000,4.645698015016819
346,546.000,-2.074795363666567
347,547.000,-8.317536497378342
348,548.000,-8.858397285267642
349,549.000,10.785472390036944
350,550.000,-5.410202337619353
351,551.000,-4.064952317964412
352,552.000,-5.735930384346489
353,553.000,-5.610798353781547
354,554.000,5.366488973000514
355,555.000,-12.058682188491844
356,556.000,2.362330393441198
357,557.000,6.325642966644182
358,558.000,0.740504795058655
359,559.000,0.2517991586774997
360,560.000,1.6415203534957072
361,561.000,7.618155691465631
362,562.000,5.3895375004482275
363,563.000,2.86616212416709
364,564.000,5.6753699221609395
365,565.000,-16.16841373026375
366,566.000,8.533017557921426
367,567.000,-7.8338688065817905
368,568.000,10.84754759855548
369,569.000,4.781456211242698
370,570.000,-10.280450515078314
371,571.000,2.2481868885203085
372,572.000,-3.2167410935944645
373,573.000,0.03832903833620094
374,574.000,3.5484177994155743
375,575.000,2.4575787200448076
376,576.000,1.6299213458764825
377,577.000,-13.263819762234561
378,578.000,-1.550478028275279
379,579.000,-1.0690348611241234
380,580.000,3.743706345403666
381,581.000,10.014224212508225
382,582.000,-8.59769262364216
383,583.000,15.528514488042674
384,584.000,9.586358213527092
385,585.000,2.168509233603004
386,586.000,1.7910642438424702
387,587.000,6.424528954551079
388,588.000,2.327875090720454
389,589.000,1.4181213919815718
390,590.000,3.744691612557176
391,591.000,1.2810155212162044
392,592.000,6.449190901224597
393,593.000,1.1677175502999262
394,594.000,1.6450712805635703
395,595.000,0.17914491849398928
396,596.000,8.924910304879404
397,597.000,0.4063572947713965
398,598.000,5.182029757437249
399,599.000,-1.2688034236874728
400,600.000,8.020947648955257
401,601.000,4.106780886998081
402,602.000,-3.9782327838989886
403,603.000,9.683044575905342
404,604.000,22.67480391998538
405,605.000,6.5038322158022766
406,606.000,27.3916854446569
407,607.000,7.482148601642166
408,608.000,9.9802976955973
409,609.000,30.515738749059096
410,610.000,19.88961179821638
411,611.000,33.43575289286184
412,612.000,32.027983096345565
413,613.000,53.622277485528684
414,614.000,52.151670150734276
415,615.000,70.62522019570292
416,616.000,90.94150773754313
417,617.000,121.77956290668669
418,618.000,139.8530388468397
419,619.000,174.87661971493696
420,620.000,180.87572468109317
421,621.000,163.45489392855814
422,622.000,136.14035265366817
423,623.000,113.16607406579965
424,624.000,100.70104338732108
425,625.000,75.80211685354777
426,626.000,67.19690671269359
427,627.000,56.092333225823154
428,628.000,41.57958566680725
429,629.000,34.716623322273335
430,630.000,29.468661491559715
431,631.000,22.051136486668156
432,632.000,23.733087632217575
433,633.000,7.714429265395665
434,634.000,18.9826667359132
435,635.000,-1.0435015940447556
436,636.000,12.927857650136957
437,637.000,12.353492855453169
438,638.000,8.819121421234058
439,639.000,1.4172647590971792
440,640.000,5.190216292899322
441,641.000,8.514069458691438
442,642.000,8.899916704670204
443,643.000,-10.928759508869007
444,644.000,0.897896290422068
445,645.000,5.908934586896521
446,646.000,0.5317448768651047
447,647.000,10.511781668549474
448,648.000,4.666582482035892
449,649.000,8.862096849226191
450,650.000,7.972768313793722
451,651.000,6.577450431133684
452,652.000,-3.5495762316832042
453,653.000,15.148463904042956
454,654.000,2.409032428593264
455,655.000,-13.04011105621521
456,656.000,1.1187280629198995
457,657.000,15.083820410743783
458,658.000,0.7122926233942053
459,659.000,5.764630348354785
460,660.000,3.9076362444095594
461,661.000,-0.6873980184050197
462,662.000,2.712289241152348
463,663.000,0.23838671548082857
464,664.000,1.4543321080923306
465,665.000,-7.777399866438145
466,666.000,-2.6274104825179165
467,667.000,1.1716859964151354
468,668.000,-2.586751682152226
469,669.000,-1.6552497598586342
470,670.000,-10.922961467513005
471,671.000,-4.884371025142173
472,672.000,-5.398816642038355
473,673.000,-7.205015516805361
474,674.000,-1.6898448374067812
475,675.000,-8.18536278121178
476,676.000,5.4354954849573005
477,677.000,-11.09558819522249
478,678.000,-7.788264967620989
479,679.000,-7.922785967702566
480,680.000,-9.930905320572492
481,681.000,0.5828728589747243
482,682.000,2.0513454664094297
483,683.000,-4.577140592579553
484,684.000,-14.126438402133545
485,685.000,9.902172963728844
486,686.000,-5.7747545589334095
487,687.000,4.293502975967385
488,688.000,-13.017717475497875
489,689.000,-8.538226947324574
490,690.000,-5.813424463618276
491,691.000,6.8071029613556675
492,692.000,2.230159323127282
493,693.000,5.430625626972187
494,694.000,-10.054003112132477
495,695.000,4.688953130442314
496,696.000,-9.664481611067458
497,697.000,1.7193417071327985
498,698.000,1.8161121383498084
499,699.000,4.576321745355017
500,700.000,-13.128007399662238
501,701.000,-0.68932121514149
502,702.000,3.1153523898005915
503,703.000,2.792848515325659
504,704.000,0.3573882708237761
505,705.000,1.4352037748683415
506,706.000,4.6149461551679
507,707.000,4.6329245485205774
508,708.000,-5.713390899235492
509,709.000,-10.086119033266186
510,710.000,4.383473310209638
511,711.000,3.4082643038732385
512,712.000,4.431469129259085
513,713.000,0.6014039767092072
514,714.000,-0.9222009546761001
515,715.000,1.749176542916075
516,716.000,1.9246136859635499
517,717.000,8.294933699563444
518,718.000,4.603575817382534
519,719.000,-2.4083667183870148
520,720.000,-13.080883657076583
521,721.000,3.2296492604125433
522,722.000,-7.614511698437809
523,723.000,1.3577867421904557
524,724.000,-6.364085133596063
525,725.000,-7.4808970334486276
526,726.000,-9.495667656823798
527,727.000,-1.8463806950301205
528,728.000,1.915653168724475
529,729.000,-12.672270740714112
530,730.000,-4.877974090493353
531,731.000,-12.087384539800723
532,732.000,12.151128260088399
533,733.000,0.10361066576456324
534,734.000,6.783765041636798
535,735.000,-4.96496724011422
536,736.000,10.155275200416327
537,737.000,-10.389570249189319
538,738.000,-8.86864619371795
539,739.000,-14.84024023037341
540,740.000,-6.6603029488233005
541,741.000,-3.1037799312457537
542,742.000,-1.3811357523768493
543,743.000,-6.970582979557776
544,744.000,-4.3031431727804375
545,745.000,-8.28388588473672
546,746.000,2.1964863391362996
547,747.000,-3.2014090393925017
548,748.000,6.797996448607137
549,749.000,-7.281875720822427
550,750.000,-5.10851306457289
551,751.000,-2.8889830925165825
552,752.000,-7.121020307554318
553,753.000,-5.09366220566244
554,754.000,0.25327172406150567
555,755.000,10.040612999349605
556,756.000,0.19170914471828837
557,757.000,2.0227686914201968
558,758.000,2.6298881773980156
559,759.000,2.020161147236422
560,760.000,5.658497152116297
561,761.000,1.3125047497669584
562,762.000,9.431057504418504
563,763.000,-1.9955890132439436
564,764.000,2.5955157738719663
565,765.000,11.060992449218702
566,766.000,3.7652046025625623
567,767.000,1.6476128299352695
568,768.000,1.3818407335886604
569,769.000,11.389793921946193
570,770.000,-5.760818990443568
571,771.000,-1.1505093829530324
572,772.000,10.298288371074705
573,773.000,6.120653904282335
574,774.000,5.944819855248397
575,775.000,-6.091727131558173
576,776.000,-6.038215405825667
577,777.000,-2.547474311445967
578,778.000,6.399355813437069
579,779.000,8.664381636381222
580,780.000,11.741684830600207
581,781.000,8.480800074914441
582,782.000,14.957398053705674
583,783.000,7.378720456868223
584,784.000,25.334081979764278
585,785.000,26.871794323174754
586,786.000,32.06267919325364
587,787.000,39.12772230147971
588,788.000,39.28324936461081
589,789.000,46.10038210463608
590,790.000,59.486764248728605
591,791.000,56.011031529199045
592,792.000,74.47332268344826
593,793.000,73.51451145392116
594,794.000,97.2832575880575
595,795.000,95.18661283824645
596,796.000,91.14403996178089
597,797.000,86.84369872080651
598,798.000,67.81894088227864
599,799.000,60.266804217913204
600,800.000,62.51264950413952
601,801.000,39.26585852205517
602,802.000,44.27348405737598
603,803.000,25.754960900391097
604,804.000,24.914227845916912
605,805.000,27.54982469324682
606,806.000,34.31697624610638
607,807.000,29.92777231260652
608,808.000,24.435628705195313
609,809.000,14.418721240611376
610,810.000,20.847588739836965
611,811.000,6.019313028051101
612,812.000,16.18080493458183
613,813.000,2.8322152928603828
614,814.000,4.756704940372856
615,815.000,3.2794907186132605
616,816.000,7.533487473038349
617,817.000,7.758569053018391
618,818.000,11.352108311790744
619,819.000,14.372237106412513
620,820.000,-0.08458570228458484
621,821.000,-2.3485072497437613
622,822.000,4.961531332271306
623,823.000,-4.3738580843717045
624,824.000,-6.099623624218339
625,825.000,5.276117591721231
626,826.000,7.759241445930684
627,827.000,-3.2986331756651452
628,828.000,-3.1692603837425395
629,829.000,-1.6422422856289813
630,830.000,6.702860014651378
631,831.000,-14.630061583669885
632,832.000,-3.563683178153269
633,833.000,-1.9069408631964961
634,834.000,-7.801791730083323
635,835.000,15.493480132970262
636,836.000,-7.853926359230854
637,837.000,-12.555236288909555
638,838.000,12.269160264639822
639,839.000,-5.991907774998936
640,840.000,4.203313518589994
641,841.000,-10.347507925391483
642,842.000,8.978497824997703
643,843.000,0.005349704387754173
644,844.000,6.734479650055164
645,845.000,-1.951273398127796
646,846.000,6.736155502262136
647,847.000,8.910594296150975
648,848.000,3.113523930921019
649,849.000,-9.677221643636585
650,850.000,-6.999852475368016
651,851.000,3.5193093901941666
652,852.000,3.7549189097867384
653,853.000,-1.2134859576333383
654,854.000,-11.710650250934805
655,855.000,-0.7893440068605742
656,856.000,1.8596297399271862
657,857.000,9.413741956798958
658,858.000,-1.6248883868895518
659,859.000,-3.286620319843678
660,860.000,1.0175401311230416
661,861.000,-6.859151058958787
662,862.000,-6.21409391326074
663,863.000,4.648781546796499
664,864.000,0.8099743014945489
665,865.000,-3.7369336672272766
666,866.000,3.018279624178831
667,867.000,0.7944801608239231
668,868.000,-14.555901070667232
669,869.000,3.282607917800533
670,870.000,3.736871115741451
671,871.000,-3.146565485953488
672,872.000,6.724066104930898
673,873.000,-9.770908118107855
674,874.000,9.52738483965959
675,875.000,2.7359759741495964
676,876.000,0.12350328241700481
677,877.000,-5.901672237391722
678,878.000,-9.840721586084555
679,879.000,0.6740872365280666
680,880.000,-9.590958768413884
681,881.000,2.0268534011347583
682,882.000,-3.9645962519261957
683,883.000,-0.5932357238848454
684,884.000,-2.379885010268481
685,885.000,-1.8330231058878326
686,886.000,-4.334504004885275
687,887.000,-4.446665700781978
688,888.000,3.072955813476483
689,889.000,-16.841521454528902
690,890.000,-0.005062496736854882
691,891.000,-4.213578304651719
692,892.000,-1.998003869392278
693,893.000,-5.711075181738124
694,894.000,3.5223537678245975
695,895.000,-7.887757010946643
696,896.000,-3.219708508094527
697,897.000,-0.01018371351233327
698,898.000,-6.8141066169871465
699,899.000,5.343595791749294
700,900.000,-1.3756894770237977
701,901.000,-7.743419413064657
702,902.000,2.602505993785144
703,903.000,2.114566753552026
704,904.000,4.545692876085468
705,905.000,-5.167989628991791
706,906.000,-4.419813752327627
707,907.000,-8.821995484890067
708,908.000,5.013481181987572
709,909.000,-1.9104617434425109
710,910.000,-7.2078952533881875
711,911.000,3.03414765943603
712,912.000,-0.9668209982389726
713,913.000,2.251622779715035
714,914.000,-0.7104980012209126
715,915.000,-8.81074033626146
716,916.000,-3.031269221364255
717,917.000,2.4418423467236607
718,918.000,-15.408638629580992
719,919.000,-1.098732148746194
720,920.000,-0.4057042101701427
721,921.000,-8.973762814227939
722,922.000,-5.444702962320889
723,923.000,-8.580987656921707
724,924.000,-3.20751890162137
725,925.000,2.420281298823056
726,926.000,-5.260630061559596
727,927.000,-8.682970989998921
728,928.000,11.012595504967067
729,929.000,-6.514341586552291
730,930.000,0.5028397241501352
731,931.000,9.997269424333354
732,932.000,-9.975699500237852
733,933.000,1.7831749346573815
734,934.000,-0.37156028834692734
735,935.000,-7.354242188256194
736,936.000,-7.957397785756029
737,937.000,-7.9180771032645225
738,938.000,-4.226522164976814
739,939.000,1.9574890030880852
740,940.000,-1.9145826269602821
741,941.000,-8.502928084932364
742,942.000,-3.790800402602599
743,943.000,15.371012386241318
744,944.000,-0.11628975424764576
745,945.000,8.427590137976267
746,946.000,-1.4640409771950544
747,947.000,-9.069678142069279
748,948.000,-4.702051401203789
749,949.000,9.582742198551387
750,950.000,3.6270166080018953
751,951.000,-1.1867792244338489
752,952.000,3.3610226472264912
753,953.000,2.464109166481421
754,954.000,3.947295274299904
755,955.000,9.538524909074113
756,956.000,7.893964006570968
757,957.000,1.2153564998880029
758,958.000,9.426896319402431
759,959.000,-1.7049496072720558
760,960.000,1.952763644664401
761,961.000,-0.33677600284568143
762,962.000,-2.092215630768351
763,963.000,14.648110676979513
764,964.000,-1.4052151665223391
765,965.000,7.545586748760115
766,966.000,16.271968329766423
767,967.000,-1.2567495197065455
768,968.000,6.803216100950976
769,969.000,11.039274089112041
770,970.000,12.990427338866994
771,971.000,13.884952740977496
772,972.000,21.2473131828267
773,973.000,5.90257554837558
774,974.000,16.08919071811397
775,975.000,12.891835569012528
776,976.000,16.71406297447902
777,977.000,16.73681580430798
778,978.000,12.693025924635094
779,979.000,16.823664197889684
780,980.000,12.125423482748829
781,981.000,15.604056634089147
782,982.000,30.88501450293961
783,983.000,33.37204793643605
784,984.000,38.33541077777227
785,985.000,33.11637986615369
786,986.000,40.01597203675101
787,987.000,49.03601612065222
788,988.000,61.976726944816164
789,989.000,55.40185033202465
790,990.000,72.55473010083665
791,991.000,91.9317070655402
792,992.000,102.70194803610707
793,993.000,116.56620781814195
794,994.000,163.22452821284014
795,995.000,203.13222501693758
796,996.000,265.6265290226645
797,997.000,362.24049901769786
798,998.000,500.61351578511517
799,999.000,693.2128861033484
800,1000.000,889.8344807461333
801,1001.000,999.0418514824667
802,1002.000,896.2453220765558
803,1003.000,689.5090762877749
804,1004.000,502.3755288706152
805,1005.000,364.5452105746376
806,1006.000,280.5084231444289
807,1007.000,203.64502931955212
808,1008.000,155.36547283449954
809,1009.000,130.3922394186468
810,1010.000,104.5552277962056
811,1011.000,96.55005668617491
812,1012.000,72.38286480229726
813,1013.000,63.01712985300901
814,1014.000,55.06715654139293
815,1015.000,75.40868556513465
816,1016.000,65.6865146164721
817,1017.000,59.66018438214837
818,1018.000,53.893668543368904
819,1019.000,58.332765775749294
820,1020.000,55.75508374927085
821,1021.000,60.2107091282337
822,1022.000,68.93972357120947
823,1023.000,86.37625073099366
824,1024.000,102.32809925455831
825,1025.000,112.23521478300631
826,1026.000,147.98740995152434
827,1027.000,186.378872389334
828,1028.000,243.93152571964652
829,1029.000,325.48294355961525
830,1030.000,394.37139052028715
831,1031.000,425.95829520655957
832,1032.000,390.556731217129
833,1033.000,322.66752614444613
834,1034.000,244.38335357466826
835,1035.000,189.2046540876131
836,1036.000,141.58272025671045
837,1037.000,114.25637564895624
838,1038.000,90.94991482486557
839,1039.000,66.08296233842293
840,1040.000,48.23317573704048
841,1041.000,49.467053561505736
842,1042.000,44.36189934593722
843,1043.000,29.480745617737057
844,1044.000,38.434435897543835
845,1045.000,22.740378699186294
846,1046.000,21.684297529633568
847,1047.000,14.799741888952212
848,1048.000,19.359830270255316
849,1049.000,23.012869159658294
850,1050.000,18.019346036230445
851,1051.000,11.937589371947979
852,1052.000,12.526427631647493
853,1053.000,9.008235272978936
854,1054.000,18.276308746357017
855,1055.000,9.967559494917623
856,1056.000,-2.9694510455331056
857,1057.000,23.355979553435418
858,1058.000,6.204921712833084
859,1059.000,7.4073378462007895
860,1060.000,3.428614359561834
861,1061.000,3.715826651376574
862,1062.000,8.275747112496447
863,1063.000,-3.317164873886213
864,1064.000,6.43018306771819
865,1065.000,8.016318305046298
866,1066.000,5.657937198037189
867,1067.000,1.722998098784501
868,1068.000,5.2292753514893775
869,1069.000,12.739009292412902
870,1070.000,13.398048249829571
871,1071.000,13.55083754398106
872,1072.000,4.103661487027921
873,1073.000,5.285749383002667
874,1074.000,17.552841527763576
875,1075.000,6.347544208945919
876,1076.000,1.7370317059185254
877,1077.000,1.7643762897321267
878,1078.000,-0.619390776924547
879,1079.000,-8.271681239772988
880,1080.000,-7.409965852990581
881,1081.000,1.6199906207389176
882,1082.000,10.19925841018312
883,1083.000,2.8798767355099244
884,1084.000,-12.250045191756044
885,1085.000,-2.220751168785455
886,1086.000,5.052317998514809
887,1087.000,-4.44818650454954
888,1088.000,0.963655498493381
889,1089.000,-0.08662282476416294
890,1090.000,-0.6395203156573643
891,1091.000,-5.174198824496216
892,1092.000,-3.1578442106117564
893,1093.000,6.41785465759699
894,1094.000,3.5511209026135475
895,1095.000,0.5213596377607246
896,1096.000,1.4277799671513094
897,1097.000,7.047061985640994
898,1098.000,10.538154778782427
899,1099.000,0.7102894227762135
900,1100.000,6.931603984426829
901,1101.000,-1.6758544789067855
902,1102.000,8.130169080642872
903,1103.000,1.4504247014028806
904,1104.000,-0.6962365878841865
905,1105.000,-5.804828768108109
906,1106.000,9.580109170160313
907,1107.000,2.3311102266220587
908,1108.000,5.145438391206653
909,1109.000,2.964538644020422
910,1110.000,-6.205058044697353
911,1111.000,-4.211169714622429
912,1112.000,-3.0100644153947087
913,1113.000,5.530311793339479
914,1114.000,2.3249518418745083
915,1115.000,-4.818783349595606
916,1116.000,1.0749641289703504
917,1117.000,12.210931177417251
918,1118.000,11.004062685345843
919,1119.000,-1.9241534679360939
920,1120.000,1.9921685865424479
921,1121.000,11.101791707365464
922,1122.000,9.601263742685205
923,1123.000,9.015757530174142
924,1124.000,0.19648789697748725
925,1125.000,0.09006165966729895
926,1126.000,4.3098236241944505
927,1127.000,13.88759058584219
928,1128.000,3.1359373291786596
929,1129.000,8.381295628010548
930,1130.000,0.8221662453356657
931,1131.000,-1.7252580667047823
932,1132.000,9.270878433127564
933,1133.000,11.843571475121735
934,1134.000,10.09827977856753
935,1135.000,9.25085905171386
936,1136.000,-7.162738008283441
937,1137.000,6.3082192845924965
938,1138.000,29.24140460517515
939,1139.000,3.7717846170644407
940,1140.000,15.157188972581253
941,1141.000,27.675221312719486
942,1142.000,32.21964926710166
943,1143.000,26.673331453927403
944,1144.000,26.687935479930502
945,1145.000,28.14571294032953
946,1146.000,28.201337418780895
947,1147.000,41.363976487334185
948,1148.000,34.542037706381734
949,1149.000,62.47892462461368
950,1150.000,59.18729577897034
951,1151.000,80.41549469459574
952,1152.000,101.53221088478995
953,1153.000,132.15878885096117
954,1154.000,142.79348308258113
955,1155.000,147.42765705713578
956,1156.000,132.20251924007994
957,1157.000,122.40604908478849
958,1158.000,121.47879903251078
959,1159.000,89.50793451232266
960,1160.000,80.19256494108004
961,1161.000,48.87516672337301
962,1162.000,49.10636725147492
963,1163.000,39.18868190530043
964,1164.000,51.73464205235291
965,1165.000,34.04686504768415
966,1166.000,36.84062223384126
967,1167.000,21.014020940821183
968,1168.000,21.621458486027223
969,1169.000,33.05309717421619
970,1170.000,18.960775297457076
971,1171.000,21.490366135079057
972,1172.000,28.87072995362837
973,1173.000,20.38888600681912
974,1174.000,26.93653753548574
975,1175.000,27.516308767538703
976,1176.000,44.397099917915284
977,1177.000,46.582650188531034
978,1178.000,58.895476768236904
979,1179.000,65.11056483277048
980,1180.000,89.48651154470554
981,1181.000,114.53983805341045
982,1182.000,105.14914649499792
983,1183.000,123.61564599227813
984,1184.000,119.06516165471271
985,1185.000,96.93898657836803
986,1186.000,92.19709484586497
987,1187.000,63.24454752633619
988,1188.000,48.366229675377326
989,1189.000,57.07729933499786
990,1190.000,39.744073533577875
991,1191.000,37.231268285818715
992,1192.000,22.911869592694757
993,1193.000,21.183725441410616
994,1194.000,8.51225280534959
995,1195.000,26.198922644029835
996,1196.000,1.211480903053598
997,1197.000,1.9653265140655094
998,1198.000,10.199385394700357
999,1199.000,10.181684448539272
1000,1200.000,16.605658565061276
1001,1201.000,-9.06490538040157
1002,1202.000,7.694342473283996
1003,1203.000,2.087735973010922
1004,1204.000,-6.68471304861805
1005,1205.000,-14.336017773339563
1006,1206.000,7.776088602730624
1007,1207.000,5.263875869040248
1008,1208.000,-4.6779331994371205
1009,1209.000,0.8071251577464409
1010,1210.000,6.535106686465497
1011,1211.000,-2.536692882023317
1012,1212.000,5.554466168870249
1013,1213.000,0.3625315410233725
1014,1214.000,1.2377729215520503
1015,1215.000,-2.6606240172336584
1016,1216.000,-2.797444617879137
1017,1217.000,-1.1840302378307115
1018,1218.000,3.5322787505172073
1019,1219.000,5.757657959775088
1020,1220.000,10.087778987509864
1021,1221.000,1.1065264161995856
1022,1222.000,6.746298813186286
1023,1223.000,1.8769457306270851
1024,1224.000,9.834081705449535
1025,1225.000,-3.936064740696793
1026,1226.000,-0.5186641014868201
1027,1227.000,2.0965461140322077
1028,1228.000,-6.339268618605047
1029,1229.000,-8.647018839329576
1030,1230.000,-0.5847401035869098
1031,1231.000,-1.1234049823792702
1032,1232.000,-1.689782062319864
1033,1233.000,-11.080386945672217
1034,1234.000,-4.679420250402927
1035,1235.000,-0.22570261022701743
1036,1236.000,-6.869655674652222
1037,1237.000,-1.786502109031062
1038,1238.000,-9.848951594603477
1039,1239.000,10.446466171453721
1040,1240.000,4.583011475980811
1041,1241.000,1.255374589787607
1042,1242.000,2.415841767605343
1043,1243.000,3.6602612480439802
1044,1244.000,6.657118253538329
1045,1245.000,1.8465489903071557
1046,1246.000,-0.5590123516963104
1047,1247.000,-7.290355598831866
1048,1248.000,1.9140714061802555
1049,1249.000,5.428532804214683
1050,1250.000,1.4549537196928668
1051,1251.000,-0.056114739467147956
1052,1252.000,-6.972946481892222
1053,1253.000,-2.7870374328056187
1054,1254.000,-1.0015985340721727
1055,1255.000,-7.192206744244686
1056,1256.000,3.058915961387811
1057,1257.000,0.005353590752292803
1058,1258.000,0.3341651349478525
1059,1259.000,-9.273896431804815
1060,1260.000,-15.311406152209884
1061,1261.000,-0.738060085940333
1062,1262.000,-1.6124343096889788
1063,1263.000,-0.8673949172132325
1064,1264.000,0.7198359806172903
1065,1265.000,-7.641722744226399
1066,1266.000,3.076430763021108
1067,1267.000,5.555666339871323
1068,1268.000,-3.3149401934645084
1069,1269.000,-14.65808303412291
1070,1270.000,7.176063603366401
1071,1271.000,2.073294487029898
1072,1272.000,5.456325367409136
1073,1273.000,-9.198811022493373
1074,1274.000,0.5039320327439327
1075,1275.000,-10.372188769087188
1076,1276.000,-8.267924747870893
1077,1277.000,0.30428075878421623
1078,1278.000,-4.148156604501764
1079,1279.000,-1.992958210925508
1080,1280.000,-4.002726451549506
1081,1281.000,10.280880264653433
1082,1282.000,10.246355510749936
1083,1283.000,-3.847280158197691
1084,1284.000,7.359900794817804
1085,1285.000,-1.2276241112942898
1086,1286.000,9.56838862422751
1087,1287.000,4.2553354839510575
1088,1288.000,-5.9479190677986935
1089,1289.000,4.271281415017029
1090,1290.000,-6.080964639898411
1091,1291.000,-15.790304823225597
1092,1292.000,2.7373932559273726
1093,1293.000,-0.6118310300244048
1094,1294.000,-2.819047327188855
1095,1295.000,1.3828306997550044
1096,1296.000,-1.701355632488685
1097,1297.000,-8.553568025881304
1098,1298.000,9.938685798905908
1099,1299.000,3.8608441024409785
1100,1300.000,-9.511174873511209
1101,1301.000,0.5019690939595876
1102,1302.000,0.5815762088648171
1103,1303.000,5.684884656270242
1104,1304.000,-9.451095397753988
1105,1305.000,7.266135193822947
1106,1306.000,1.3052015589421444
1107,1307.000,1.8384258064118058
1108,1308.000,4.713337025857527
1109,1309.000,-6.783734712325213
1110,1310.000,-1.261939357014171
1111,1311.000,1.4119141235878487
1112,1312.000,-0.25121425809220455
1113,1313.000,-2.719065509043503
1114,1314.000,-9.781645655719103
1115,1315.000,-1.8863337440852774
1116,1316.000,-1.074546839663526
1117,1317.000,-11.390540027583711
1118,1318.000,-8.025788412625843
1119,1319.000,-7.464510119270244
1120,1320.000,-2.1603362917430786
1121,1321.000,9.15603690593639
1122,1322.000,-11.25896771009252
1123,1323.000,-7.1728313435771724
1124,1324.000,4.441514781799469
1125,1325.000,0.8627334223735943
1126,1326.000,-6.379174685545877
1127,1327.000,1.2070431742715755
1128,1328.000,-5.712326302065321
1129,1329.000,-5.825465438615311
1130,1330.000,-6.987293579656807
1131,1331.000,-5.9170290897309314
1132,1332.000,1.8835396463109646
1133,1333.000,2.4397322232598526
1134,1334.000,-3.0272347845016156
1135,1335.000,-0.4812888230369481
1136,1336.000,-12.426100358914027
1137,1337.000,0.20539712075515126
1138,1338.000,-4.346899891732619
1139,1339.000,-7.982749924723521
1140,1340.000,2.6955624727515897
1141,1341.000,2.581338730925154
1142,1342.000,-8.5185077407491
1143,1343.000,1.294925446352181
1144,1344.000,8.53876865997836
1145,1345.000,-0.23428175304525212
1146,1346.000,3.706975533140394
1147,1347.000,1.1206298233742018
1148,1348.000,-3.7811005985654447
1149,1349.000,1.4850705299882065
1150,1350.000,1.3762494505438099
1151,1351.000,7.546218383406313
1152,1352.000,-1.0457474723714313
1153,1353.000,-2.7302779390347496
1154,1354.000,-0.38728686017543623
1155,1355.000,-4.393875100778132
1156,1356.000,0.45078945273348836
1157,1357.000,-1.328987107550347
1158,1358.000,-5.131127711075351
1159,1359.000,9.922184691132998
1160,1360.000,4.719331126423185
1161,1361.000,4.791682600464355
1162,1362.000,-10.136529902792745
1163,1363.000,0.014584578831090766
1164,1364.000,-5.831435014298222
1165,1365.000,4.548075236320074
1166,1366.000,-3.9911437727228076
1167,1367.000,-4.898746166794126
1168,1368.000,3.9296029067370455
1169,1369.000,-6.51186672154995
1170,1370.000,1.0231247568221988
1171,1371.000,-16.257517871810705
1172,1372.000,1.3190741566950237
1173,1373.000,-6.904830415759989
1174,1374.000,0.6961831304411135
1175,1375.000,-11.436772507418937
1176,1376.000,1.0868903455627787
1177,1377.000,-1.0797236581397556
1178,1378.000,1.5964691114738798
1179,1379.000,-6.031276738118777
1180,1380.000,5.777031377991989
1181,1381.000,7.6129000221012575
1182,1382.000,0.9129087338380941
1183,1383.000,6.760938030123953
1184,1384.000,-11.136824594876543
1185,1385.000,-7.932125669802417
1186,1386.000,-4.126672746145459
1187,1387.000,1.043565601707087
1188,1388.000,-3.0103342235786386
1189,1389.000,8.06778815766961
1190,1390.000,0.6854421020900645
1191,1391.000,7.2624579432290375
1192,1392.000,-0.13665900849628088
1193,1393.000,-6.872759465850777
1194,1394.000,-2.6168431648263777
1195,1395.000,-1.9752288646884608
1196,1396.000,0.6493166519760507
1197,1397.000,-0.9145414207889644
1198,1398.000,5.267196087644152
1199,1399.000,-0.08146067555617265
1200,1400.000,-4.265195586735217
1201,1401.000,9.877096454209322
1202,1402.000,-4.002011476228063
1203,1403.000,-1.0943843251991439
1204,1404.000,0.31317193644417785
1205,1405.000,-1.3677016858957813
1206,1406.000,-0.8486162106044048
1207,1407.000,1.8999773200887375
1208,1408.000,-8.348742159926815
1209,1409.000,7.176324259301509
1210,1410.000,-6.232059536250517
1211,1411.000,15.81449231536567
1212,1412.000,4.797263652022593
1213,1413.000,-2.240710712526379
1214,1414.000,-7.013985988697414
1215,1415.000,-3.3450574111184324
1216,1416.000,6.671467761314261
1217,1417.000,-5.792724754598339
1218,1418.000,2.8405427335856075
1219,1419.000,0.4223948939043112
1220,1420.000,10.673477369945658
1221,1421.000,2.612605780802596
1222,1422.000,17.895267721020446
1223,1423.000,4.502805760555702
1224,1424.000,17.32213444472518
1225,1425.000,14.174971294160287
1226,1426.000,7.160109804759713
1227,1427.000,0.41315844764380927
1228,1428.000,23.93488966910445
1229,1429.000,21.20382689056055
1230,1430.000,12.973259508512001
1231,1431.000,27.468483894488372
1232,1432.000,17.98998039500657
1233,1433.000,9.790130331520686
1234,1434.000,22.874755000377036
1235,1435.000,28.21840267276275
1236,1436.000,49.70906059466711
1237,1437.000,47.180243986824735
1238,1438.000,44.08681404467666
1239,1439.000,54.37207093831762
1240,1440.000,70.16752981245259
1241,1441.000,72.28329578634884
1242,1442.000,97.42893895378597
1243,1443.000,92.90111738301539
1244,1444.000,123.79020211670559
1245,1445.000,132.8455951719004
1246,1446.000,170.1199925399701
1247,1447.000,176.30157018656473
1248,1448.000,202.27924005156683
1249,1449.000,209.46658304904508
1250,1450.000,211.33756106720625
1251,1451.000,214.57731996834764
1252,1452.000,187.93249958881415
1253,1453.000,190.81875773894308
1254,1454.000,164.54054120302771
1255,1455.000,140.13530373925937
1256,1456.000,123.12619407968918
1257,1457.000,108.60412493017657
1258,1458.000,81.76777997034401
1259,1459.000,74.83972085352707
1260,1460.000,64.41196420673145
1261,1461.000,55.439628630583684
1262,1462.000,35.02286869928298
1263,1463.000,39.26585696055736
1264,1464.000,48.667429935614564
1265,1465.000,25.906095119092015
1266,1466.000,35.76738197901773
1267,1467.000,28.255158956756986
1268,1468.000,21.885475466966
1269,1469.000,19.732627897545626
1270,1470.000,20.0946356095983
1271,1471.000,12.480561937369885
1272,1472.000,15.71026718821554
1273,1473.000,3.535471642547236
1274,1474.000,-0.03142744621663951
1275,1475.000,15.466431148305901
1276,1476.000,4.1116336254142425
1277,1477.000,7.614638157273703
1278,1478.000,11.708209888873398
1279,1479.000,6.360191937975742
1280,1480.000,-0.5854706049296965
1281,1481.000,-1.351215676674201
1282,1482.000,18.815685758548398
1283,1483.000,7.079791709124493
1284,1484.000,7.077282155983767
1285,1485.000,5.445067052548211
1286,1486.000,6.850143324682676
1287,1487.000,-0.2808221293464612
1288,1488.000,-4.364111438925875
1289,1489.000,0.6042932388647841
1290,1490.000,4.0828487192002285
1291,1491.000,-1.9383122105314214
1292,1492.000,0.639369209217648
1293,1493.000,-5.056474289888229
1294,1494.000,-0.9570230041140348
1295,1495.000,0.5570097422960316
1296,1496.000,2.5050575970699356
1297,1497.000,2.7724401798686813
1298,1498.000,3.5910260822302007
1299,1499.000,3.0841668675243454
1300,1500.000,3.6633710709136267
1301,1501.000,-0.015702800707686038
1302,1502.000,-7.8372192687456845
1303,1503.000,-5.366427882965581
1304,1504.000,0.8471697784682419
1305,1505.000,7.651296108942006
1306,1506.000,-0.7055085266542847
1307,1507.000,-10.003287791971388
1308,1508.000,7.36883562074604
1309,1509.000,2.5741069906225675
1310,1510.000,5.960888568092287
1311,1511.000,9.969186574864352
1312,1512.000,-8.606666796133368
1313,1513.000,-0.5491213807977147
1314,1514.000,-20.050572043895045
1315,1515.000,1.7449683208863007
1316,1516.000,-4.244215209105505
1317,1517.000,-1.1138815855385928
1318,1518.000,-1.69841978913837
1319,1519.000,-2.0724178297377875
1320,1520.000,-5.162827746326002
1321,1521.000,-3.0179086070913854
1322,1522.000,-4.984202509471288
1323,1523.000,-6.492813580197435
1324,1524.000,-10.761867975345467
1325,1525.000,-4.081178880379639
1326,1526.000,-3.081294510198859
1327,1527.000,-4.908145109190627
1328,1528.000,9.406803048733309
1329,1529.000,2.0108786600783333
1330,1530.000,-8.08653260827191
1331,1531.000,5.397578880894116
1332,1532.000,1.5861797350708002
1333,1533.000,3.883739531983565
1334,1534.000,5.457712819548078
1335,1535.000,-12.296151884181427
1336,1536.000,7.347072908941527
1337,1537.000,-7.6155413428862175
1338,1538.000,-8.025720211476028
1339,1539.000,-0.5611722986789118
1340,1540.000,2.7942257635522765
1341,1541.000,-14.828634686872647
1342,1542.000,-1.1334243422350028
1343,1543.000,6.309684074948336
1344,1544.000,0.19623281187750763
1345,1545.000,3.1142150854213924
1346,1546.000,6.804355082072789
1347,1547.000,2.2317279578985563
1348,1548.000,-1.4678111615044145
1349,1549.000,6.673615818943972
1350,1550.000,12.25415996375591
1351,1551.000,-11.843292693167996
1352,1552.000,4.900345851414386
1353,1553.000,0.21998257003701838
1354,1554.000,8.796181404480649
1355,1555.000,7.103743265728781
1356,1556.000,3.673030033909754
1357,1557.000,-1.7774504417357093
1358,1558.000,8.965054657090377
1359,1559.000,9.709494117694248
1360,1560.000,10.520918696348417
1361,1561.000,19.299278118243592
1362,1562.000,10.465469077438684
1363,1563.000,20.666501236815748
1364,1564.000,24.53816922803321
1365,1565.000,26.109975651481363
1366,1566.000,10.06592607622656
1367,1567.000,11.702676039976268
1368,1568.000,17.59896304902145
1369,1569.000,21.59156957819755
1370,1570.000,19.946351070830588
1371,1571.000,29.497312938694677
1372,1572.000,30.963196561966015
1373,1573.000,44.7425092891674
1374,1574.000,46.36087643713563
1375,1575.000,59.89620429095885
1376,1576.000,79.60784610393944
1377,1577.000,88.14629109754674
1378,1578.000,107.45167046136407
1379,1579.000,128.1140123530481
1380,1580.000,156.43720689827592
1381,1581.000,191.027606190705
1382,1582.000,196.7023872919167
1383,1583.000,223.86661023138095
1384,1584.000,219.36031700639683
1385,1585.000,208.85234458205696
1386,1586.000,175.87172789119177
1387,1587.000,153.2657798343282
1388,1588.000,141.7237352796385
1389,1589.000,125.30787606289641
1390,1590.000,128.8315489874276
1391,1591.000,119.3929208240636
1392,1592.000,132.7263713110981
1393,1593.000,136.6568641542292
1394,1594.000,152.54215002652904
1395,1595.000,172.5994355683822
1396,1596.000,201.3559293874448
1397,1597.000,246.48258605859837
1398,1598.000,313.9692581238992
1399,1599.000,408.3294680925369
1400,1600.000,508.413787440777
1401,1601.000,592.9078096119272
1402,1602.000,614.8773820162799
1403,1603.000,586.7965340310709
1404,1604.000,496.44783500043036
1405,1605.000,392.2638662353363
1406,1606.000,315.2369510135652
1407,1607.000,242.55574257964918
1408,1608.000,193.60064814482757
1409,1609.000,147.22205888699318
1410,1610.000,121.09076995065698
1411,1611.000,102.49478744689463
1412,1612.000,84.73078445329702
1413,1613.000,84.61335101392888
1414,1614.000,59.80078813927753
1415,1615.000,61.67747580620721
1416,1616.000,60.80282795791459
1417,1617.000,45.08365150387658
1418,1618.000,38.919319319808665
1419,1619.000,32.01547924761189
1420,1620.000,16.187981095332816
1421,1621.000,21.579112637108892
1422,1622.000,27.622876613128938
1423,1623.000,23.546517729580955
1424,1624.000,13.204543658606553
1425,1625.000,14.897665038254218
1426,1626.000,20.14529247243331
1427,1627.000,6.7865205308658005
1428,1628.000,8.92993374903449
1429,1629.000,15.456365628149115
1430,1630.000,5.39040463508104
1431,1631.000,11.460901202333844
1432,1632.000,13.154085727986512
1433,1633.000,1.947519575646993
1434,1634.000,11.142465074408165
1435,1635.000,7.48311851879771
1436,1636.000,1.3364871687349478
1437,1637.000,10.147942249476273
1438,1638.000,-7.322722048418882
1439,1639.000,-2.7204135691515603
1440,1640.000,2.474334808285903
1441,1641.000,-2.224691829951098
1442,1642.000,-11.120451432593882
1443,1643.000,-7.117272983319253
1444,1644.000,2.9547514992125343
1445,1645.000,11.02121196130679
1446,1646.000,1.1187763141836058
1447,1647.000,-10.268895566059882
1448,1648.000,6.065060161495694
1449,1649.000,-2.192037697454225
1450,1650.000,6.206734627521428
1451,1651.000,-4.8547611284666345
1452,1652.000,6.733526734331008
1453,1653.000,-2.2659191197478776
1454,1654.000,4.223501938178742
1455,1655.000,-4.469556498515885
1456,1656.000,4.793414127994765
1457,1657.000,5.859222339938015
1458,1658.000,0.17282962389072054
1459,1659.000,-6.6525795692557494
1460,1660.000,2.983590175645986
1461,1661.000,0.04823123795745232
1462,1662.000,12.424262961205386
1463,1663.000,-10.16036834696024
1464,1664.000,-13.594020414824627
1465,1665.000,0.170103993359362
1466,1666.000,-5.186329922684536
1467,1667.000,-2.8642069993059067
1468,1668.000,-4.180250108966902
1469,1669.000,0.9656038397081375
1470,1670.000,6.305897901883327
1471,1671.000,-1.3633139035352997
1472,1672.000,-0.7843495939437162
1473,1673.000,4.328890776912658
1474,1674.000,-2.4410668811176492
1475,1675.000,9.714120305378401
1476,1676.000,-11.219594826686716
1477,1677.000,-1.6482144769354363
1478,1678.000,0.11149011842326217
1479,1679.000,-7.700558313452575
1480,1680.000,-6.723169082087907
1481,1681.000,10.994187466267704
1482,1682.000,-6.76315805141121
1483,1683.000,-6.623123054974258
1484,1684.000,3.2858289988669185
1485,1685.000,6.920833616476784
1486,1686.000,-1.2352157327377427
1487,1687.000,-5.031856616379855
1488,1688.000,10.156078360891115
1489,1689.000,-6.768933442690923
1490,1690.000,-6.875706706039864
1491,1691.000,4.185762854732502
1492,1692.000,-6.196364513736171
1493,1693.000,-7.045798602091736
1494,1694.000,-6.758419238326496
1495,1695.000,-6.773769287814275
1496,1696.000,-8.917286653361998
1497,1697.000,-6.840846275259082
1498,1698.000,-1.337963131321203
1499,1699.000,-1.0349692369363765
1500,1700.000,-10.109378645116294
1501,1701.000,-15.995418446540043
1502,1702.000,6.652657230395562
1503,1703.000,-9.650486780461051
1504,1704.000,-5.397222683081736
1505,1705.000,1.2850912807136865
1506,1706.000,3.4644488311987516
1507,1707.000,2.1290846506963135
1508,1708.000,0.8913353835334874
1509,1709.000,3.1455486359925544
1510,1710.000,-2.2096060237417987
1511,1711.000,-2.577776065614671
1512,1712.000,-13.279925997760301
1513,1713.000,-2.170871366549818
1514,1714.000,7.1996662433716665
1515,1715.000,-1.5686217909703828
1516,1716.000,0.5712388690753869
1517,1717.000,-2.4858904762577367
1518,1718.000,-8.50542156520919
1519,1719.000,-1.2976611745273203
1520,1720.000,1.7691798804694372
1521,1721.000,-8.45027425413764
1522,1722.000,-16.362299470932612
1523,1723.000,1.517652298806297
1524,1724.000,3.677376085044898
1525,1725.000,-8.443408121044968
1526,1726.000,0.5999956328619191
1527,1727.000,-6.515014739800108
1528,1728.000,9.809289635468303
1529,1729.000,-13.607774405825467
1530,1730.000,9.433850932800624
1531,1731.000,0.05539640874167162
1532,1732.000,-1.557627259726587
1533,1733.000,2.4242936064945297
1534,1734.000,16.701042647284112
1535,1735.000,0.7058104632526465
1536,1736.000,-9.558805384303923
1537,1737.000,-10.59494637344801
1538,1738.000,-8.696211021657746
1539,1739.000,0.7468091141413424
1540,1740.000,1.3918144375127213
1541,1741.000,1.2249293124739324
1542,1742.000,-10.821675936550946
1543,1743.000,-9.794774024788012
1544,1744.000,7.257214292849994
1545,1745.000,7.13938422171168
1546,1746.000,-4.312220072640457
1547,1747.000,-1.5498254644783174
1548,1748.000,11.577481132050934
1549,1749.000,-2.3601482371250313
1550,1750.000,-0.10227756605695504
1551,1751.000,4.491671111188907
1552,1752.000,7.116795720475238
1553,1753.000,3.0356981475545126
1554,1754.000,-3.9819687619842625
1555,1755.000,0.5940297972397275
1556,1756.000,1.532644590349264
1557,1757.000,8.429122342169649
1558,1758.000,-3.1033692628263907
1559,1759.000,-4.231802580563908
1560,1760.000,3.8365819925911637
1561,1761.000,-8.316757980217744
1562,1762.000,1.3431720236128513
1563,1763.000,-4.656056513895237
1564,1764.000,0.4922868486437437
1565,1765.000,-7.678566488056276
1566,1766.000,-3.074396164015752
1567,1767.000,-6.36995286002184
1568,1768.000,-6.715704297685761
1569,1769.000,7.859128760518843
1570,1770.000,-4.292076488799921
1571,1771.000,-8.29899388999138
1572,1772.000,-5.692928328414155
1573,1773.000,-0.3806297304831787
1574,1774.000,0.8455339362869836
1575,1775.000,-0.250970336773662
1576,1776.000,3.367021400479416
1577,1777.000,-4.637722943065
1578,1778.000,2.4602335002009568
1579,1779.000,0.09708355654515799
1580,1780.000,-0.02341498914984186
1581,1781.000,5.905767606568588
1582,1782.000,-4.213779954327492
1583,1783.000,7.073706988611775
1584,1784.000,-8.173600945742464
1585,1785.000,-5.078000180129266
1586,1786.000,-1.189031178965024
1587,1787.000,4.660024551629249
1588,1788.000,-5.800486536234757
1589,1789.000,4.8594619677544415
1590,1790.000,-1.2200535679546647
1591,1791.000,4.326571183190254
1592,1792.000,0.6045755057921269
1593,1793.000,-1.1492333575463363
1594,1794.000,0.1433907937382628
1595,1795.000,0.8039881181214241
1596,1796.000,1.5744667319340806
1597,1797.000,9.038309709332225
1598,1798.000,7.677689082235474
1599,1799.000,-0.6750601597148034
1600,1800.000,-5.612049069199202
1601,1801.000,12.91183725872861
1602,1802.000,6.487833686591557
1603,1803.000,0.12920403445059492
1604,1804.000,2.5542480798540055
1605,1805.000,4.05896855778451
1606,1806.000,-2.044449839377421
1607,1807.000,-4.7951664619081384
1608,1808.000,-8.011018702782849
1609,1809.000,2.655910002270957
1610,1810.000,2.1013401747320586
1611,1811.000,-3.338401706759214
1612,1812.000,-0.6991402064622889
1613,1813.000,1.9194000684367438
1614,1814.000,14.946166467761486
1615,1815.000,5.896758298308214
1616,1816.000,5.001350823794837
1617,1817.000,-5.74714673518497
1618,1818.000,5.150496798788936
1619,1819.000,0.8555045599198365
1620,1820.000,2.3740206391441916
1621,1821.000,-1.6282619159176193
1622,1822.000,10.561657899003194
1623,1823.000,2.9440290447541884
1624,1824.000,-4.818765561255077
1625,1825.000,6.464853954871842
1626,1826.000,-7.62319757651062
1627,1827.000,9.725197631358697
1628,1828.000,1.39321432158863
1629,1829.000,-6.3995918063894806
1630,1830.000,3.445514903111416
1631,1831.000,1.1252070619977985
1632,1832.000,5.999637238345258
1633,1833.000,-3.076507043647098
1634,1834.000,3.850909696296867
1635,1835.000,-3.2776131055256883
1636,1836.000,2.4114249431743247
1637,1837.000,-2.814309809389215
1638,1838.000,0.16555394089664333
1639,1839.000,4.789782453969792
1640,1840.000,12.636686945578049
1641,1841.000,0.7211635871956332
1642,1842.000,-3.2545464939839803
1643,1843.000,0.30211178487320467
1644,1844.000,6.205583462208551
1645,1845.000,0.5207085320228089
1646,1846.000,1.3274319438271505
1647,1847.000,7.592764602599345
1648,1848.000,-5.705088631271565
1649,1849.000,2.7286300579771705
1650,1850.000,-0.7122705585672975
1651,1851.000,5.896300245450675
1652,1852.000,-3.938785848376483
1653,1853.000,0.7034807967247616
1654,1854.000,3.3871037726557915
1655,1855.000,6.8470266264153
1656,1856.000,0.32682286003546324
1657,1857.000,2.6642289305470968
1658,1858.000,5.718152249921786
1659,1859.000,-4.402338814966015
1660,1860.000,-2.2994239423896943
1661,1861.000,-6.469393855816634
1662,1862.000,6.608930676043201
1663,1863.000,6.538990839192138
1664,1864.000,2.6871247742960804
1665,1865.000,-7.110246423358149
1666,1866.000,-2.884263703919487
1667,1867.000,6.3886509369888245
1668,1868.000,-3.0463765417771356
1669,1869.000,2.272380773063105
1670,1870.000,-7.7971612508292765
1671,1871.000,2.2615272085481593
1672,1872.000,19.64337192748576
1673,1873.000,16.057102636509626
1674,1874.000,3.543203020342162
1675,1875.000,3.467414717855945
1676,1876.000,5.1567873220171805
1677,1877.000,5.497604379848326
1678,1878.000,8.136881392377518
1679,1879.000,3.981233814591178
1680,1880.000,18.89236205538805
1681,1881.000,-1.0859685224681925
1682,1882.000,-1.2333716023952093
1683,1883.000,1.8242330859538924
1684,1884.000,10.66420776666223
1685,1885.000,9.42947561747269
1686,1886.000,-6.153775230228121
1687,1887.000,1.7276133085179026
1688,1888.000,2.602986272214821
1689,1889.000,-0.9566633471554269
1690,1890.000,7.605956395840849
1691,1891.000,-4.406896599976108
1692,1892.000,7.245788517563824
1693,1893.000,3.3159475539339383
1694,1894.000,5.937407267854269
1695,1895.000,-0.9826126287450734
1696,1896.000,4.628565529223806
1697,1897.000,-2.648552640037451
1698,1898.000,-1.5110225652638292
1699,1899.000,-8.073941722168229
1700,1900.000,-6.516479633502513
1701,1901.000,7.22754713091831
1702,1902.000,13.106768954146446
1703,1903.000,-2.70136682792986
1704,1904.000,12.068427073351359
1705,1905.000,8.33580489939959
1706,1906.000,-9.173341155695425
1707,1907.000,-1.8916029452029761
1708,1908.000,-6.327799369787726
1709,1909.000,11.939534622423025
1710,1910.000,-2.9043729641934988
1711,1911.000,-12.875503172804883
1712,1912.000,9.24965690582394
1713,1913.000,-0.6186758667113281
1714,1914.000,-2.1195806764997087
1715,1915.000,-0.2350667573721239
1716,1916.000,2.024186609065964
1717,1917.000,-0.7542719066220798
1718,1918.000,4.0020563182552
1719,1919.000,11.001111858459353
1720,1920.000,2.100337240785393
1721,1921.000,10.9625769440147
1722,1922.000,-8.622883601144395
1723,1923.000,-12.715427012082728
1724,1924.000,6.207030045642341
1725,1925.000,17.142180858270876
1726,1926.000,5.6502906637877
1727,1927.000,4.939536651891785
1728,1928.000,0.9990399639164025
1729,1929.000,4.828130692814511
1730,1930.000,5.171491883101453
1731,1931.000,6.3348775307906635
1732,1932.000,-0.7864984166274098
1733,1933.000,6.399514939753999
1734,1934.000,9.00576245021648
1735,1935.000,-2.5597600836438232
1736,1936.000,3.7532090910592615
1737,1937.000,-1.654177321566067
1738,1938.000,-1.4011626662263552
1739,1939.000,4.317635663512874
1740,1940.000,5.142850225164693
1741,1941.000,6.044847527295133
1742,1942.000,7.079165029467504
1743,1943.000,7.6019101421782125
1744,1944.000,1.7464582268376034
1745,1945.000,5.853878595707101
1746,1946.000,6.4938795118546295
1747,1947.000,-5.257371810887889
1748,1948.000,0.19564379201437987
1749,1949.000,3.5806354357789587
1750,1950.000,-4.261610813777679
1751,1951.000,3.620067059749317
1752,1952.000,-8.294085976719543
1753,1953.000,-5.826830005786633
1754,1954.000,1.2889118403868451
1755,1955.000,-6.477255619986863
1756,1956.000,-0.8478436183552276
1757,1957.000,2.4468845641245025
1758,1958.000,-2.3148834034602714
1759,1959.000,8.7987490981684
1760,1960.000,-7.200119361560837
1761,1961.000,1.0106747368834021
1762,1962.000,-4.661119136914749
1763,1963.000,2.2405884366382907
1764,1964.000,-2.4488201729016055
1765,1965.000,-2.7805156460740363
1766,1966.000,16.210068286459546
1767,1967.000,9.272319843851847
1768,1968.000,2.5965891950213518
1769,1969.000,3.209297458623041
1770,1970.000,-0.9242012970178166
1771,1971.000,0.3712479460546092
1772,1972.000,-1.2104548446104673
1773,1973.000,-2.5288877519355992
1774,1974.000,-5.192008909350534
1775,1975.000,1.7058694991571883
1776,1976.000,0.7090212390007764
1777,1977.000,-2.632740975064735
1778,1978.000,2.109448521023296
1779,1979.000,-3.8361246594265594
1780,1980.000,-7.839320953888091
1781,1981.000,1.6783911493218966
1782,1982.000,4.9068901110003935
1783,1983.000,-0.8419296589847818
1784,1984.000,-9.94462780175445
1785,1985.000,-3.204120009448161
1786,1986.000,-13.425923025291468
1787,1987.000,3.0228653563792705
1788,1988.000,-10.271436709937689
1789,1989.000,-2.4343731209792168
1790,1990.000,-11.75078282472191
1791,1991.000,-3.0428228204650623
1792,1992.000,4.82974184113823
1793,1993.000,-4.665975941967872
1794,1994.000,-0.16122732328426537
1795,1995.000,-3.218368507825744
1796,1996.000,-2.3612867521421776
1797,1997.000,2.4273216356348257
1798,1998.000,1.325332295715043
1799,1999.000,-9.521323183361801
1800,2000.000,-7.970384264801396
