raman_shift_cm-1,intensity
200.0000,40.205940
201.0000,40.206617
202.0000,40.207298
203.0000,40.207983
204.0000,40.208671
205.0000,40.209364
206.0000,40.210061
207.0000,40.210762
208.0000,40.211467
209.0000,40.212176
210.0000,40.212889
211.0000,40.213606
212.0000,40.214328
213.0000,40.215053
214.0000,40.215783
215.0000,40.216518
216.0000,40.217256
217.0000,40.217999
218.0000,40.218747
219.0000,40.219499
220.0000,40.220255
221.0000,40.221017
222.0000,40.221782
223.0000,40.222553
224.0000,40.223327
225.0000,40.224107
226.0000,40.224892
227.0000,40.225681
228.0000,40.226475
229.0000,40.227274
230.0000,40.228078
231.0000,40.228887
232.0000,40.229701
233.0000,40.230520
234.0000,40.231344
235.0000,40.232173
236.0000,40.233008
237.0000,40.233848
238.0000,40.234693
239.0000,40.235543
240.0000,40.236399
241.0000,40.237260
242.0000,40.238127
243.0000,40.239000
244.0000,40.239878
245.0000,40.240761
246.0000,40.241651
247.0000,40.242546
248.0000,40.243447
249.0000,40.244354
250.0000,40.245267
251.0000,40.246186
252.0000,40.247111
253.0000,40.248042
254.0000,40.248979
255.0000,40.249923
256.0000,40.250873
257.0000,40.251829
258.0000,40.252791
259.0000,40.253761
260.0000,40.254736
261.0000,40.255719
262.0000,40.256708
263.0000,40.257704
264.0000,40.258706
265.0000,40.259716
266.0000,40.260732
267.0000,40.261756
268.0000,40.262787
269.0000,40.263824
270.0000,40.264870
271.0000,40.265922
272.0000,40.266982
273.0000,40.268049
274.0000,40.269124
275.0000,40.270207
276.0000,40.271297
277.0000,40.272395
278.0000,40.273501
279.0000,40.274615
280.0000,40.275738
281.0000,40.276868
282.0000,40.278006
283.0000,40.279153
284.0000,40.280308
285.0000,40.281472
286.0000,40.282644
287.0000,40.283825
288.0000,40.285015
289.0000,40.286214
290.0000,40.287421
291.0000,40.288638
292.0000,40.289864
293.0000,40.291099
294.0000,40.292344
295.0000,40.293598
296.0000,40.294862
297.0000,40.296135
298.0000,40.297419
299.0000,40.298712
300.0000,40.300015
301.0000,40.301328
302.0000,40.302652
303.0000,40.303986
304.0000,40.305331
305.0000,40.306686
306.0000,40.308052
307.0000,40.309429
308.0000,40.310817
309.0000,40.312216
310.0000,40.313626
311.0000,40.315048
312.0000,40.316481
313.0000,40.317926
314.0000,40.319383
315.0000,40.320852
316.0000,40.322333
317.0000,40.323826
318.0000,40.325332
319.0000,40.326850
320.0000,40.328381
321.0000,40.329925
322.0000,40.331482
323.0000,40.333052
324.0000,40.334635
325.0000,40.336232
326.0000,40.337843
327.0000,40.339467
328.0000,40.341106
329.0000,40.342759
330.0000,40.344426
331.0000,40.346108
332.0000,40.347805
333.0000,40.349516
334.0000,40.351243
335.0000,40.352985
336.0000,40.354743
337.0000,40.356517
338.0000,40.358306
339.0000,40.360112
340.0000,40.361934
341.0000,40.363773
342.0000,40.365629
343.0000,40.367501
344.0000,40.369391
345.0000,40.371299
346.0000,40.373224
347.0000,40.375168
348.0000,40.377130
349.0000,40.379110
350.0000,40.381109
351.0000,40.383127
352.0000,40.385165
353.0000,40.387222
354.0000,40.389298
355.0000,40.391396
356.0000,40.393513
357.0000,40.395651
358.0000,40.397810
359.0000,40.399991
360.0000,40.402193
361.0000,40.404417
362.0000,40.406664
363.0000,40.408933
364.0000,40.411225
365.0000,40.413540
366.0000,40.415879
367.0000,40.418242
368.0000,40.420629
369.0000,40.423041
370.0000,40.425477
371.0000,40.427940
372.0000,40.430428
373.0000,40.432942
374.0000,40.435483
375.0000,40.438051
376.0000,40.440647
377.0000,40.443270
378.0000,40.445922
379.0000,40.448603
380.0000,40.451312
381.0000,40.454052
382.0000,40.456821
383.0000,40.459622
384.0000,40.462453
385.0000,40.465316
386.0000,40.468211
387.0000,40.471139
388.0000,40.474100
389.0000,40.477095
390.0000,40.480124
391.0000,40.483188
392.0000,40.486288
393.0000,40.489424
394.0000,40.492596
395.0000,40.495806
396.0000,40.499054
397.0000,40.502340
398.0000,40.505665
399.0000,40.509031
400.0000,40.512437
401.0000,40.515884
402.0000,40.519374
403.0000,40.522906
404.0000,40.526482
405.0000,40.530103
406.0000,40.533768
407.0000,40.537480
408.0000,40.541238
409.0000,40.545044
410.0000,40.548898
411.0000,40.552802
412.0000,40.556756
413.0000,40.560762
414.0000,40.564819
415.0000,40.568930
416.0000,40.573096
417.0000,40.577316
418.0000,40.581593
419.0000,40.585927
420.0000,40.590319
421.0000,40.594771
422.0000,40.599284
423.0000,40.603859
424.0000,40.608498
425.0000,40.613200
426.0000,40.617969
427.0000,40.622804
428.0000,40.627708
429.0000,40.632682
430.0000,40.637727
431.0000,40.642844
432.0000,40.648036
433.0000,40.653303
434.0000,40.658648
435.0000,40.664072
436.0000,40.669576
437.0000,40.675163
438.0000,40.680834
439.0000,40.686590
440.0000,40.692435
441.0000,40.698369
442.0000,40.704394
443.0000,40.710513
444.0000,40.716728
445.0000,40.723041
446.0000,40.729454
447.0000,40.735968
448.0000,40.742588
449.0000,40.749315
450.0000,40.756150
451.0000,40.763098
452.0000,40.770161
453.0000,40.777341
454.0000,40.784640
455.0000,40.792063
456.0000,40.799611
457.0000,40.807288
458.0000,40.815097
459.0000,40.823042
460.0000,40.831124
461.0000,40.839349
462.0000,40.847719
463.0000,40.856237
464.0000,40.864909
465.0000,40.873737
466.0000,40.882726
467.0000,40.891879
468.0000,40.901202
469.0000,40.910698
470.0000,40.920371
471.0000,40.930228
472.0000,40.940272
473.0000,40.950508
474.0000,40.960942
475.0000,40.971579
476.0000,40.982425
477.0000,40.993485
478.0000,41.004765
479.0000,41.016271
480.0000,41.028011
481.0000,41.039990
482.0000,41.052215
483.0000,41.064693
484.0000,41.077433
485.0000,41.090440
486.0000,41.103724
487.0000,41.117292
488.0000,41.131153
489.0000,41.145316
490.0000,41.159789
491.0000,41.174583
492.0000,41.189708
493.0000,41.205173
494.0000,41.220990
495.0000,41.237168
496.0000,41.253721
497.0000,41.270660
498.0000,41.287998
499.0000,41.305747
500.0000,41.323922
501.0000,41.342535
502.0000,41.361603
503.0000,41.381140
504.0000,41.401163
505.0000,41.421688
506.0000,41.442733
507.0000,41.464316
508.0000,41.486456
509.0000,41.509172
510.0000,41.532487
511.0000,41.556420
512.0000,41.580997
513.0000,41.606239
514.0000,41.632172
515.0000,41.658822
516.0000,41.686217
517.0000,41.714384
518.0000,41.743356
519.0000,41.773162
520.0000,41.803836
521.0000,41.835413
522.0000,41.867929
523.0000,41.901424
524.0000,41.935937
525.0000,41.971511
526.0000,42.008190
527.0000,42.046023
528.0000,42.085059
529.0000,42.125351
530.0000,42.166954
531.0000,42.209926
532.0000,42.254329
533.0000,42.300230
534.0000,42.347696
535.0000,42.396802
536.0000,42.447624
537.0000,42.500246
538.0000,42.554754
539.0000,42.611241
540.0000,42.669805
541.0000,42.730551
542.0000,42.793591
543.0000,42.859041
544.0000,42.927029
545.0000,42.997689
546.0000,43.071164
547.0000,43.147608
548.0000,43.227184
549.0000,43.310068
550.0000,43.396448
551.0000,43.486524
552.0000,43.580513
553.0000,43.678646
554.0000,43.781172
555.0000,43.888361
556.0000,44.000500
557.0000,44.117901
558.0000,44.240901
559.0000,44.369864
560.0000,44.505184
561.0000,44.647287
562.0000,44.796636
563.0000,44.953735
564.0000,45.119131
565.0000,45.293421
566.0000,45.477255
567.0000,45.671345
568.0000,45.876471
569.0000,46.093484
570.0000,46.323324
571.0000,46.567021
572.0000,46.825712
573.0000,47.100653
574.0000,47.393230
575.0000,47.704985
576.0000,48.037625
577.0000,48.393055
578.0000,48.773397
579.0000,49.181027
580.0000,49.618607
581.0000,50.089129
582.0000,50.595967
583.0000,51.142932
584.0000,51.734343
585.0000,52.375112
586.0000,53.070840
587.0000,53.827935
588.0000,54.653756
589.0000,55.556783
590.0000,56.546826
591.0000,57.635277
592.0000,58.835424
593.0000,60.162834
594.0000,61.635822
595.0000,63.276052
596.0000,65.109265
597.0000,67.166220
598.0000,69.483870
599.0000,72.106860
600.0000,75.089459
601.0000,78.498028
602.0000,82.414225
603.0000,86.939153
604.0000,92.198762
605.0000,98.350853
606.0000,105.594123
607.0000,114.179711
608.0000,124.425531
609.0000,136.733195
610.0000,151.605879
611.0000,169.662137
612.0000,191.633341
613.0000,218.317682
614.0000,250.437331
615.0000,288.308200
616.0000,331.210609
617.0000,376.443424
618.0000,418.445485
619.0000,449.096210
620.0000,460.449652
621.0000,449.100407
622.0000,418.453881
623.0000,376.456019
624.0000,331.227403
625.0000,288.329195
626.0000,250.462528
627.0000,218.347083
628.0000,191.666949
629.0000,169.699954
630.0000,151.647908
631.0000,136.779439
632.0000,124.475993
633.0000,114.234394
634.0000,105.653032
635.0000,98.413992
636.0000,92.266137
637.0000,87.010767
638.0000,82.490084
639.0000,78.578138
640.0000,75.173826
641.0000,72.195490
642.0000,69.576769
643.0000,67.263396
644.0000,65.210724
645.0000,63.381802
646.0000,61.745872
647.0000,60.277190
648.0000,58.954097
649.0000,57.758274
650.0000,56.674156
651.0000,55.688457
652.0000,54.789783
653.0000,53.968325
654.0000,53.215604
655.0000,52.524261
656.0000,51.887888
657.0000,51.300884
658.0000,50.758339
659.0000,50.255933
660.0000,49.789854
661.0000,49.356732
662.0000,48.953573
663.0000,48.577715
664.0000,48.226784
665.0000,47.898656
666.0000,47.591430
667.0000,47.303395
668.0000,47.033013
669.0000,46.778896
670.0000,46.539790
671.0000,46.314558
672.0000,46.102168
673.0000,45.901685
674.0000,45.712255
675.0000,45.533099
676.0000,45.363506
677.0000,45.202826
678.0000,45.050463
679.0000,44.905869
680.0000,44.768542
681.0000,44.638019
682.0000,44.513874
683.0000,44.395714
684.0000,44.283174
685.0000,44.175919
686.0000,44.073638
687.0000,43.976042
688.0000,43.882864
689.0000,43.793854
690.0000,43.708782
691.0000,43.627432
692.0000,43.549603
693.0000,43.475107
694.0000,43.403772
695.0000,43.335432
696.0000,43.269935
697.0000,43.207138
698.0000,43.146908
699.0000,43.089119
700.0000,43.033652
701.0000,42.980398
702.0000,42.929252
703.0000,42.880116
704.0000,42.832899
705.0000,42.787514
706.0000,42.743878
707.0000,42.701916
708.0000,42.661554
709.0000,42.622724
710.0000,42.585361
711.0000,42.549404
712.0000,42.514795
713.0000,42.481478
714.0000,42.449403
715.0000,42.418520
716.0000,42.388782
717.0000,42.360146
718.0000,42.332568
719.0000,42.306010
720.0000,42.280434
721.0000,42.255804
722.0000,42.232085
723.0000,42.209246
724.0000,42.187255
725.0000,42.166083
726.0000,42.145702
727.0000,42.126085
728.0000,42.107208
729.0000,42.089047
730.0000,42.071577
731.0000,42.054777
732.0000,42.038627
733.0000,42.023106
734.0000,42.008195
735.0000,41.993877
736.0000,41.980133
737.0000,41.966948
738.0000,41.954305
739.0000,41.942189
740.0000,41.930587
741.0000,41.919484
742.0000,41.908867
743.0000,41.898723
744.0000,41.889041
745.0000,41.879810
746.0000,41.871017
747.0000,41.862653
748.0000,41.854707
749.0000,41.847171
750.0000,41.840035
751.0000,41.833290
752.0000,41.826928
753.0000,41.820941
754.0000,41.815322
755.0000,41.810063
756.0000,41.805157
757.0000,41.800597
758.0000,41.796379
759.0000,41.792494
760.0000,41.788939
761.0000,41.785707
762.0000,41.782793
763.0000,41.780192
764.0000,41.777900
765.0000,41.775913
766.0000,41.774225
767.0000,41.772834
768.0000,41.771735
769.0000,41.770925
770.0000,41.770401
771.0000,41.770159
772.0000,41.770197
773.0000,41.770512
774.0000,41.771101
775.0000,41.771962
776.0000,41.773093
777.0000,41.774491
778.0000,41.776156
779.0000,41.778084
780.0000,41.780275
781.0000,41.782728
782.0000,41.785441
783.0000,41.788412
784.0000,41.791642
785.0000,41.795129
786.0000,41.798873
787.0000,41.802872
788.0000,41.807128
789.0000,41.811639
790.0000,41.816406
791.0000,41.821429
792.0000,41.826707
793.0000,41.832242
794.0000,41.838033
795.0000,41.844081
796.0000,41.850387
797.0000,41.856953
798.0000,41.863778
799.0000,41.870864
800.0000,41.878212
801.0000,41.885824
802.0000,41.893701
803.0000,41.901845
804.0000,41.910258
805.0000,41.918941
806.0000,41.927897
807.0000,41.937128
808.0000,41.946637
809.0000,41.956425
810.0000,41.966495
811.0000,41.976851
812.0000,41.987495
813.0000,41.998431
814.0000,42.009660
815.0000,42.021188
816.0000,42.033017
817.0000,42.045152
818.0000,42.057595
819.0000,42.070352
820.0000,42.083426
821.0000,42.096822
822.0000,42.110543
823.0000,42.124596
824.0000,42.138985
825.0000,42.153715
826.0000,42.168792
827.0000,42.184220
828.0000,42.200006
829.0000,42.216156
830.0000,42.232676
831.0000,42.249571
832.0000,42.266849
833.0000,42.284517
834.0000,42.302582
835.0000,42.321050
836.0000,42.339930
837.0000,42.359230
838.0000,42.378957
839.0000,42.399120
840.0000,42.419728
841.0000,42.440790
842.0000,42.462314
843.0000,42.484311
844.0000,42.506791
845.0000,42.529764
846.0000,42.553240
847.0000,42.577231
848.0000,42.601748
849.0000,42.626803
850.0000,42.652409
851.0000,42.678576
852.0000,42.705320
853.0000,42.732653
854.0000,42.760590
855.0000,42.789145
856.0000,42.818332
857.0000,42.848169
858.0000,42.878669
859.0000,42.909852
860.0000,42.941733
861.0000,42.974330
862.0000,43.007663
863.0000,43.041750
864.0000,43.076612
865.0000,43.112268
866.0000,43.148741
867.0000,43.186052
868.0000,43.224226
869.0000,43.263285
870.0000,43.303254
871.0000,43.344160
872.0000,43.386029
873.0000,43.428889
874.0000,43.472768
875.0000,43.517698
876.0000,43.563708
877.0000,43.610831
878.0000,43.659102
879.0000,43.708555
880.0000,43.759226
881.0000,43.811154
882.0000,43.864378
883.0000,43.918939
884.0000,43.974881
885.0000,44.032247
886.0000,44.091085
887.0000,44.151443
888.0000,44.213372
889.0000,44.276924
890.0000,44.342156
891.0000,44.409123
892.0000,44.477887
893.0000,44.548511
894.0000,44.621060
895.0000,44.695603
896.0000,44.772212
897.0000,44.850963
898.0000,44.931934
899.0000,45.015207
900.0000,45.100870
901.0000,45.189014
902.0000,45.279733
903.0000,45.373127
904.0000,45.469301
905.0000,45.568366
906.0000,45.670437
907.0000,45.775637
908.0000,45.884092
909.0000,45.995939
910.0000,46.111319
911.0000,46.230382
912.0000,46.353285
913.0000,46.480196
914.0000,46.611290
915.0000,46.746753
916.0000,46.886780
917.0000,47.031580
918.0000,47.181371
919.0000,47.336387
920.0000,47.496874
921.0000,47.663093
922.0000,47.835322
923.0000,48.013855
924.0000,48.199005
925.0000,48.391104
926.0000,48.590508
927.0000,48.797593
928.0000,49.012763
929.0000,49.236445
930.0000,49.469100
931.0000,49.711217
932.0000,49.963322
933.0000,50.225975
934.0000,50.499779
935.0000,50.785381
936.0000,51.083475
937.0000,51.394808
938.0000,51.720184
939.0000,52.060470
940.0000,52.416600
941.0000,52.789585
942.0000,53.180518
943.0000,53.590582
944.0000,54.021062
945.0000,54.473351
946.0000,54.948966
947.0000,55.449559
948.0000,55.976932
949.0000,56.533052
950.0000,57.120075
951.0000,57.740360
952.0000,58.396501
953.0000,59.091350
954.0000,59.828051
955.0000,60.610073
956.0000,61.441259
957.0000,62.325866
958.0000,63.268626
959.0000,64.274812
960.0000,65.350306
961.0000,66.501694
962.0000,67.736365
963.0000,69.062632
964.0000,70.489873
965.0000,72.028703
966.0000,73.691164
967.0000,75.490971
968.0000,77.443791
969.0000,79.567586
970.0000,81.883024
971.0000,84.413976
972.0000,87.188129
973.0000,90.237727
974.0000,93.600490
975.0000,97.320748
976.0000,101.450858
977.0000,106.052967
978.0000,111.201241
979.0000,116.984680
980.0000,123.510706
981.0000,130.909756
982.0000,139.341184
983.0000,149.000901
984.0000,160.131278
985.0000,173.034013
986.0000,188.086834
987.0000,205.765076
988.0000,226.669178
989.0000,251.558861
990.0000,281.393454
991.0000,317.374483
992.0000,360.978616
993.0000,413.951633
994.0000,478.198980
995.0000,555.445772
996.0000,646.450611
997.0000,749.507311
998.0000,858.192993
999.0000,959.276436
1000.0000,1033.434028
1001.0000,1061.759698
1002.0000,1036.160260
1003.0000,964.761224
1004.0000,866.501894
1005.0000,760.740980
1006.0000,660.747707
1007.0000,572.987063
1008.0000,499.212851
1009.0000,438.721294
1010.0000,389.851403
1011.0000,350.773793
1012.0000,319.834009
1013.0000,295.666235
1014.0000,277.204837
1015.0000,263.658533
1016.0000,254.477031
1017.0000,249.322588
1018.0000,248.050985
1019.0000,250.702830
1020.0000,257.504168
1021.0000,268.873198
1022.0000,285.425515
1023.0000,307.960868
1024.0000,337.395303
1025.0000,374.568225
1026.0000,419.805350
1027.0000,472.091014
1028.0000,527.826726
1029.0000,579.678449
1030.0000,616.968478
1031.0000,629.254354
1032.0000,612.044987
1033.0000,569.772715
1034.0000,512.819597
1035.0000,451.799544
1036.0000,393.977514
1037.0000,342.875459
1038.0000,299.422487
1039.0000,263.193222
1040.0000,233.231685
1041.0000,208.483562
1042.0000,187.983084
1043.0000,170.913124
1044.0000,156.608433
1045.0000,144.537447
1046.0000,134.278807
1047.0000,125.499122
1048.0000,117.934133
1049.0000,111.373547
1050.0000,105.649139
1051.0000,100.625536
1052.0000,96.193116
1053.0000,92.262536
1054.0000,88.760518
1055.0000,85.626579
1056.0000,82.810495
1057.0000,80.270314
1058.0000,77.970793
1059.0000,75.882169
1060.0000,73.979173
1061.0000,72.240247
1062.0000,5070.646914
1063.0000,69.183263
1064.0000,67.835541
1065.0000,66.591804
1066.0000,65.441646
1067.0000,64.375966
1068.0000,63.386776
1069.0000,62.467042
1070.0000,61.610552
1071.0000,60.811805
1072.0000,60.065914
1073.0000,59.368526
1074.0000,58.715757
1075.0000,58.104131
1076.0000,57.530532
1077.0000,56.992163
1078.0000,56.486505
1079.0000,56.011288
1080.0000,55.564466
1081.0000,55.144188
1082.0000,54.748781
1083.0000,54.376733
1084.0000,54.026672
1085.0000,53.697361
1086.0000,53.387676
1087.0000,53.096604
1088.0000,52.823229
1089.0000,52.566727
1090.0000,52.326355
1091.0000,52.101453
1092.0000,51.891428
1093.0000,51.695760
1094.0000,51.513991
1095.0000,51.345727
1096.0000,51.190632
1097.0000,51.048428
1098.0000,50.918893
1099.0000,50.801863
1100.0000,50.697227
1101.0000,50.604930
1102.0000,50.524977
1103.0000,50.457429
1104.0000,50.402408
1105.0000,50.360102
1106.0000,50.330764
1107.0000,50.314721
1108.0000,50.312378
1109.0000,50.324224
1110.0000,50.350840
1111.0000,50.392911
1112.0000,50.451235
1113.0000,50.526734
1114.0000,50.620475
1115.0000,50.733684
1116.0000,50.867769
1117.0000,51.024347
1118.0000,51.205269
1119.0000,51.412665
1120.0000,51.648978
1121.0000,51.917018
1122.0000,52.220029
1123.0000,52.561753
1124.0000,52.946528
1125.0000,53.379393
1126.0000,53.866221
1127.0000,54.413881
1128.0000,55.030441
1129.0000,55.725414
1130.0000,56.510068
1131.0000,57.397812
1132.0000,58.404688
1133.0000,59.549982
1134.0000,60.857017
1135.0000,62.354156
1136.0000,64.076099
1137.0000,66.065564
1138.0000,68.375455
1139.0000,71.071694
1140.0000,74.236887
1141.0000,77.975067
1142.0000,82.417737
1143.0000,87.731380
1144.0000,94.126321
1145.0000,101.866087
1146.0000,111.274646
1147.0000,122.735059
1148.0000,136.665389
1149.0000,153.443884
1150.0000,173.235987
1151.0000,195.664692
1152.0000,219.315087
1153.0000,241.274156
1154.0000,257.288230
1155.0000,263.195122
1156.0000,257.211020
1157.0000,241.119684
1158.0000,219.083251
1159.0000,195.355336
1160.0000,172.848905
1161.0000,152.978816
1162.0000,136.122024
1163.0000,122.113031
1164.0000,110.573537
1165.0000,101.085423
1166.0000,93.265572
1167.0000,86.789961
1168.0000,81.395005
1169.0000,76.870320
1170.0000,73.049364
1171.0000,69.800572
1172.0000,67.019850
1173.0000,64.624526
1174.0000,62.548614
1175.0000,60.739139
1176.0000,59.153318
1177.0000,57.756375
1178.0000,56.519875
1179.0000,55.420417
1180.0000,54.438636
1181.0000,53.558409
1182.0000,52.766241
1183.0000,52.050775
1184.0000,51.402406
1185.0000,50.812972
1186.0000,50.275502
1187.0000,49.784021
1188.0000,49.333381
1189.0000,48.919132
1190.0000,48.537410
1191.0000,48.184852
1192.0000,47.858515
1193.0000,47.555821
1194.0000,47.274498
1195.0000,47.012543
1196.0000,46.768184
1197.0000,46.539845
1198.0000,46.326126
1199.0000,46.125777
1200.0000,45.937679
1201.0000,45.760830
1202.0000,45.594328
1203.0000,45.437363
1204.0000,45.289201
1205.0000,45.149180
1206.0000,45.016699
1207.0000,44.891215
1208.0000,44.772230
1209.0000,44.659293
1210.0000,44.551992
1211.0000,44.449950
1212.0000,44.352823
1213.0000,44.260292
1214.0000,44.172069
1215.0000,44.087885
1216.0000,44.007494
1217.0000,43.930670
1218.0000,43.857203
1219.0000,43.786898
1220.0000,43.719577
1221.0000,43.655074
1222.0000,43.593233
1223.0000,43.533911
1224.0000,43.476976
1225.0000,43.422303
1226.0000,43.369776
1227.0000,43.319288
1228.0000,5043.270739
1229.0000,43.224033
1230.0000,43.179083
1231.0000,43.135807
1232.0000,43.094127
1233.0000,43.053971
1234.0000,43.015272
1235.0000,42.977964
1236.0000,42.941990
1237.0000,42.907291
1238.0000,42.873815
1239.0000,42.841512
1240.0000,42.810336
1241.0000,42.780241
1242.0000,42.751185
1243.0000,42.723130
1244.0000,42.696038
1245.0000,42.669873
1246.0000,42.644602
1247.0000,42.620194
1248.0000,42.596619
1249.0000,42.573848
1250.0000,42.551855
1251.0000,42.530614
1252.0000,42.510102
1253.0000,42.490295
1254.0000,42.471172
1255.0000,42.452713
1256.0000,42.434897
1257.0000,42.417707
1258.0000,42.401125
1259.0000,42.385135
1260.0000,42.369720
1261.0000,42.354866
1262.0000,42.340559
1263.0000,42.326784
1264.0000,42.313530
1265.0000,42.300784
1266.0000,42.288535
1267.0000,42.276772
1268.0000,42.265484
1269.0000,42.254662
1270.0000,42.244296
1271.0000,42.234379
1272.0000,42.224900
1273.0000,42.215854
1274.0000,42.207231
1275.0000,42.199026
1276.0000,42.191232
1277.0000,42.183843
1278.0000,42.176852
1279.0000,42.170256
1280.0000,42.164048
1281.0000,42.158224
1282.0000,42.152779
1283.0000,42.147711
1284.0000,42.143014
1285.0000,42.138686
1286.0000,42.134724
1287.0000,42.131125
1288.0000,42.127886
1289.0000,42.125005
1290.0000,42.122481
1291.0000,42.120312
1292.0000,42.118497
1293.0000,42.117034
1294.0000,42.115922
1295.0000,42.115162
1296.0000,42.114753
1297.0000,42.114695
1298.0000,42.114989
1299.0000,42.115634
1300.0000,42.116632
1301.0000,42.117985
1302.0000,42.119692
1303.0000,42.121756
1304.0000,42.124179
1305.0000,42.126964
1306.0000,42.130112
1307.0000,42.133626
1308.0000,42.137509
1309.0000,42.141765
1310.0000,42.146398
1311.0000,42.151411
1312.0000,42.156809
1313.0000,42.162595
1314.0000,42.168776
1315.0000,42.175356
1316.0000,42.182341
1317.0000,42.189737
1318.0000,42.197550
1319.0000,42.205787
1320.0000,42.214455
1321.0000,42.223562
1322.0000,42.233115
1323.0000,42.243123
1324.0000,42.253594
1325.0000,42.264538
1326.0000,42.275964
1327.0000,42.287883
1328.0000,42.300306
1329.0000,42.313243
1330.0000,42.326707
1331.0000,42.340710
1332.0000,42.355265
1333.0000,42.370387
1334.0000,42.386089
1335.0000,42.402386
1336.0000,42.419295
1337.0000,42.436831
1338.0000,42.455014
1339.0000,42.473860
1340.0000,42.493389
1341.0000,42.513621
1342.0000,42.534578
1343.0000,42.556282
1344.0000,42.578756
1345.0000,42.602024
1346.0000,42.626113
1347.0000,42.651049
1348.0000,42.676861
1349.0000,42.703578
1350.0000,42.731233
1351.0000,42.759858
1352.0000,42.789488
1353.0000,42.820159
1354.0000,42.851911
1355.0000,42.884784
1356.0000,42.918820
1357.0000,42.954065
1358.0000,42.990566
1359.0000,43.028374
1360.0000,43.067542
1361.0000,43.108126
1362.0000,43.150184
1363.0000,43.193781
1364.0000,43.238981
1365.0000,43.285856
1366.0000,43.334479
1367.0000,43.384930
1368.0000,43.437291
1369.0000,43.491653
1370.0000,43.548110
1371.0000,43.606760
1372.0000,43.667712
1373.0000,43.731079
1374.0000,43.796982
1375.0000,43.865549
1376.0000,43.936918
1377.0000,44.011237
1378.0000,44.088662
1379.0000,44.169361
1380.0000,44.253515
1381.0000,44.341315
1382.0000,44.432969
1383.0000,44.528699
1384.0000,44.628744
1385.0000,44.733360
1386.0000,44.842824
1387.0000,44.957435
1388.0000,45.077514
1389.0000,45.203410
1390.0000,45.335499
1391.0000,45.474190
1392.0000,45.619925
1393.0000,45.773186
1394.0000,45.934496
1395.0000,46.104425
1396.0000,46.283595
1397.0000,46.472687
1398.0000,46.672443
1399.0000,46.883679
1400.0000,47.107291
1401.0000,47.344263
1402.0000,47.595681
1403.0000,47.862741
1404.0000,48.146770
1405.0000,48.449236
1406.0000,48.771769
1407.0000,49.116186
1408.0000,49.484512
1409.0000,49.879011
1410.0000,50.302224
1411.0000,50.757002
1412.0000,51.246563
1413.0000,51.774539
1414.0000,52.345049
1415.0000,52.962773
1416.0000,53.633050
1417.0000,54.361988
1418.0000,55.156598
1419.0000,56.024962
1420.0000,56.976426
1421.0000,58.021846
1422.0000,59.173881
1423.0000,60.447361
1424.0000,5061.859736
1425.0000,63.431642
1426.0000,65.187601
1427.0000,67.156912
1428.0000,69.374774
1429.0000,71.883714
1430.0000,74.735420
1431.0000,77.993102
1432.0000,81.734534
1433.0000,86.056014
1434.0000,91.077501
1435.0000,96.949286
1436.0000,103.860616
1437.0000,112.050676
1438.0000,121.822251
1439.0000,133.557837
1440.0000,147.736656
1441.0000,164.947818
1442.0000,185.887876
1443.0000,211.317022
1444.0000,241.923049
1445.0000,278.006835
1446.0000,318.882981
1447.0000,361.978989
1448.0000,401.998528
1449.0000,431.207723
1450.0000,442.039018
1451.0000,431.249182
1452.0000,402.081474
1453.0000,362.103473
1454.0000,319.049082
1455.0000,278.214660
1456.0000,242.172730
1457.0000,211.608719
1458.0000,186.221775
1459.0000,165.324132
1460.0000,148.155628
1461.0000,134.019737
1462.0000,122.327378
1463.0000,112.599357
1464.0000,104.453208
1465.0000,97.586177
1466.0000,91.759108
1467.0000,86.782787
1468.0000,82.506954
1469.0000,78.811683
1470.0000,75.600711
1471.0000,72.796296
1472.0000,70.335266
1473.0000,68.165969
1474.0000,66.245914
1475.0000,64.539943
1476.0000,63.018797
1477.0000,61.657993
1478.0000,60.436940
1479.0000,59.338232
1480.0000,58.347085
1481.0000,57.450886
1482.0000,56.638831
1483.0000,55.901624
1484.0000,55.231237
1485.0000,54.620713
1486.0000,54.064003
1487.0000,53.555830
1488.0000,53.091574
1489.0000,52.667184
1490.0000,52.279095
1491.0000,51.924164
1492.0000,51.599611
1493.0000,51.302978
1494.0000,51.032082
1495.0000,50.784983
1496.0000,50.559958
1497.0000,50.355472
1498.0000,50.170155
1499.0000,50.002790
1500.0000,49.852290
1501.0000,49.717688
1502.0000,49.598122
1503.0000,49.492829
1504.0000,49.401131
1505.0000,49.322431
1506.0000,49.256203
1507.0000,49.201991
1508.0000,49.159397
1509.0000,49.128082
1510.0000,49.107762
1511.0000,49.098200
1512.0000,49.099210
1513.0000,49.110651
1514.0000,49.132425
1515.0000,49.164479
1516.0000,49.206798
1517.0000,49.259413
1518.0000,49.322392
1519.0000,49.395847
1520.0000,49.479930
1521.0000,49.574836
1522.0000,49.680806
1523.0000,49.798123
1524.0000,49.927120
1525.0000,50.068180
1526.0000,50.221738
1527.0000,50.388286
1528.0000,50.568375
1529.0000,50.762624
1530.0000,50.971721
1531.0000,51.196430
1532.0000,51.437599
1533.0000,51.696167
1534.0000,51.973176
1535.0000,52.269778
1536.0000,52.587248
1537.0000,52.926998
1538.0000,53.290596
1539.0000,53.679777
1540.0000,54.096472
1541.0000,54.542827
1542.0000,55.021233
1543.0000,55.534359
1544.0000,56.085191
1545.0000,56.677073
1546.0000,57.313762
1547.0000,57.999491
1548.0000,58.739039
1549.0000,59.537818
1550.0000,60.401976
1551.0000,61.338519
1552.0000,62.355462
1553.0000,63.462002
1554.0000,64.668739
1555.0000,65.987937
1556.0000,67.433848
1557.0000,69.023110
1558.0000,70.775241
1559.0000,72.713253
1560.0000,74.864426
1561.0000,77.261276
1562.0000,79.942794
1563.0000,82.956014
1564.0000,86.358039
1565.0000,90.218635
1566.0000,94.623601
1567.0000,99.679130
1568.0000,105.517459
1569.0000,112.304154
1570.0000,120.247385
1571.0000,129.609446
1572.0000,140.720356
1573.0000,153.992272
1574.0000,169.930805
1575.0000,189.133569
1576.0000,212.254743
1577.0000,239.893710
1578.0000,272.336681
1579.0000,309.063585
1580.0000,348.006641
1581.0000,384.862264
1582.0000,413.330096
1583.0000,427.264848
1584.0000,424.111376
1585.0000,406.694599
1586.0000,381.443676
1587.0000,354.971999
1588.0000,331.942362
1589.0000,314.847804
1590.0000,304.723085
1591.0000,301.912835
1592.0000,306.592412
1593.0000,319.047764
1594.0000,339.783880
1595.0000,369.493028
1596.0000,408.845913
1597.0000,457.993324
1598.0000,515.623082
1599.0000,577.550469
1600.0000,635.410028
1601.0000,677.090243
1602.0000,690.762421
1603.0000,671.320091
1604.0000,623.726115
1605.0000,559.658079
1606.0000,491.060867
1607.0000,426.108726
1608.0000,368.760009
1609.0000,320.052929
1610.0000,279.500910
1611.0000,246.020868
1612.0000,218.420125
1613.0000,195.606804
1614.0000,176.657358
1615.0000,160.820049
1616.0000,147.494312
1617.0000,136.204178
1618.0000,126.573138
1619.0000,118.302834
1620.0000,111.155922
1621.0000,104.942616
1622.0000,99.510269
1623.0000,94.735344
1624.0000,90.517225
1625.0000,86.773452
1626.0000,83.436021
1627.0000,80.448518
1628.0000,77.763867
1629.0000,75.342569
1630.0000,73.151303
1631.0000,71.161818
1632.0000,69.350044
1633.0000,67.695377
1634.0000,66.180106
1635.0000,64.788938
1636.0000,63.508615
1637.0000,62.327604
1638.0000,61.235831
1639.0000,60.224467
1640.0000,59.285750
1641.0000,58.412834
1642.0000,57.599660
1643.0000,56.840853
1644.0000,56.131631
1645.0000,55.467727
1646.0000,54.845324
1647.0000,54.261001
1648.0000,53.711684
1649.0000,53.194602
1650.0000,52.707255
1651.0000,52.247384
1652.0000,51.812937
1653.0000,51.402055
1654.0000,51.013044
1655.0000,50.644361
1656.0000,50.294598
1657.0000,49.962468
1658.0000,49.646789
1659.0000,49.346480
1660.0000,49.060548
1661.0000,48.788077
1662.0000,48.528224
1663.0000,48.280213
1664.0000,48.043326
1665.0000,47.816898
1666.0000,47.600315
1667.0000,47.393006
1668.0000,47.194442
1669.0000,47.004132
1670.0000,46.821617
1671.0000,46.646472
1672.0000,46.478300
1673.0000,46.316730
1674.0000,46.161417
1675.0000,46.012036
1676.0000,45.868284
1677.0000,45.729879
1678.0000,45.596554
1679.0000,45.468061
1680.0000,45.344164
1681.0000,45.224643
1682.0000,45.109293
1683.0000,44.997917
1684.0000,44.890334
1685.0000,44.786368
1686.0000,44.685859
1687.0000,44.588651
1688.0000,44.494599
1689.0000,44.403566
1690.0000,44.315421
1691.0000,44.230043
1692.0000,44.147313
1693.0000,44.067123
1694.0000,43.989367
1695.0000,43.913946
1696.0000,43.840765
1697.0000,43.769736
1698.0000,43.700774
1699.0000,43.633797
1700.0000,43.568728
1701.0000,43.505495
1702.0000,43.444028
1703.0000,43.384260
1704.0000,43.326128
1705.0000,43.269573
1706.0000,43.214535
1707.0000,43.160961
1708.0000,43.108798
1709.0000,43.057996
1710.0000,43.008507
1711.0000,42.960285
1712.0000,42.913286
1713.0000,42.867470
1714.0000,42.822795
1715.0000,42.779223
1716.0000,42.736717
1717.0000,42.695243
1718.0000,42.654766
1719.0000,42.615254
1720.0000,42.576675
1721.0000,42.539001
1722.0000,42.502203
1723.0000,42.466252
1724.0000,42.431123
1725.0000,42.396790
1726.0000,42.363228
1727.0000,42.330415
1728.0000,42.298328
1729.0000,42.266944
1730.0000,42.236244
1731.0000,42.206206
1732.0000,42.176812
1733.0000,42.148043
1734.0000,42.119881
1735.0000,42.092308
1736.0000,42.065308
1737.0000,42.038864
1738.0000,42.012962
1739.0000,41.987586
1740.0000,41.962721
1741.0000,41.938354
1742.0000,41.914471
1743.0000,41.891059
1744.0000,41.868106
1745.0000,41.845598
1746.0000,41.823525
1747.0000,41.801876
1748.0000,41.780638
1749.0000,41.759801
1750.0000,41.739356
1751.0000,41.719292
1752.0000,41.699599
1753.0000,41.680268
1754.0000,41.661291
1755.0000,41.642657
1756.0000,41.624360
1757.0000,41.606389
1758.0000,41.588739
1759.0000,41.571400
1760.0000,41.554366
1761.0000,41.537628
1762.0000,41.521181
1763.0000,41.505017
1764.0000,41.489129
1765.0000,41.473511
1766.0000,41.458157
1767.0000,41.443061
1768.0000,41.428217
1769.0000,41.413619
1770.0000,41.399261
1771.0000,41.385139
1772.0000,41.371246
1773.0000,41.357578
1774.0000,41.344130
1775.0000,41.330897
1776.0000,41.317874
1777.0000,41.305057
1778.0000,41.292442
1779.0000,41.280023
1780.0000,41.267797
1781.0000,41.255760
1782.0000,41.243907
1783.0000,41.232236
1784.0000,41.220741
1785.0000,41.209420
1786.0000,41.198268
1787.0000,41.187283
1788.0000,41.176461
1789.0000,41.165799
1790.0000,41.155293
1791.0000,41.144940
1792.0000,41.134737
1793.0000,41.124682
1794.0000,41.114771
1795.0000,41.105001
1796.0000,41.095370
1797.0000,41.085876
1798.0000,41.076514
1799.0000,5041.067284
1800.0000,41.058181
1801.0000,41.049205
1802.0000,41.040352
1803.0000,41.031620
1804.0000,41.023008
1805.0000,41.014512
1806.0000,41.006130
1807.0000,40.997861
1808.0000,40.989702
1809.0000,40.981651
1810.0000,40.973707
1811.0000,40.965867
1812.0000,40.958130
1813.0000,40.950493
1814.0000,40.942955
1815.0000,40.935514
1816.0000,40.928169
1817.0000,40.920918
1818.0000,40.913758
1819.0000,40.906689
1820.0000,40.899709
1821.0000,40.892816
1822.0000,40.886010
1823.0000,40.879287
1824.0000,40.872648
1825.0000,40.866090
1826.0000,40.859612
1827.0000,40.853213
1828.0000,40.846892
1829.0000,40.840647
1830.0000,40.834477
1831.0000,40.828380
1832.0000,40.822356
1833.0000,40.816403
1834.0000,40.810521
1835.0000,40.804707
1836.0000,40.798962
1837.0000,40.793283
1838.0000,40.787670
1839.0000,40.782122
1840.0000,40.776637
1841.0000,40.771215
1842.0000,5040.765855
1843.0000,40.760555
1844.0000,40.755315
1845.0000,40.750134
1846.0000,40.745011
1847.0000,40.739945
1848.0000,5040.734935
1849.0000,40.729981
1850.0000,40.725081
1851.0000,40.720234
1852.0000,40.715440
1853.0000,40.710699
1854.0000,40.706008
1855.0000,40.701368
1856.0000,40.696778
1857.0000,40.692237
1858.0000,40.687744
1859.0000,40.683299
1860.0000,40.678900
1861.0000,40.674548
1862.0000,40.670241
1863.0000,40.665980
1864.0000,40.661762
1865.0000,40.657588
1866.0000,40.653457
1867.0000,40.649368
1868.0000,40.645321
1869.0000,40.641315
1870.0000,40.637350
1871.0000,40.633425
1872.0000,40.629539
1873.0000,40.625692
1874.0000,40.621884
1875.0000,40.618113
1876.0000,40.614380
1877.0000,40.610684
1878.0000,40.607023
1879.0000,40.603399
1880.0000,40.599810
1881.0000,40.596256
1882.0000,40.592736
1883.0000,40.589250
1884.0000,40.585798
1885.0000,40.582379
1886.0000,40.578992
1887.0000,40.575638
1888.0000,40.572315
1889.0000,40.569023
1890.0000,40.565763
1891.0000,40.562533
1892.0000,40.559333
1893.0000,40.556163
1894.0000,40.553022
1895.0000,40.549910
1896.0000,40.546827
1897.0000,40.543772
1898.0000,40.540745
1899.0000,40.537745
1900.0000,40.534773
1901.0000,40.531827
1902.0000,40.528908
1903.0000,40.526015
1904.0000,40.523148
1905.0000,40.520307
1906.0000,40.517491
1907.0000,40.514699
1908.0000,40.511933
1909.0000,40.509190
1910.0000,40.506472
1911.0000,40.503777
1912.0000,40.501106
1913.0000,40.498457
1914.0000,40.495832
1915.0000,40.493229
1916.0000,40.490649
1917.0000,40.488091
1918.0000,40.485554
1919.0000,40.483039
1920.0000,40.480546
1921.0000,40.478073
1922.0000,40.475621
1923.0000,40.473190
1924.0000,40.470779
1925.0000,40.468388
1926.0000,40.466016
1927.0000,40.463665
1928.0000,40.461333
1929.0000,40.459020
1930.0000,40.456726
1931.0000,40.454451
1932.0000,40.452194
1933.0000,40.449955
1934.0000,5040.447735
1935.0000,40.445532
1936.0000,40.443348
1937.0000,40.441180
1938.0000,40.439030
1939.0000,40.436898
1940.0000,40.434782
1941.0000,40.432683
1942.0000,40.430600
1943.0000,40.428534
1944.0000,40.426484
1945.0000,40.424450
1946.0000,40.422431
1947.0000,40.420429
1948.0000,40.418442
1949.0000,40.416470
1950.0000,40.414514
1951.0000,40.412572
1952.0000,40.410646
1953.0000,40.408734
1954.0000,40.406836
1955.0000,40.404953
1956.0000,40.403084
1957.0000,40.401230
1958.0000,40.399389
1959.0000,40.397562
1960.0000,40.395749
1961.0000,40.393949
1962.0000,40.392162
1963.0000,40.390389
1964.0000,40.388629
1965.0000,40.386882
1966.0000,40.385147
1967.0000,40.383426
1968.0000,40.381717
1969.0000,40.380020
1970.0000,40.378335
1971.0000,40.376663
1972.0000,40.375003
1973.0000,40.373355
1974.0000,40.371719
1975.0000,40.370094
1976.0000,40.368481
1977.0000,40.366879
1978.0000,40.365289
1979.0000,40.363710
1980.0000,40.362142
1981.0000,40.360585
1982.0000,40.359039
1983.0000,40.357504
1984.0000,40.355980
1985.0000,40.354466
1986.0000,40.352963
1987.0000,40.351470
1988.0000,40.349987
1989.0000,40.348515
1990.0000,40.347052
1991.0000,40.345600
1992.0000,40.344158
1993.0000,40.342725
1994.0000,40.341302
1995.0000,40.339889
1996.0000,40.338486
1997.0000,40.337091
1998.0000,40.335706
1999.0000,40.334331
2000.0000,40.332964
