raman_shift_cm-1,intensity
200.0000,60.106960
201.0000,46.825911
202.0000,34.157642
203.0000,36.672445
204.0000,38.548782
205.0000,32.619295
206.0000,33.937324
207.0000,50.990802
208.0000,33.127813
209.0000,42.270101
210.0000,30.578458
211.0000,40.196512
212.0000,41.020857
213.0000,35.757562
214.0000,42.205930
215.0000,35.309629
216.0000,43.577634
217.0000,34.495159
218.0000,41.593008
219.0000,37.908945
220.0000,37.081398
221.0000,48.972719
222.0000,32.578840
223.0000,43.615768
224.0000,35.271136
225.0000,37.591502
226.0000,38.433201
227.0000,38.756828
228.0000,29.847502
229.0000,45.239070
230.0000,34.770369
231.0000,59.120366
232.0000,27.663727
233.0000,42.424443
234.0000,40.031171
235.0000,37.375991
236.0000,37.688836
237.0000,40.283330
238.0000,50.708144
239.0000,33.372740
240.0000,30.323959
241.0000,36.970108
242.0000,41.830257
243.0000,53.100876
244.0000,39.984495
245.0000,34.761078
246.0000,41.729440
247.0000,45.593670
248.0000,48.826385
249.0000,54.355010
250.0000,48.896910
251.0000,28.844769
252.0000,39.722947
253.0000,17.929829
254.0000,39.509292
255.0000,37.245455
256.0000,19.855908
257.0000,47.224171
258.0000,53.643614
259.0000,39.193146
260.0000,27.392632
261.0000,45.955451
262.0000,27.969287
263.0000,40.288061
264.0000,41.945418
265.0000,40.378056
266.0000,47.906543
267.0000,25.486284
268.0000,42.171441
269.0000,29.105178
270.0000,33.471056
271.0000,52.859459
272.0000,35.922464
273.0000,54.334976
274.0000,42.776820
275.0000,41.947443
276.0000,41.424860
277.0000,48.616329
278.0000,53.315064
279.0000,46.428082
280.0000,32.212003
281.0000,23.930998
282.0000,44.539022
283.0000,37.807759
284.0000,36.575805
285.0000,46.807583
286.0000,28.583920
287.0000,38.968192
288.0000,45.191616
289.0000,35.219931
290.0000,23.961693
291.0000,46.029163
292.0000,30.860405
293.0000,32.339778
294.0000,37.137486
295.0000,42.696059
296.0000,43.186665
297.0000,50.678613
298.0000,40.314175
299.0000,22.870725
300.0000,21.520311
301.0000,48.187538
302.0000,38.383439
303.0000,32.995461
304.0000,43.486045
305.0000,42.183543
306.0000,44.229128
307.0000,44.716186
308.0000,45.352335
309.0000,51.779782
310.0000,38.037784
311.0000,43.821255
312.0000,48.981090
313.0000,41.299765
314.0000,45.023842
315.0000,63.341708
316.0000,35.276795
317.0000,41.257825
318.0000,25.524520
319.0000,33.239014
320.0000,29.174804
321.0000,44.193813
322.0000,38.509423
323.0000,37.185952
324.0000,46.801634
325.0000,40.595596
326.0000,55.276499
327.0000,55.786620
328.0000,37.051115
329.0000,35.888607
330.0000,45.912916
331.0000,35.686404
332.0000,33.130258
333.0000,38.092262
334.0000,28.585465
335.0000,36.646480
336.0000,50.950841
337.0000,32.349519
338.0000,51.618136
339.0000,29.879893
340.0000,41.737156
341.0000,41.730595
342.0000,44.738926
343.0000,31.017306
344.0000,48.935442
345.0000,37.651550
346.0000,48.028059
347.0000,38.479615
348.0000,56.339228
349.0000,30.953629
350.0000,36.728450
351.0000,35.970970
352.0000,26.402412
353.0000,39.774943
354.0000,46.376632
355.0000,29.067799
356.0000,47.710969
357.0000,29.909818
358.0000,47.668332
359.0000,45.025247
360.0000,27.848376
361.0000,40.001911
362.0000,42.131958
363.0000,51.672606
364.0000,41.768101
365.0000,47.374241
366.0000,41.874241
367.0000,39.988810
368.0000,29.923874
369.0000,24.475634
370.0000,44.498810
371.0000,55.607088
372.0000,28.437110
373.0000,45.595495
374.0000,37.897090
375.0000,43.579796
376.0000,42.989879
377.0000,38.014748
378.0000,37.181234
379.0000,40.750956
380.0000,44.758119
381.0000,49.539449
382.0000,23.595791
383.0000,46.147696
384.0000,36.718442
385.0000,34.197282
386.0000,36.626844
387.0000,31.471633
388.0000,40.971244
389.0000,37.286405
390.0000,38.371783
391.0000,51.864693
392.0000,43.507566
393.0000,54.401906
394.0000,52.729640
395.0000,43.863111
396.0000,47.097370
397.0000,43.001039
398.0000,41.699008
399.0000,47.956809
400.0000,34.190961
401.0000,39.188708
402.0000,39.840055
403.0000,52.322517
404.0000,52.178030
405.0000,40.884076
406.0000,31.925496
407.0000,31.827184
408.0000,30.456637
409.0000,42.737878
410.0000,32.518839
411.0000,32.714669
412.0000,48.306016
413.0000,34.204005
414.0000,48.062494
415.0000,46.856504
416.0000,26.172686
417.0000,40.333663
418.0000,40.289095
419.0000,46.258792
420.0000,31.880559
421.0000,27.172172
422.0000,40.452074
423.0000,17.536111
424.0000,49.739770
425.0000,37.758149
426.0000,29.993677
427.0000,31.523873
428.0000,32.198981
429.0000,38.938118
430.0000,41.038866
431.0000,56.689897
432.0000,39.922514
433.0000,45.900137
434.0000,33.860586
435.0000,29.765163
436.0000,27.780187
437.0000,47.365742
438.0000,42.978263
439.0000,39.516003
440.0000,38.609663
441.0000,51.757349
442.0000,37.850712
443.0000,49.400509
444.0000,47.847417
445.0000,37.134979
446.0000,24.248622
447.0000,34.112849
448.0000,50.405646
449.0000,49.924096
450.0000,16.254231
451.0000,35.690784
452.0000,30.327515
453.0000,39.237544
454.0000,42.586257
455.0000,41.453174
456.0000,45.906139
457.0000,22.863177
458.0000,32.233333
459.0000,42.381105
460.0000,33.037749
461.0000,34.797978
462.0000,50.225502
463.0000,37.761842
464.0000,38.715533
465.0000,36.392876
466.0000,52.008376
467.0000,34.766269
468.0000,44.797486
469.0000,51.475576
470.0000,41.059563
471.0000,49.247476
472.0000,42.321470
473.0000,52.745199
474.0000,45.074792
475.0000,37.484744
476.0000,34.703760
477.0000,37.721108
478.0000,40.913991
479.0000,51.918428
480.0000,32.696661
481.0000,39.402967
482.0000,50.640955
483.0000,34.542303
484.0000,49.407392
485.0000,36.658921
486.0000,26.518669
487.0000,29.635251
488.0000,35.504332
489.0000,36.734039
490.0000,25.063091
491.0000,30.294901
492.0000,36.213411
493.0000,29.843534
494.0000,53.402145
495.0000,38.209730
496.0000,47.423054
497.0000,31.644087
498.0000,20.315348
499.0000,39.652654
500.0000,32.140132
501.0000,41.531368
502.0000,46.273695
503.0000,41.715043
504.0000,37.570056
505.0000,54.559405
506.0000,27.613154
507.0000,41.654389
508.0000,40.412009
509.0000,31.831251
510.0000,53.237781
511.0000,41.719479
512.0000,35.475554
513.0000,32.359790
514.0000,38.340026
515.0000,41.467351
516.0000,38.541617
517.0000,33.192376
518.0000,47.513790
519.0000,47.060482
520.0000,42.352341
521.0000,44.661222
522.0000,44.093435
523.0000,26.638914
524.0000,38.198567
525.0000,42.702180
526.0000,38.941692
527.0000,35.262326
528.0000,38.569144
529.0000,33.344918
530.0000,16.458004
531.0000,42.691868
532.0000,41.526171
533.0000,26.110166
534.0000,55.182869
535.0000,49.364045
536.0000,48.281720
537.0000,37.274891
538.0000,33.892371
539.0000,38.665036
540.0000,35.573614
541.0000,29.465571
542.0000,41.743943
543.0000,31.232498
544.0000,46.796317
545.0000,38.690923
546.0000,43.756260
547.0000,43.761976
548.0000,40.277561
549.0000,45.080967
550.0000,46.022234
551.0000,52.248529
552.0000,44.701411
553.0000,47.485795
554.0000,46.171132
555.0000,41.734751
556.0000,23.193523
557.0000,37.028698
558.0000,38.133786
559.0000,43.426131
560.0000,40.599433
561.0000,39.636805
562.0000,61.624107
563.0000,43.406942
564.0000,54.205427
565.0000,43.627897
566.0000,44.006204
567.0000,34.297528
568.0000,45.735661
569.0000,46.183195
570.0000,54.145502
571.0000,36.544395
572.0000,43.800283
573.0000,33.541670
574.0000,40.497919
575.0000,25.815797
576.0000,37.730062
577.0000,47.956616
578.0000,41.609316
579.0000,40.520970
580.0000,38.792064
581.0000,31.406814
582.0000,40.182440
583.0000,44.770628
584.0000,46.060637
585.0000,45.262031
586.0000,38.929359
587.0000,49.623388
588.0000,40.192961
589.0000,27.752999
590.0000,42.898106
591.0000,44.407242
592.0000,25.962376
593.0000,38.437495
594.0000,41.344952
595.0000,44.836851
596.0000,41.611456
597.0000,26.823057
598.0000,36.907213
599.0000,43.710138
600.0000,41.611179
601.0000,52.031549
602.0000,55.892066
603.0000,36.857430
604.0000,30.736352
605.0000,26.939321
606.0000,40.568596
607.0000,39.829311
608.0000,48.478006
609.0000,30.872957
610.0000,40.260524
611.0000,49.257589
612.0000,43.215313
613.0000,43.017065
614.0000,43.969810
615.0000,40.754521
616.0000,37.768760
617.0000,37.322899
618.0000,39.415338
619.0000,41.297435
620.0000,36.424817
621.0000,26.614394
622.0000,37.860992
623.0000,50.578079
624.0000,29.014290
625.0000,54.901954
626.0000,47.594436
627.0000,34.361202
628.0000,39.024799
629.0000,28.647957
630.0000,42.640310
631.0000,37.057423
632.0000,54.257084
633.0000,48.078180
634.0000,48.884283
635.0000,38.167217
636.0000,31.626151
637.0000,41.625970
638.0000,47.313234
639.0000,46.351207
640.0000,42.151042
641.0000,37.153699
642.0000,50.305855
643.0000,44.488791
644.0000,35.297805
645.0000,40.260421
646.0000,44.454101
647.0000,51.312954
648.0000,30.971699
649.0000,37.322588
650.0000,37.446388
651.0000,43.908274
652.0000,40.156706
653.0000,33.738265
654.0000,38.428405
655.0000,42.818524
656.0000,49.941410
657.0000,41.268520
658.0000,45.264959
659.0000,50.325711
660.0000,32.357948
661.0000,43.537913
662.0000,53.301166
663.0000,55.845659
664.0000,40.561398
665.0000,53.026377
666.0000,49.300876
667.0000,55.435757
668.0000,56.660507
669.0000,52.478269
670.0000,46.839306
671.0000,40.627315
672.0000,54.134152
673.0000,49.308770
674.0000,49.004354
675.0000,46.742644
676.0000,52.802682
677.0000,40.389014
678.0000,64.536824
679.0000,31.769144
680.0000,51.728329
681.0000,46.412109
682.0000,61.005000
683.0000,49.356773
684.0000,61.749551
685.0000,58.520175
686.0000,51.655172
687.0000,55.839990
688.0000,67.820026
689.0000,58.994468
690.0000,74.671380
691.0000,60.472145
692.0000,50.113425
693.0000,61.381403
694.0000,74.038849
695.0000,71.214189
696.0000,85.944683
697.0000,81.567793
698.0000,74.546787
699.0000,107.311888
700.0000,96.291223
701.0000,111.834805
702.0000,124.527234
703.0000,141.659624
704.0000,150.338691
705.0000,162.884377
706.0000,195.418608
707.0000,222.917886
708.0000,241.986336
709.0000,280.280727
710.0000,294.170710
711.0000,321.800369
712.0000,345.827822
713.0000,349.174061
714.0000,307.669556
715.0000,286.553784
716.0000,257.573289
717.0000,214.186170
718.0000,183.938477
719.0000,154.815700
720.0000,130.149776
721.0000,132.537556
722.0000,118.640614
723.0000,111.774903
724.0000,96.797227
725.0000,100.023606
726.0000,73.115663
727.0000,77.180196
728.0000,87.820759
729.0000,77.301966
730.0000,72.743186
731.0000,72.059086
732.0000,83.793402
733.0000,57.366753
734.0000,48.072232
735.0000,68.043689
736.0000,56.916875
737.0000,52.061837
738.0000,57.366540
739.0000,42.127325
740.0000,50.675086
741.0000,29.813695
742.0000,40.173338
743.0000,42.166962
744.0000,49.282159
745.0000,46.419079
746.0000,42.104484
747.0000,46.403483
748.0000,53.434337
749.0000,45.703571
750.0000,59.148870
751.0000,44.832189
752.0000,42.571385
753.0000,58.334315
754.0000,51.866025
755.0000,49.723065
756.0000,41.061902
757.0000,52.544848
758.0000,44.723322
759.0000,42.058439
760.0000,41.278382
761.0000,64.694700
762.0000,41.538716
763.0000,31.177752
764.0000,38.413035
765.0000,45.225144
766.0000,21.852245
767.0000,43.586311
768.0000,40.283733
769.0000,54.812547
770.0000,55.063537
771.0000,41.360665
772.0000,36.856263
773.0000,38.542070
774.0000,48.073478
775.0000,35.723876
776.0000,48.878745
777.0000,42.031479
778.0000,43.707133
779.0000,47.081634
780.0000,38.334873
781.0000,50.815831
782.0000,48.479240
783.0000,50.234380
784.0000,44.027967
785.0000,52.246174
786.0000,46.458953
787.0000,28.036364
788.0000,41.375222
789.0000,39.492515
790.0000,42.585027
791.0000,45.911734
792.0000,34.169856
793.0000,53.782651
794.0000,40.981391
795.0000,58.462335
796.0000,46.183704
797.0000,21.058178
798.0000,36.688616
799.0000,54.032675
800.0000,26.851862
801.0000,46.648664
802.0000,37.904817
803.0000,37.688009
804.0000,50.837508
805.0000,37.701450
806.0000,41.167672
807.0000,29.142881
808.0000,32.205445
809.0000,41.854139
810.0000,36.837807
811.0000,36.823916
812.0000,33.311973
813.0000,55.677214
814.0000,30.630769
815.0000,31.379473
816.0000,49.636666
817.0000,36.300032
818.0000,37.846746
819.0000,45.998851
820.0000,39.503725
821.0000,32.252864
822.0000,38.201824
823.0000,36.403259
824.0000,38.269792
825.0000,42.164565
826.0000,30.452090
827.0000,47.586757
828.0000,33.060719
829.0000,33.395119
830.0000,37.623420
831.0000,31.009054
832.0000,48.620478
833.0000,40.108202
834.0000,34.923013
835.0000,42.620605
836.0000,48.626121
837.0000,33.413987
838.0000,37.129374
839.0000,28.542302
840.0000,44.220143
841.0000,46.498195
842.0000,34.805401
843.0000,48.601003
844.0000,37.988128
845.0000,30.674504
846.0000,37.395553
847.0000,47.005185
848.0000,33.262664
849.0000,34.715467
850.0000,43.462547
851.0000,39.012506
852.0000,31.632028
853.0000,47.167701
854.0000,44.033174
855.0000,41.008754
856.0000,35.494981
857.0000,39.543144
858.0000,38.397029
859.0000,55.396774
860.0000,46.953383
861.0000,57.258583
862.0000,27.578805
863.0000,52.831286
864.0000,41.153465
865.0000,38.888166
866.0000,29.414664
867.0000,34.052108
868.0000,29.628903
869.0000,32.975268
870.0000,45.199221
871.0000,33.247351
872.0000,56.196346
873.0000,44.782816
874.0000,38.422987
875.0000,38.395340
876.0000,56.039790
877.0000,42.915244
878.0000,27.297692
879.0000,45.140864
880.0000,47.629400
881.0000,41.378170
882.0000,53.011215
883.0000,38.703071
884.0000,34.113266
885.0000,63.421574
886.0000,40.076616
887.0000,51.139251
888.0000,41.425251
889.0000,38.409999
890.0000,42.990156
891.0000,34.387542
892.0000,39.958145
893.0000,30.848795
894.0000,33.690513
895.0000,34.240023
896.0000,39.266343
897.0000,45.280785
898.0000,36.107826
899.0000,37.012566
900.0000,34.507006
901.0000,50.350643
902.0000,41.024765
903.0000,50.839843
904.0000,50.163701
905.0000,33.285044
906.0000,40.957315
907.0000,40.173078
908.0000,37.754034
909.0000,53.579911
910.0000,42.207647
911.0000,32.334068
912.0000,42.808708
913.0000,42.698590
914.0000,39.642654
915.0000,45.418642
916.0000,34.006681
917.0000,50.186633
918.0000,57.062763
919.0000,34.046741
920.0000,43.802571
921.0000,43.833959
922.0000,32.278615
923.0000,33.925971
924.0000,30.517981
925.0000,35.213948
926.0000,46.010229
927.0000,40.263598
928.0000,48.790174
929.0000,46.569900
930.0000,53.832533
931.0000,47.876022
932.0000,53.105317
933.0000,33.168386
934.0000,45.939711
935.0000,31.996131
936.0000,42.314884
937.0000,63.128748
938.0000,42.009668
939.0000,44.899854
940.0000,55.063118
941.0000,38.765827
942.0000,49.216069
943.0000,54.308510
944.0000,45.782967
945.0000,41.267930
946.0000,44.121591
947.0000,37.187965
948.0000,49.195802
949.0000,50.195442
950.0000,37.783321
951.0000,46.701482
952.0000,53.501207
953.0000,46.064957
954.0000,49.415475
955.0000,46.774630
956.0000,42.938071
957.0000,41.110867
958.0000,46.447080
959.0000,49.250538
960.0000,56.676953
961.0000,48.027798
962.0000,37.350091
963.0000,39.740160
964.0000,50.951880
965.0000,42.176840
966.0000,47.186261
967.0000,60.075248
968.0000,52.468463
969.0000,43.268411
970.0000,41.473469
971.0000,40.569782
972.0000,42.640005
973.0000,51.657242
974.0000,53.211236
975.0000,44.961703
976.0000,28.164301
977.0000,46.626873
978.0000,43.352474
979.0000,32.299740
980.0000,37.549535
981.0000,58.718014
982.0000,35.322665
983.0000,46.415647
984.0000,44.304721
985.0000,33.695932
986.0000,49.886762
987.0000,37.468411
988.0000,39.431086
989.0000,59.331535
990.0000,43.336421
991.0000,49.527753
992.0000,55.246234
993.0000,48.283290
994.0000,44.589669
995.0000,33.684051
996.0000,19.460609
997.0000,50.290785
998.0000,55.212985
999.0000,40.853285
1000.0000,31.633036
1001.0000,50.717414
1002.0000,38.439396
1003.0000,42.022998
1004.0000,42.702924
1005.0000,55.842576
1006.0000,50.877613
1007.0000,42.029320
1008.0000,50.460470
1009.0000,51.370347
1010.0000,43.398085
1011.0000,47.455114
1012.0000,63.212846
1013.0000,38.612599
1014.0000,56.711504
1015.0000,37.375681
1016.0000,39.762676
1017.0000,56.927993
1018.0000,42.145605
1019.0000,50.518632
1020.0000,39.011364
1021.0000,55.931998
1022.0000,44.868602
1023.0000,44.535253
1024.0000,47.128689
1025.0000,60.556250
1026.0000,35.117139
1027.0000,45.303817
1028.0000,48.284948
1029.0000,39.486617
1030.0000,51.967377
1031.0000,48.425876
1032.0000,41.659555
1033.0000,40.226783
1034.0000,56.001810
1035.0000,52.743585
1036.0000,42.901729
1037.0000,57.118798
1038.0000,71.283075
1039.0000,46.326939
1040.0000,49.162493
1041.0000,63.241382
1042.0000,48.951226
1043.0000,54.140416
1044.0000,55.275761
1045.0000,61.420590
1046.0000,70.837214
1047.0000,72.222233
1048.0000,70.105203
1049.0000,65.594005
1050.0000,62.794999
1051.0000,64.528976
1052.0000,85.843559
1053.0000,83.538002
1054.0000,62.076875
1055.0000,61.862757
1056.0000,87.809590
1057.0000,82.536004
1058.0000,72.454676
1059.0000,96.829269
1060.0000,83.550004
1061.0000,94.612595
1062.0000,100.171094
1063.0000,104.107580
1064.0000,115.606683
1065.0000,108.226428
1066.0000,115.083954
1067.0000,134.242281
1068.0000,153.600920
1069.0000,161.468924
1070.0000,156.820641
1071.0000,183.737743
1072.0000,200.005754
1073.0000,212.208941
1074.0000,247.494105
1075.0000,277.097549
1076.0000,297.521770
1077.0000,344.626681
1078.0000,408.230841
1079.0000,478.425088
1080.0000,523.934501
1081.0000,640.892793
1082.0000,730.840961
1083.0000,842.796352
1084.0000,941.640901
1085.0000,1021.896073
1086.0000,1041.145095
1087.0000,1005.616398
1088.0000,934.478785
1089.0000,853.999611
1090.0000,724.643349
1091.0000,626.550283
1092.0000,542.002643
1093.0000,477.459380
1094.0000,403.654841
1095.0000,349.003481
1096.0000,295.311713
1097.0000,272.321589
1098.0000,234.042990
1099.0000,219.476529
1100.0000,193.163112
1101.0000,173.105138
1102.0000,152.984125
1103.0000,169.497961
1104.0000,136.768547
1105.0000,136.423829
1106.0000,116.525307
1107.0000,113.198585
1108.0000,115.221027
1109.0000,118.503983
1110.0000,93.128682
1111.0000,91.157887
1112.0000,92.289805
1113.0000,86.724249
1114.0000,78.891007
1115.0000,79.257292
1116.0000,65.002185
1117.0000,79.620144
1118.0000,76.535440
1119.0000,78.106864
1120.0000,48.202843
1121.0000,75.057539
1122.0000,66.995032
1123.0000,71.588948
1124.0000,58.458442
1125.0000,59.088361
1126.0000,71.930714
1127.0000,53.222645
1128.0000,41.936963
1129.0000,62.059387
1130.0000,51.489593
1131.0000,52.626361
1132.0000,38.124829
1133.0000,60.193511
1134.0000,51.246927
1135.0000,52.897164
1136.0000,53.788668
1137.0000,51.271710
1138.0000,53.121520
1139.0000,61.474616
1140.0000,34.799585
1141.0000,36.925834
1142.0000,37.779761
1143.0000,49.928616
1144.0000,43.174899
1145.0000,49.804477
1146.0000,34.443701
1147.0000,50.701381
1148.0000,36.827343
1149.0000,42.324164
1150.0000,50.748370
1151.0000,54.096195
1152.0000,37.770848
1153.0000,47.555504
1154.0000,53.898123
1155.0000,44.117704
1156.0000,65.945135
1157.0000,37.482165
1158.0000,41.601163
1159.0000,56.191722
1160.0000,42.028262
1161.0000,45.485687
1162.0000,44.123863
1163.0000,30.557979
1164.0000,51.847212
1165.0000,51.807810
1166.0000,46.075355
1167.0000,37.082472
1168.0000,37.679571
1169.0000,44.927786
1170.0000,36.197615
1171.0000,37.521723
1172.0000,47.446353
1173.0000,26.173574
1174.0000,29.838801
1175.0000,58.450756
1176.0000,43.256815
1177.0000,60.261453
1178.0000,34.796543
1179.0000,30.250399
1180.0000,47.787950
1181.0000,53.938190
1182.0000,49.264639
1183.0000,26.465728
1184.0000,38.143067
1185.0000,49.065604
1186.0000,40.783057
1187.0000,37.472264
1188.0000,37.459254
1189.0000,34.856821
1190.0000,61.659831
1191.0000,50.815832
1192.0000,49.281688
1193.0000,32.416412
1194.0000,52.783583
1195.0000,43.846998
1196.0000,44.031338
1197.0000,43.427523
1198.0000,48.330931
1199.0000,37.438827
1200.0000,40.731284
1201.0000,47.229561
1202.0000,46.234248
1203.0000,38.213254
1204.0000,50.785417
1205.0000,43.367001
1206.0000,59.923170
1207.0000,47.843706
1208.0000,29.696968
1209.0000,41.315347
1210.0000,50.184796
1211.0000,44.485866
1212.0000,18.304624
1213.0000,39.858744
1214.0000,38.293663
1215.0000,40.310339
1216.0000,49.102017
1217.0000,52.570642
1218.0000,51.764035
1219.0000,48.117925
1220.0000,34.947483
1221.0000,35.636941
1222.0000,43.983467
1223.0000,39.810779
1224.0000,33.708412
1225.0000,51.153252
1226.0000,49.302814
1227.0000,36.387468
1228.0000,41.645395
1229.0000,35.479126
1230.0000,39.603670
1231.0000,37.802066
1232.0000,48.746297
1233.0000,54.724914
1234.0000,42.882597
1235.0000,29.055393
1236.0000,35.581542
1237.0000,43.148184
1238.0000,54.633428
1239.0000,42.898699
1240.0000,32.410529
1241.0000,48.971605
1242.0000,47.081106
1243.0000,49.122289
1244.0000,56.234741
1245.0000,44.828170
1246.0000,43.790979
1247.0000,34.563158
1248.0000,42.299561
1249.0000,28.109995
1250.0000,42.382680
1251.0000,31.349717
1252.0000,50.288725
1253.0000,30.313212
1254.0000,52.160883
1255.0000,37.787405
1256.0000,32.829034
1257.0000,52.464185
1258.0000,43.896857
1259.0000,38.438782
1260.0000,47.321894
1261.0000,28.704882
1262.0000,41.677663
1263.0000,52.037945
1264.0000,46.499550
1265.0000,13.865675
1266.0000,53.321868
1267.0000,46.146846
1268.0000,48.808578
1269.0000,27.514215
1270.0000,37.931562
1271.0000,35.766603
1272.0000,47.514280
1273.0000,34.358782
1274.0000,21.497171
1275.0000,44.228825
1276.0000,32.950385
1277.0000,30.138982
1278.0000,39.575437
1279.0000,31.569215
1280.0000,22.490099
1281.0000,47.234979
1282.0000,36.584121
1283.0000,35.721423
1284.0000,43.948411
1285.0000,41.040796
1286.0000,27.996431
1287.0000,43.561899
1288.0000,47.451415
1289.0000,48.332256
1290.0000,46.663425
1291.0000,63.245797
1292.0000,40.675512
1293.0000,34.990184
1294.0000,29.123796
1295.0000,36.216860
1296.0000,37.623931
1297.0000,32.189059
1298.0000,41.893757
1299.0000,52.413558
1300.0000,39.902654
1301.0000,38.097632
1302.0000,37.834498
1303.0000,31.303557
1304.0000,42.419502
1305.0000,50.055503
1306.0000,44.173318
1307.0000,45.238823
1308.0000,36.311867
1309.0000,60.135012
1310.0000,43.785805
1311.0000,39.625679
1312.0000,59.601349
1313.0000,41.973285
1314.0000,52.016216
1315.0000,38.270883
1316.0000,33.967104
1317.0000,34.289284
1318.0000,40.142472
1319.0000,41.948297
1320.0000,46.729727
1321.0000,33.750031
1322.0000,45.360369
1323.0000,41.582694
1324.0000,62.994647
1325.0000,40.877494
1326.0000,41.888903
1327.0000,12.678458
1328.0000,55.807301
1329.0000,30.506657
1330.0000,29.484346
1331.0000,28.214425
1332.0000,54.903467
1333.0000,25.089497
1334.0000,44.827015
1335.0000,37.182993
1336.0000,62.058149
1337.0000,40.706631
1338.0000,32.215152
1339.0000,36.672165
1340.0000,44.058821
1341.0000,34.665789
1342.0000,45.769136
1343.0000,49.730974
1344.0000,39.689660
1345.0000,46.315847
1346.0000,40.807260
1347.0000,45.332548
1348.0000,45.776161
1349.0000,42.202021
1350.0000,28.191130
1351.0000,48.095938
1352.0000,36.651223
1353.0000,58.674289
1354.0000,40.879451
1355.0000,44.135769
1356.0000,36.857491
1357.0000,43.957380
1358.0000,49.696662
1359.0000,43.342389
1360.0000,51.093576
1361.0000,38.076768
1362.0000,49.475023
1363.0000,52.672180
1364.0000,42.098899
1365.0000,48.677734
1366.0000,39.216934
1367.0000,52.368649
1368.0000,35.095579
1369.0000,48.335328
1370.0000,51.631160
1371.0000,34.823688
1372.0000,45.952569
1373.0000,33.931440
1374.0000,40.966663
1375.0000,41.912506
1376.0000,31.138219
1377.0000,36.066828
1378.0000,40.104988
1379.0000,46.773356
1380.0000,43.695337
1381.0000,43.651979
1382.0000,45.246661
1383.0000,38.227842
1384.0000,50.610118
1385.0000,37.022465
1386.0000,48.713812
1387.0000,30.299308
1388.0000,50.978143
1389.0000,41.896019
1390.0000,28.545646
1391.0000,50.772632
1392.0000,38.133193
1393.0000,42.258011
1394.0000,39.309703
1395.0000,42.060897
1396.0000,37.891342
1397.0000,29.466390
1398.0000,48.022894
1399.0000,55.359595
1400.0000,54.044874
1401.0000,48.664691
1402.0000,38.887087
1403.0000,53.165656
1404.0000,44.345690
1405.0000,39.777381
1406.0000,45.868405
1407.0000,52.127474
1408.0000,45.285862
1409.0000,52.459636
1410.0000,50.065688
1411.0000,68.365854
1412.0000,63.257288
1413.0000,53.774951
1414.0000,52.909429
1415.0000,70.492842
1416.0000,72.319191
1417.0000,62.082653
1418.0000,70.958899
1419.0000,55.440859
1420.0000,66.024584
1421.0000,65.673359
1422.0000,78.363993
1423.0000,87.661041
1424.0000,93.101350
1425.0000,95.684359
1426.0000,107.492811
1427.0000,127.918765
1428.0000,145.173736
1429.0000,139.415192
1430.0000,173.684393
1431.0000,196.569961
1432.0000,225.750982
1433.0000,258.218126
1434.0000,239.651688
1435.0000,258.163513
1436.0000,251.731585
1437.0000,245.611212
1438.0000,214.698683
1439.0000,204.847857
1440.0000,162.509765
1441.0000,147.675619
1442.0000,137.665165
1443.0000,105.627474
1444.0000,101.535683
1445.0000,101.473945
1446.0000,83.351471
1447.0000,68.284550
1448.0000,79.371024
1449.0000,83.140799
1450.0000,67.676954
1451.0000,76.961286
1452.0000,70.833165
1453.0000,74.567214
1454.0000,67.501918
1455.0000,67.345430
1456.0000,55.090947
1457.0000,43.882836
1458.0000,56.397839
1459.0000,57.451624
1460.0000,54.255086
1461.0000,52.614572
1462.0000,63.141757
1463.0000,42.040250
1464.0000,46.817088
1465.0000,54.600730
1466.0000,47.105771
1467.0000,52.180638
1468.0000,44.270599
1469.0000,38.559833
1470.0000,62.824902
1471.0000,46.852644
1472.0000,32.267120
1473.0000,57.749867
1474.0000,40.595156
1475.0000,47.152679
1476.0000,46.533510
1477.0000,47.741831
1478.0000,41.335679
1479.0000,50.569903
1480.0000,39.484349
1481.0000,23.504055
1482.0000,43.955168
1483.0000,38.953635
1484.0000,53.559743
1485.0000,53.767019
1486.0000,32.533164
1487.0000,47.159823
1488.0000,51.803197
1489.0000,40.280732
1490.0000,34.439178
1491.0000,50.055256
1492.0000,42.368025
1493.0000,54.681434
1494.0000,31.819652
1495.0000,47.883047
1496.0000,42.368614
1497.0000,46.736183
1498.0000,33.639473
1499.0000,23.589066
1500.0000,46.148382
1501.0000,33.525389
1502.0000,42.699948
1503.0000,48.002565
1504.0000,40.721842
1505.0000,45.770275
1506.0000,49.730696
1507.0000,29.238048
1508.0000,29.441530
1509.0000,59.376179
1510.0000,40.107096
1511.0000,21.284531
1512.0000,43.248848
1513.0000,44.725271
1514.0000,25.697926
1515.0000,37.281510
1516.0000,43.164959
1517.0000,43.779458
1518.0000,46.171241
1519.0000,41.208622
1520.0000,52.907235
1521.0000,53.161457
1522.0000,38.749043
1523.0000,44.783279
1524.0000,44.487791
1525.0000,43.728452
1526.0000,33.767415
1527.0000,45.649584
1528.0000,17.810921
1529.0000,46.421371
1530.0000,39.442183
1531.0000,37.366359
1532.0000,43.934246
1533.0000,30.700246
1534.0000,59.059167
1535.0000,56.231710
1536.0000,34.981209
1537.0000,42.000895
1538.0000,33.031315
1539.0000,35.723956
1540.0000,29.134616
1541.0000,37.567087
1542.0000,31.104626
1543.0000,44.689739
1544.0000,45.496178
1545.0000,24.313445
1546.0000,41.164381
1547.0000,49.310052
1548.0000,35.416468
1549.0000,43.522496
1550.0000,39.121657
1551.0000,40.416324
1552.0000,46.829237
1553.0000,32.719763
1554.0000,37.547188
1555.0000,36.126186
1556.0000,36.342556
1557.0000,51.099799
1558.0000,29.051094
1559.0000,46.746371
1560.0000,31.123973
1561.0000,31.217044
1562.0000,40.899358
1563.0000,51.887181
1564.0000,48.503118
1565.0000,54.746769
1566.0000,39.687377
1567.0000,26.924761
1568.0000,40.795116
1569.0000,40.176260
1570.0000,43.625445
1571.0000,41.143599
1572.0000,42.090168
1573.0000,36.417909
1574.0000,49.477923
1575.0000,46.210560
1576.0000,48.637960
1577.0000,41.133027
1578.0000,29.646152
1579.0000,38.017723
1580.0000,43.522898
1581.0000,45.693277
1582.0000,37.161417
1583.0000,46.808731
1584.0000,47.318853
1585.0000,42.660476
1586.0000,29.924728
1587.0000,38.675733
1588.0000,40.359318
1589.0000,47.611506
1590.0000,39.780446
1591.0000,42.951849
1592.0000,53.553058
1593.0000,40.473112
1594.0000,32.705608
1595.0000,33.673559
1596.0000,44.981083
1597.0000,23.434684
1598.0000,37.302143
1599.0000,45.227365
1600.0000,40.463697
1601.0000,40.813015
1602.0000,43.233103
1603.0000,48.226978
1604.0000,51.638441
1605.0000,38.793189
1606.0000,37.216879
1607.0000,30.378869
1608.0000,46.562455
1609.0000,41.758553
1610.0000,44.710984
1611.0000,39.247753
1612.0000,46.087144
1613.0000,32.498729
1614.0000,40.199076
1615.0000,38.349416
1616.0000,32.717054
1617.0000,40.547472
1618.0000,46.128627
1619.0000,38.339502
1620.0000,44.019301
1621.0000,53.146703
1622.0000,34.702204
1623.0000,55.672811
1624.0000,44.354351
1625.0000,50.173533
1626.0000,43.706012
1627.0000,63.518891
1628.0000,40.901273
1629.0000,34.209936
1630.0000,22.057349
1631.0000,51.595105
1632.0000,46.415043
1633.0000,32.233252
1634.0000,46.773920
1635.0000,40.490009
1636.0000,34.653837
1637.0000,59.369458
1638.0000,47.668077
1639.0000,48.288470
1640.0000,45.524901
1641.0000,38.736143
1642.0000,48.961982
1643.0000,48.138380
1644.0000,47.393289
1645.0000,53.084332
1646.0000,36.930028
1647.0000,38.254827
1648.0000,34.822359
1649.0000,43.360895
1650.0000,35.062977
1651.0000,34.903510
1652.0000,42.611224
1653.0000,53.909582
1654.0000,44.058615
1655.0000,43.425950
1656.0000,50.177337
1657.0000,44.858374
1658.0000,41.153694
1659.0000,39.081502
1660.0000,51.025333
1661.0000,34.031134
1662.0000,27.614619
1663.0000,47.905772
1664.0000,40.579113
1665.0000,50.013619
1666.0000,38.342838
1667.0000,46.214674
1668.0000,41.047649
1669.0000,35.972843
1670.0000,40.593924
1671.0000,43.925192
1672.0000,29.474339
1673.0000,36.763901
1674.0000,41.826870
1675.0000,49.953847
1676.0000,31.926370
1677.0000,59.756597
1678.0000,44.676397
1679.0000,42.059654
1680.0000,33.177332
1681.0000,27.953476
1682.0000,37.662526
1683.0000,42.301213
1684.0000,35.281790
1685.0000,51.968153
1686.0000,41.963274
1687.0000,46.191015
1688.0000,31.992328
1689.0000,53.045100
1690.0000,34.804890
1691.0000,32.980462
1692.0000,34.502593
1693.0000,53.421717
1694.0000,48.613353
1695.0000,37.442123
1696.0000,36.505208
1697.0000,45.871290
1698.0000,31.777926
1699.0000,45.491931
1700.0000,47.659829
1701.0000,47.257046
1702.0000,40.782516
1703.0000,46.411462
1704.0000,43.713086
1705.0000,54.885974
1706.0000,44.527485
1707.0000,44.640414
1708.0000,35.297064
1709.0000,45.893799
1710.0000,33.503155
1711.0000,42.968590
1712.0000,42.444591
1713.0000,46.627418
1714.0000,42.494866
1715.0000,44.349526
1716.0000,37.748614
1717.0000,42.203202
1718.0000,34.241774
1719.0000,36.442530
1720.0000,33.431631
1721.0000,46.555931
1722.0000,37.217199
1723.0000,48.164911
1724.0000,49.157044
1725.0000,42.935070
1726.0000,41.947445
1727.0000,32.563221
1728.0000,57.918516
1729.0000,41.889765
1730.0000,38.435444
1731.0000,48.253439
1732.0000,34.202711
1733.0000,50.881457
1734.0000,47.492845
1735.0000,47.379134
1736.0000,46.955535
1737.0000,36.707470
1738.0000,40.486930
1739.0000,54.675370
1740.0000,45.469539
1741.0000,33.314995
1742.0000,45.228684
1743.0000,34.912094
1744.0000,52.850308
1745.0000,37.110620
1746.0000,46.131381
1747.0000,37.097196
1748.0000,37.243465
1749.0000,37.486957
1750.0000,36.993269
1751.0000,44.561141
1752.0000,39.474240
1753.0000,47.794928
1754.0000,35.974738
1755.0000,44.177988
1756.0000,33.657671
1757.0000,48.310134
1758.0000,36.520855
1759.0000,30.021031
1760.0000,48.648352
1761.0000,38.612252
1762.0000,43.922371
1763.0000,38.469322
1764.0000,41.832172
1765.0000,54.239072
1766.0000,31.046115
1767.0000,44.048462
1768.0000,47.233827
1769.0000,38.393755
1770.0000,39.044507
1771.0000,46.983847
1772.0000,63.166612
1773.0000,30.883395
1774.0000,36.033188
1775.0000,37.065481
1776.0000,53.879265
1777.0000,50.614202
1778.0000,28.042921
1779.0000,46.481892
1780.0000,39.060726
1781.0000,38.556180
1782.0000,46.773092
1783.0000,44.711535
1784.0000,32.076951
1785.0000,39.823864
1786.0000,45.589523
1787.0000,32.881943
1788.0000,33.279906
1789.0000,46.268135
1790.0000,36.179505
1791.0000,29.148388
1792.0000,23.273108
1793.0000,37.167220
1794.0000,42.569954
1795.0000,36.104145
1796.0000,35.279086
1797.0000,39.769628
1798.0000,47.566752
1799.0000,45.483555
1800.0000,50.101645
1801.0000,55.988341
1802.0000,46.484432
1803.0000,47.668383
1804.0000,34.465518
1805.0000,41.308053
1806.0000,34.939528
1807.0000,44.385740
1808.0000,40.289193
1809.0000,42.529951
1810.0000,27.194225
1811.0000,49.671084
1812.0000,41.167347
1813.0000,36.701795
1814.0000,45.797936
1815.0000,46.020653
1816.0000,42.687649
1817.0000,50.174890
1818.0000,44.492105
1819.0000,37.275790
1820.0000,39.698276
1821.0000,50.082563
1822.0000,45.977525
1823.0000,37.280446
1824.0000,40.712227
1825.0000,31.866096
1826.0000,32.687792
1827.0000,30.744076
1828.0000,34.778656
1829.0000,46.278389
1830.0000,50.796135
1831.0000,42.742583
1832.0000,31.736062
1833.0000,44.728194
1834.0000,39.285737
1835.0000,37.775500
1836.0000,39.887118
1837.0000,32.918814
1838.0000,35.377215
1839.0000,48.475219
1840.0000,47.872072
1841.0000,53.299708
1842.0000,46.035864
1843.0000,40.013506
1844.0000,54.004609
1845.0000,35.729051
1846.0000,39.182635
1847.0000,32.689034
1848.0000,31.589318
1849.0000,33.822814
1850.0000,47.725708
1851.0000,38.046276
1852.0000,36.116617
1853.0000,34.063407
1854.0000,44.921886
1855.0000,28.062628
1856.0000,33.371276
1857.0000,27.502340
1858.0000,47.206760
1859.0000,19.080114
1860.0000,29.227825
1861.0000,47.055090
1862.0000,50.117378
1863.0000,54.904735
1864.0000,33.921383
1865.0000,29.857451
1866.0000,49.577557
1867.0000,40.355736
1868.0000,43.669532
1869.0000,33.092735
1870.0000,37.042601
1871.0000,38.381967
1872.0000,40.039145
1873.0000,32.606483
1874.0000,54.926191
1875.0000,34.230085
1876.0000,29.309664
1877.0000,38.167443
1878.0000,37.446687
1879.0000,34.684365
1880.0000,36.609111
1881.0000,36.902063
1882.0000,37.617580
1883.0000,35.406809
1884.0000,36.297673
1885.0000,48.946899
1886.0000,36.171027
1887.0000,20.361572
1888.0000,50.310823
1889.0000,47.889852
1890.0000,30.151254
1891.0000,52.909751
1892.0000,44.371166
1893.0000,23.112077
1894.0000,34.662126
1895.0000,45.206460
1896.0000,49.757898
1897.0000,39.918329
1898.0000,55.578642
1899.0000,54.031460
1900.0000,41.927952
1901.0000,43.359501
1902.0000,47.431631
1903.0000,59.078837
1904.0000,37.394964
1905.0000,35.384498
1906.0000,39.336097
1907.0000,48.098737
1908.0000,30.031158
1909.0000,31.378663
1910.0000,52.829846
1911.0000,34.429863
1912.0000,38.385043
1913.0000,31.825419
1914.0000,42.333061
1915.0000,33.782608
1916.0000,40.420287
1917.0000,40.065471
1918.0000,54.138248
1919.0000,52.219279
1920.0000,29.600043
1921.0000,29.326118
1922.0000,58.512815
1923.0000,42.963319
1924.0000,26.349990
1925.0000,41.224320
1926.0000,37.147486
1927.0000,39.473283
1928.0000,40.456292
1929.0000,32.192333
1930.0000,50.572482
1931.0000,49.063810
1932.0000,32.579631
1933.0000,51.222188
1934.0000,38.836196
1935.0000,41.737485
1936.0000,51.988072
1937.0000,37.188374
1938.0000,29.643705
1939.0000,37.081657
1940.0000,37.838160
1941.0000,39.844807
1942.0000,50.731045
1943.0000,47.171355
1944.0000,41.091197
1945.0000,26.672385
1946.0000,46.763485
1947.0000,41.352801
1948.0000,37.182751
1949.0000,29.819544
1950.0000,33.371774
1951.0000,42.286579
1952.0000,37.331727
1953.0000,21.340331
1954.0000,34.136156
1955.0000,45.074907
1956.0000,41.385731
1957.0000,39.746182
1958.0000,51.590985
1959.0000,37.369487
1960.0000,22.680594
1961.0000,37.516073
1962.0000,37.684308
1963.0000,19.836868
1964.0000,27.935736
1965.0000,48.933588
1966.0000,43.422832
1967.0000,35.910336
1968.0000,44.083031
1969.0000,40.125289
1970.0000,47.855768
1971.0000,43.146278
1972.0000,42.337746
1973.0000,46.883940
1974.0000,41.472111
1975.0000,47.634056
1976.0000,39.458901
1977.0000,38.271501
1978.0000,46.087588
1979.0000,42.496100
1980.0000,40.009400
1981.0000,37.807827
1982.0000,52.437911
1983.0000,51.158929
1984.0000,39.076107
1985.0000,41.407256
1986.0000,35.077411
1987.0000,37.178094
1988.0000,40.209853
1989.0000,51.519456
1990.0000,31.285295
1991.0000,42.938778
1992.0000,32.731951
1993.0000,50.471745
1994.0000,40.164722
1995.0000,45.107997
1996.0000,23.569736
1997.0000,34.459198
1998.0000,37.259154
1999.0000,48.976306
2000.0000,35.298038
