# kind,background_subtracted
# version_label,default
# poly_order,5
# iterations_run,7
pixel_index,raman_shift_cm-1,intensity,background_intensity
0,-225.424,1.006108220664217,96.99389177933578
1,-222.355,0.0,97.00089970018247
2,-219.287,1.99213031756166,97.00786968243834
3,-216.220,1.985198094201266,97.01480190579873
4,-213.154,0.9783034508599258,97.02169654914007
5,-210.090,0.0,97.0285537905218
6,-207.027,1.9646261928117497,97.03537380718825
7,-203.965,1.9578432244294248,97.04215677557058
8,-200.904,0.9510971287114103,97.04890287128859
9,-197.845,2.9443877308472253,97.05561226915277
10,-194.786,1.9377148568339067,97.0622851431661
11,-191.729,0.9310783334741046,97.0689216665259
12,-188.673,2.924477988374079,97.07552201162592
13,-185.618,0.9179136499419513,97.08208635005805
14,-182.565,2.9113851473856585,97.08861485261434
15,-179.513,1.9048923107111477,97.09510768928885
16,-176.461,0.8984349707204302,97.10156502927957
17,-173.412,0.0,97.10798704099032
18,-170.363,1.8856261079673544,97.11437389203265
19,-167.315,0.0,97.12072574922773
20,-164.269,1.872957221391701,97.1270427786083
21,-161.224,0.8666748545794718,97.13332514542053
22,-158.180,1.8604269858740992,97.1395730141259
23,-155.137,0.8542134515968058,97.1457865484032
24,-152.096,1.8480340888497153,97.15196591115028
25,-149.055,0.8418887355138622,97.15811126448614
26,-146.016,2.835777230247345,97.16422276975266
27,-142.978,1.8296994124834214,97.17030058751658
28,-139.941,2.8236551224285478,97.17634487757145
29,-136.906,1.817644201060574,97.18235579893943
30,-133.871,0.8116664901267541,97.18833350987325
31,-130.838,2.80572183214187,97.19427816785813
32,-127.806,0.7998100703863571,97.20018992961364
33,-124.775,1.7939310489043692,97.20606895109563
34,-121.746,0.0,97.21191538749811
35,-118.717,0.7822706067448166,97.21772939325518
36,-115.690,0.7764888779570782,97.22351112204292
37,-112.664,0.0,97.22926072678129
38,-109.639,1.7650216403639831,97.23497835963602
39,-106.616,0.7593358279794842,97.24066417202052
40,-103.593,1.7536816854021708,97.24631831459783
41,-100.572,0.0,97.25194093728246
42,-97.552,1.7424678107577165,97.25753218924228
43,-94.533,0.7369077810994753,97.26309221890052
44,-91.515,0.731378826062425,97.26862117393758
45,-88.499,3.7258807987070526,97.27411920129295
46,-85.483,0.7204135528328948,97.2795864471671
47,-82.469,1.7149769429764916,97.28502305702351
48,-79.456,0.0,97.29042917559035
49,-76.444,0.7041950531374255,97.29580494686257
50,-73.433,1.6988494858962753,97.30115051410372
51,-70.424,1.6935339801521252,97.30646601984787
52,-67.416,0.688248394098494,97.3117516059015
53,-64.409,3.6829925866545636,97.31700741334544
54,-61.403,0.0,97.3222335825367
55,-58.398,1.6725697468895504,97.32743025311045
56,-55.394,0.0,97.33259756398189
57,-52.392,0.0,97.33773565334813
58,-49.391,1.6571553413098314,97.34284465869017
59,-46.391,0.0,97.34792471677468
60,-43.392,1.6470240363439927,97.35297596365601
61,-40.394,0.6420014653219539,97.35799853467805
62,-37.398,1.6370074355238842,97.36299256447612
63,-34.402,0.6320418130211038,97.3679581869789
64,-31.408,2.6271044645896637,97.37289553541034
65,-28.415,1.6221952577084977,97.3778047422915
66,-25.423,10.617314060557447,97.38268593944255
67,-22.433,0.6124607420154291,97.38753925798457
68,-19.443,0.6076351716584583,97.39236482834154
69,-16.455,1.6028372197578307,97.39716278024217
70,-13.468,1.598066757278147,97.40193324272185
71,-10.482,0.5933236558754373,97.40667634412456
72,-7.497,0.0,97.41139221210473
73,-4.513,1.583919026370836,97.41608097362916
74,-1.531,1.5792572450210542,97.42074275497895
75,1.451,1.5746223182486574,97.42537768175134
76,4.431,0.0,97.42998587886171
77,7.410,0.0,97.43456747054537
78,10.388,2.560877419640434,97.43912258035957
79,13.364,1.5563486688147208,97.44365133118528
80,16.340,1.5518461547707716,97.44815384522923
81,19.314,1.5473697559742874,97.45263024402571
82,22.287,0.5429193515614799,97.45708064843852
83,25.259,0.538494821337153,97.46150517866285
84,28.230,2.5340960457727846,97.46590395422722
85,31.200,1.529722906004693,97.4702770939953
86,34.168,0.5253752838320622,97.47462471616794
87,37.136,0.5210530617150653,97.47894693828493
88,40.102,0.0,97.48324387722704
89,43.067,0.0,97.48751564921781
90,46.031,0.5082376301744915,97.49176236982551
91,48.993,0.5040158460349744,97.49598415396503
92,51.955,0.0,97.50018111589978
93,54.915,0.4956466307563687,97.50435336924363
94,57.875,0.0,97.50850102696272
95,60.833,0.4873757986225229,97.51262420137748
96,63.790,2.483276995835567,97.51672300416443
97,66.745,1.4792024536418467,97.52079754635815
98,69.700,1.4751520616468383,97.52484793835316
99,72.654,0.47112571009419923,97.5288742899058
100,75.606,1.467123289863821,97.53287671013618
101,78.557,0.46314469246995316,97.53685530753005
102,81.507,0.45918981005931414,97.54081018994069
103,84.456,2.4552585354091434,97.54474146459086
104,87.404,1.4513507619253545,97.54864923807465
105,90.350,0.0,97.55253361635944
106,93.296,1.443605295212265,97.55639470478773
107,96.240,2.4397673919208813,97.56023260807912
108,99.183,1.4359525696678617,97.56404743033214
109,102.125,1.4321607249737696,97.56783927502623
110,105.066,1.4283917549764595,97.57160824502354
111,108.006,2.424645557429045,97.57535444257095
112,110.944,3.420922030698094,97.5790779693019
113,113.882,1.4172210737617092,97.58277892623829
114,116.818,1.4135425862075834,97.58645741379242
115,119.753,0.40988646823115005,97.59011353176885
116,122.687,2.4062526206336514,97.59374737936635
117,125.620,0.4026409448202344,97.59735905517977
118,128.551,1.3990513427980602,97.60094865720194
119,131.482,0.0,97.60451628282561
120,134.411,1.3919379711546895,97.60806202884531
121,137.339,3.3884140085407353,97.61158599145926
122,140.267,5.3849117337287,97.6150882662713
123,143.193,0.3814310517072528,97.61856894829275
124,146.117,0.37797186805565275,97.62202813194435
125,149.041,1.374534088941843,97.62546591105816
126,151.964,1.3711176211205611,97.62888237887944
127,154.885,1.3677223719314497,97.63227762806855
128,157.805,1.3643482492970946,97.6356517507029
129,160.724,1.3609951617212062,97.6390048382788
130,163.642,2.357663018286644,97.64233698171336
131,166.559,0.35435172865352627,97.64564827134647
132,169.475,1.351061203057398,97.6489387969426
133,172.390,1.3477913523072402,97.65220864769276
134,175.303,0.3445420877835943,97.6554579122164
135,178.215,0.3413133214366866,97.65868667856331
136,181.127,0.0,97.66189503421549
137,184.037,0.3349169339108755,97.66508306608912
138,186.946,2.3317491394635965,97.6682508605364
139,189.853,0.0,97.67139850334748
140,192.760,0.32547392024766,97.67452607975234
141,195.666,1.3223663255772777,97.67763367442272
142,198.570,1.3192786285259501,97.68072137147405
143,201.473,1.316210745532743,97.68378925446726
144,204.375,1.3131625935892401,97.68683740641076
145,207.276,2.3101340902376677,97.68986590976233
146,210.176,0.0,97.69287484643102
147,213.075,1.3041357022209752,97.69586429777902
148,215.973,3.301165655376394,97.6988343446236
149,218.869,0.29821493276099886,97.701785067239
150,221.765,0.2952834546416483,97.70471654535835
151,224.659,0.292371141824475,97.70762885817553
152,227.552,0.0,97.7105220843471
153,230.444,3.286603698005763,97.71339630199424
154,233.335,2.2837484112954343,97.71625158870457
155,236.225,0.28091197846589466,97.7190880215341
156,239.113,0.2780943229908246,97.72190567700918
157,242.001,1.2752953688717241,97.72470463112828
158,244.887,3.27251504063598,97.72748495936402
159,247.773,0.26975326333501926,97.73024673666498
160,250.657,1.267009962542332,97.73299003745767
161,253.540,2.2642850643516397,97.73571493564836
162,256.422,1.2615784953749056,97.7384215046251
163,259.302,1.2588901827405437,97.74110981725946
164,262.182,1.2562200540914432,97.74377994590856
165,265.061,1.253568037583051,97.74643196241695
166,267.938,3.250934061881537,97.74906593811846
167,270.814,1.2483180561618212,97.75168194383818
168,273.690,0.24571995010572323,97.75428004989428
169,276.564,2.243139673900046,97.75686032609995
170,279.437,1.2405771582346432,97.75942284176536
171,282.309,2.23803233430057,97.76196766569943
172,285.179,0.23550513378810933,97.76449486621189
173,288.049,0.2329954888849528,97.76700451111505
174,290.918,0.23050333227423891,97.76949666772576
175,293.785,1.2280285971326634,97.77197140286734
176,296.651,0.0,97.77442878287141
177,299.517,3.2231311264201423,97.77686887357986
178,302.381,2.2207082596532786,97.77929174034672
179,305.244,0.21830255195990844,97.78169744804009
180,308.105,0.21591393895603517,97.78408606104396
181,310.966,2.213542356739751,97.78645764326025
182,313.826,1.2111877418894181,97.78881225811058
183,316.684,2.2088500314617363,97.79114996853826
184,319.542,1.2065291629898525,97.79347083701015
185,322.398,0.0,97.79577492551856
186,325.253,2.2019377044168067,97.7980622955832
187,328.108,2.19966699174698,97.80033300825302
188,330.961,3.1974128758918425,97.80258712410816
189,333.812,0.1951752967381708,97.80482470326183
190,336.663,1.1929541946377924,97.80704580536221
191,339.513,1.190749510405638,97.80925048959436
192,342.362,3.1885611853178517,97.81143881468215
193,345.209,2.186389161109915,97.81361083889009
194,348.055,1.1842333799746996,97.8157666200253
195,350.901,0.18209378456059255,97.81790621543941
196,353.745,2.1799703179696053,97.8200296820304
197,356.588,0.1778629237554128,97.82213707624459
198,359.430,1.175771545921549,97.82422845407845
199,362.271,1.173696128919417,97.82630387108058
200,365.111,0.17163661764638505,97.82836338235361
201,367.949,0.16959295744398162,97.83040704255602
202,370.787,2.1675650940958775,97.83243490590412
203,373.623,1.1655529738260526,97.83444702617395
204,376.459,0.1635565432968633,97.83644345670314
205,379.293,1.1615757496071808,97.83842425039282
206,382.126,1.1596105402904016,97.8403894597096
207,384.958,2.1576608633126426,97.84233913668736
208,387.789,3.1557266670707804,97.84427333292922
209,390.619,1.1538079003906034,97.8461920996094
210,393.448,2.1519045125248084,97.84809548747519
211,396.276,0.1500164531511956,97.8499835468488
212,399.103,0.1481436723707361,97.85185632762926
213,401.928,0.1462861207056534,97.85371387929435
214,404.753,2.144443749097533,97.85555625090247
215,407.576,0.14261650890541944,97.85738349109458
216,410.398,0.14080435190390972,97.85919564809609
217,413.219,0.13900723028125128,97.86099276971875
218,416.040,2.137225096637465,97.86277490336253
219,418.859,0.13545790398239888,97.8645420960176
220,421.676,2.1337056057338373,97.86629439426616
221,424.493,0.1319681557156258,97.86803184428437
222,427.309,1.1302455081557525,97.86975449184425
223,430.124,1.1285376176844153,97.87146238231558
224,432.937,0.12684443933218859,97.87315556066781
225,435.750,0.125165928528034,97.87483407147197
226,438.561,0.12350204109746699,97.87649795890253
227,441.371,2.1218527332606527,97.87814726673935
228,444.181,0.12021796163043064,97.87978203836957
229,446.989,0.11859768321049557,97.8814023167895
230,449.796,1.116991855393465,97.88300814460653
231,452.602,1.1154004359589464,97.88459956404105
232,455.407,0.11382338307168993,97.88617661692831
233,458.210,1.112260655279627,97.88773934472037
234,461.013,0.11071221151203758,97.88928778848796
235,463.815,1.1091780110775744,97.89082198892243
236,466.615,0.10765801366240169,97.8923419863376
237,469.415,2.1061521793282907,97.89384782067171
238,472.213,1.1046604685107297,97.89533953148927
239,475.011,2.103182842016949,97.89681715798305
240,477.807,1.1017192610241437,97.89828073897586
241,480.602,3.1002696870774287,97.89973031292257
242,483.396,2.098834082088061,97.90116591791194
243,486.189,1.0974124083314507,97.90258759166855
244,488.981,1.0960046284453142,97.90399537155469
245,491.772,3.0946107054277405,97.90538929457226
246,494.562,3.0932306026352734,97.90676939736473
247,497.350,4.091864283781078,97.90813571621892
248,500.138,6.090511712932951,97.90948828706705
249,502.925,8.089172854511489,97.91082714548851
250,505.710,10.087847673288124,97.91215232671188
251,508.495,18.086536134383294,97.9134638656167
252,511.278,12.085238203264453,97.91476179673555
253,514.060,3.0839538457442472,97.91604615425575
254,516.841,3.0826830279785895,97.91731697202141
255,519.622,0.0,97.91857428353529
256,522.401,1.0801818780392978,97.9198181219607
257,525.179,2.078951479876636,97.92104852012336
258,527.955,2.077734489486602,97.9222655105134
259,530.731,3.0765308747128586,97.92346912528714
260,533.506,2.075340603730865,97.92465939626913
261,536.280,0.0,97.92583635495394
262,539.052,1.0729999674918957,97.9270000325081
263,541.824,1.0718495402279729,97.92815045977203
264,544.595,1.0707123327381112,97.92928766726189
265,547.364,1.069588314828465,97.93041168517153
266,550.132,0.06847745662562943,97.93152254337437
267,552.900,0.06737972857469288,97.93262027142531
268,555.666,2.066295101437376,97.93370489856262
269,558.431,4.065223546290142,97.93477645370986
270,561.195,0.0641650345222331,97.93583496547777
271,563.958,2.063119537833842,97.93688046216616
272,566.720,2.0620870282341173,97.93791297176588
273,569.481,1.0610674780393907,97.93893252196061
274,572.241,1.0600608598711432,97.93993914012886
275,575.000,1.059067146654158,97.94093285334584
276,577.758,1.0580863116146588,97.94191368838534
277,580.514,1.0571183282783494,97.94288167172165
278,583.270,2.056163170468494,97.9438368295315
279,586.025,0.05522081230409981,97.9447791876959
280,588.778,0.054291228197939745,97.94570877180206
281,591.531,1.0533743928546784,97.94662560714532
282,594.282,2.052470281268967,97.94752971873103
283,597.032,0.0,97.94842113127648
284,599.782,0.050700130787262765,97.94929986921274
285,602.530,0.049834043313381926,97.95016595668662
286,605.277,1.0489805824374372,97.95101941756256
287,608.023,0.04813972457546356,97.95186027542454
288,610.768,1.0473114464220572,97.95268855357794
289,613.512,0.0,97.9535042750515
290,616.255,1.045692537400825,97.95430746259917
291,618.997,2.044901861297916,97.95509813870208
292,621.738,3.0441236744296276,97.95587632557037
293,624.478,0.043357954854883474,97.95664204514512
294,627.217,0.042604680899756886,97.95739531910024
295,629.954,1.0418638311555384,97.95813616884446
296,632.691,0.04113538447690246,97.9588646155231
297,635.427,1.0404193199799607,97.95958068002004
298,638.161,2.039715617040372,97.96028438295963
299,640.895,1.039024255291423,97.96097574470858
300,643.627,1.0383452146221543,97.96165478537785
301,646.359,1.03767847517544,97.96232152482456
302,649.089,3.03702401734607,97.96297598265393
303,651.818,1.036381821778889,97.96361817822111
304,654.546,0.035751869366848155,97.96424813063315
305,657.274,2.035134141249131,97.96486585875087
306,660.000,1.0345286188092473,97.96547138119075
307,662.725,0.03393528367313081,97.96606471632687
308,665.449,1.0333541177072334,97.96664588229277
309,668.172,1.0327851030166215,97.96721489698338
310,670.894,0.0,97.96777177805696
311,673.615,1.031683457063096,97.9683165429369
312,676.335,0.031150791186277615,97.96884920881372
313,679.054,2.0306302073530844,97.96936979264692
314,681.772,1.0301216888331055,97.9698783111669
315,684.489,0.0,97.97037478087687
316,687.204,2.029140781945287,97.97085921805471
317,689.919,1.0286683612450247,97.97133163875498
318,692.633,2.0282079411893363,97.97179205881066
319,695.345,1.0277595061647986,97.9722404938352
320,698.057,1.02732304077567,97.97267695922433
321,700.767,0.026898529841972163,97.97310147015803
322,703.477,1.0264859583976431,97.97351404160236
323,706.185,1.0260853116885897,97.97391468831141
324,708.893,0.0,97.97430342482924
325,711.599,1.0253197345083294,97.97468026549167
326,714.305,2.0249547755717003,97.9750452244283
327,717.009,2.0246016844356802,97.97539831556432
328,719.712,1.0242604473775145,97.97573955262249
329,722.414,1.0239310508750208,97.97606894912498
330,725.116,3.0236134816046842,97.97638651839532
331,727.816,1.0233077264397252,97.97669227356027
332,730.515,0.023013772448251757,97.97698622755175
333,733.213,0.022731606891312595,97.97726839310869
334,735.910,0.0,97.97753878277899
335,738.606,1.0222025910785533,97.97779740892145
336,741.301,1.0219557162924673,97.97804428370753
337,743.995,2.0217205808765613,97.97827941912344
338,746.688,1.0214971730281235,97.97850282697188
339,749.380,1.0212854811259575,97.97871451887404
340,752.071,0.0,97.97891450627151
341,754.761,2.0208971995719196,97.97910280042808
342,757.450,1.020720587568249,97.97927941243175
343,760.138,1.0205556468034018,97.9794443531966
344,762.825,0.0,97.97959763346466
345,765.510,0.020260736192142303,97.97973926380786
346,768.195,3.0201307453700963,97.9798692546299
347,770.879,2.0200123838318262,97.97998761616817
348,773.562,1.01990564150438,97.98009435849562
349,776.243,1.0198105084772635,97.98018949152274
350,778.924,2.0197269750006512,97.98027302499935
351,781.603,0.0,97.98034496851662
352,784.282,1.0195946684911235,97.98040533150888
353,786.960,3.019545876744445,97.98045412325556
354,789.636,1.0195086471168935,97.9804913528831
355,792.312,0.019482970633134755,97.98051702936687
356,794.986,1.0194688384670059,97.980531161533
357,797.660,0.01946624193966784,97.98053375806033
358,800.332,2.019475172517616,97.98052482748238
359,803.004,1.01949562181089,97.98050437818911
360,805.674,1.019527581571083,97.98047241842892
361,808.344,1.0195710436894672,97.98042895631053
362,811.012,3.019626000195089,97.98037399980491
363,813.679,2.019692443252893,97.9803075567471
364,816.346,2.01977036516179,97.98022963483821
365,819.011,3.019859758352723,97.98014024164728
366,821.675,1.0199606153868643,97.98003938461314
367,824.339,0.020072928953609903,97.97992707104639
368,827.001,0.020196691868719086,97.97980330813128
369,829.662,2.020331897072424,97.97966810292758
370,832.322,2.0204785376275254,97.97952146237247
371,834.982,1.0206366067174315,97.97936339328257
372,837.640,0.0,97.97919390235563
373,840.297,4.020987003827358,97.97901299617264
374,842.953,1.0211793188003924,97.97882068119961
375,845.609,1.0213830362105085,97.97861696378949
376,848.263,1.0215981498158726,97.97840185018413
377,850.916,0.021824653483903944,97.9781753465161
378,853.568,0.022062541189356466,97.97793745881064
379,856.219,1.0223118070124002,97.9776881929876
380,858.869,1.0225724451367597,97.97742755486324
381,861.518,1.0228444498477813,97.97715555015222
382,864.167,2.023127815530543,97.97687218446946
383,866.814,1.0234225366679084,97.97657746333209
384,869.460,2.023728607838734,97.97627139216127
385,872.105,1.0240460237158118,97.97595397628419
386,874.749,1.024374779064118,97.97562522093588
387,877.392,1.024714868738812,97.97528513126119
388,880.034,1.0250662876833445,97.97493371231666
389,882.675,0.025429030927625718,97.97457096907237
390,885.315,1.0258030935860347,97.97419690641397
391,887.954,0.0,97.97381152914444
392,890.592,2.026585158013873,97.97341484198613
393,893.229,1.026993150417482,97.97300684958252
394,895.865,1.027412443499756,97.97258755650024
395,898.501,0.027843032769084175,97.97215696723092
396,901.135,0.028284913806928103,97.97171508619307
397,903.768,2.0287380822659316,97.97126191773407
398,906.400,2.0292025338680304,97.97079746613197
399,909.031,1.0296782644025626,97.97032173559744
400,911.661,0.03016526972430711,97.96983473027569
401,914.290,0.0,97.96933645424835
402,916.918,0.0,97.96882691153536
403,919.545,3.031693893903096,97.9683061060969
404,922.171,1.032225958164716,97.96777404183528
405,924.796,1.0327692774031618,97.96723072259684
406,927.420,1.0333238478261393,97.96667615217386
407,930.043,1.0338896656935361,97.96611033430646
408,932.665,1.0344667273155181,97.96553327268448
409,935.286,3.035055029050554,97.96494497094945
410,937.906,2.0356545673036095,97.96434543269639
411,940.525,1.0362653385242027,97.9637346614758
412,943.143,1.036887339204469,97.96311266079553
413,945.760,2.0375205658773012,97.9624794341227
414,948.376,2.0381650151144584,97.96183498488554
415,950.991,1.0388206835246052,97.9611793164754
416,953.605,2.039487567751479,97.96051243224852
417,956.219,3.0401656644719424,97.95983433552806
418,958.831,2.040854970394051,97.95914502960595
419,961.442,1.0415554822552622,97.95844451774474
420,964.052,1.0422671968204185,97.95773280317958
421,966.661,2.0429901108798703,97.95700988912013
422,969.269,1.0437242212476292,97.95627577875237
423,971.876,1.044469524759407,97.9555304752406
424,974.482,2.045226018270739,97.95477398172926
425,977.088,1.0459936986550815,97.95400630134492
426,979.692,1.0467725628018911,97.95322743719811
427,982.295,3.0475626076147364,97.95243739238526
428,984.897,2.048363830009393,97.9516361699906
429,987.498,0.049176226911939125,97.95082377308806
430,990.099,3.0499997952568663,97.95000020474313
431,992.698,3.050834531985174,97.94916546801483
432,995.296,0.051680434042410184,97.94831956595759
433,997.893,0.05253749837687849,97.94746250162312
434,1000.490,1.0534057219376365,97.94659427806236
435,1003.085,1.0542851016726331,97.94571489832737
436,1005.679,1.0551756345268046,97.9448243654732
437,1008.272,3.0560773174401987,97.9439226825598
438,1010.865,0.0,97.94300985265399
439,1013.456,1.0579141211687357,97.94208587883126
440,1016.046,0.05884923582223678,97.94115076417776
441,1018.636,1.0597954882078255,97.94020451179217
442,1021.224,1.0607528752124296,97.93924712478757
443,1023.812,2.061721393706634,97.93827860629337
444,1026.398,3.0627010405427484,97.93729895945725
445,1028.984,1.063691812553003,97.936308187447
446,1031.568,1.0646937065475583,97.93530629345244
447,1034.152,1.0657067193126295,97.93429328068737
448,1036.734,1.0667308476085964,97.9332691523914
449,1039.316,2.0677660881680993,97.9322339118319
450,1041.896,2.0688124376941204,97.93118756230588
451,1044.476,1.0698698928580797,97.93013010714192
452,1047.054,1.0709384502979447,97.92906154970206
453,1049.632,2.0720181066163548,97.92798189338365
454,1052.209,1.073108858378646,97.92689114162135
455,1054.784,1.0742107021110314,97.92578929788897
456,1057.359,0.07532363429862698,97.92467636570137
457,1059.933,2.0764476513835888,97.92355234861641
458,1062.506,1.0775827497632235,97.92241725023678
459,1065.077,1.0787289257880417,97.92127107421196
460,1067.648,1.0798861757598814,97.92011382424012
461,1070.218,1.0810544959300046,97.91894550407
462,1072.787,0.08223388249720642,97.9177661175028
463,1075.355,1.0834243316058831,97.91657566839412
464,1077.922,1.0846258393441417,97.91537416065586
465,1080.488,1.0858384017419098,97.91416159825809
466,1083.053,2.0870620147690317,97.91293798523097
467,1085.617,1.0882966743333355,97.91170332566666
468,1088.180,0.08954237627875727,97.91045762372124
469,1090.742,0.0,97.90920088361653
470,1093.303,1.0920668903578985,97.9079331096421
471,1095.863,2.093345693842892,97.90665430615711
472,1098.422,0.09463552240777062,97.90536447759223
473,1100.980,1.0959363715484756,97.90406362845152
474,1103.538,0.09724823668560134,97.9027517633144
475,1106.094,0.0985711131625493,97.90142888683745
476,1108.649,0.09990499624362315,97.90009500375638
477,1111.204,0.0,97.89875011888795
478,1113.757,2.102605762868194,97.8973942371318
479,1116.309,1.1039726365275726,97.89602736347243
480,1118.861,0.1053504970189465,97.89464950298105
481,1121.411,1.1067393391824965,97.8932606608175
482,1123.961,1.1081391577678374,97.89186084223216
483,1126.509,0.10954994743215707,97.89045005256784
484,1129.057,1.1109717027383113,97.88902829726169
485,1131.604,0.1124044181529058,97.8875955818471
486,1134.149,0.1138480880444348,97.88615191195557
487,1136.694,1.115302706681291,97.88469729331871
488,1139.238,2.1167682682299613,97.88323173177004
489,1141.780,2.1182447667530653,97.88175523324693
490,1144.322,0.11973219620747955,97.88026780379252
491,1146.863,1.1212305504424336,97.87876944955757
492,1149.403,1.1227398231975627,97.87726017680244
493,1151.942,1.124260008101075,97.87573999189893
494,1154.480,2.12579109866779,97.87420890133221
495,1157.017,1.1273330882972914,97.87266691170271
496,1159.553,1.1288859702719805,97.87111402972802
497,1162.088,2.130449737755171,97.86955026224483
498,1164.622,1.132024383789215,97.86797561621079
499,1167.155,1.133609901293596,97.8663900987064
500,1169.688,3.135206283063013,97.86479371693699
501,1172.219,0.0,97.86318647823452
502,1174.749,2.1384316099404117,97.86156839005959
503,1177.279,0.14006053999678159,97.85993946000322
504,1179.807,1.1417003042111276,97.85829969578887
505,1182.334,0.14335089472572804,97.85664910527427
506,1184.861,1.145012303546622,97.85498769645338
507,1187.386,4.146684522541818,97.85331547745818
508,1189.911,0.0,97.85163245656074
509,1192.435,2.150061357825024,97.84993864217498
510,1194.957,1.1517659571413787,97.84823404285862
511,1197.479,1.1534813326848905,97.84651866731511
512,1200.000,1.1552074756044988,97.8447925243955
513,1202.520,1.1569443768996166,97.84305562310038
514,1205.039,0.15869202741829724,97.8413079725817
515,1207.557,1.1604504178552304,97.83954958214477
516,1210.074,1.1622195387498806,97.83778046125012
517,1212.590,2.1639993804846256,97.83600061951537
518,1215.105,1.165789933282781,97.83421006671722
519,1217.619,1.1675911872067672,97.83240881279323
520,1220.132,0.16940313215616243,97.83059686784384
521,1222.644,1.1712257578657699,97.82877424213423
522,1225.156,2.1730590539038275,97.82694094609617
523,1227.666,2.174903009670004,97.82509699033
524,1230.176,0.0,97.8232423856065
525,1232.684,0.0,97.8213771428688
526,1235.192,0.18049872676574807,97.81950127323425
527,1237.698,2.1823852120036236,97.81761478799638
528,1240.204,1.1842823013732584,97.81571769862674
529,1242.708,1.1861899832231444,97.81381001677686
530,1245.212,1.1881082457198886,97.81189175428011
531,1247.715,0.19003707684636595,97.80996292315363
532,1250.217,1.1919764643997723,97.80802353560023
533,1252.718,2.1939263959897346,97.80607360401027
534,1255.218,0.19588685903644887,97.80411314096355
535,1257.717,2.1978578407687053,97.8021421592313
536,1260.215,2.1998393282220263,97.80016067177797
537,1262.712,0.0,97.79816869176324
538,1265.208,1.203833767456203,97.7961662325438
539,1267.704,2.2058466923246414,97.79415330767536
540,1270.198,0.0,97.79212993091451
541,1272.691,3.2099038837793614,97.79009611622064
542,1275.184,2.2119481222422195,97.78805187775778
543,1277.675,0.21400277010341995,97.78599722989658
544,1280.166,3.216067812783791,97.78393218721621
545,1282.656,0.21814323549382664,97.78185676450617
546,1285.144,2.2202290232316813,97.77977097676832
547,1287.632,0.2223251607812955,97.7776748392187
548,1290.119,0.2244316327105622,97.77556836728944
549,1292.605,1.226548423369323,97.77345157663068
550,1295.090,0.2286755168875345,97.77132448311247
551,1297.574,0.23081289717330833,97.76918710282669
552,1300.057,0.232960547911091,97.76703945208891
553,1302.539,1.235118452559675,97.76488154744032
554,1305.021,1.2372865943503513,97.76271340564965
555,1307.501,3.2394649562849906,97.76053504371501
556,1309.980,1.2416535211341255,97.75834647886587
557,1312.459,2.243852271435074,97.75614772856493
558,1314.936,1.246061189490021,97.75393881050998
559,1317.413,1.2482802573641294,97.75171974263587
560,1319.889,0.2505094568836199,97.74949054311638
561,1322.363,2.252748769633868,97.74725123036613
562,1324.837,1.254998176957514,97.74500182304249
563,1327.310,0.25725765995255756,97.74274234004744
564,1329.782,1.259527199470483,97.74047280052952
565,1332.253,2.2618067761142697,97.73819322388573
566,1334.723,0.2640963702366008,97.7359036297634
567,1337.192,1.2663959619378602,97.73360403806214
568,1339.660,1.2687055310643274,97.73129446893567
569,1342.128,2.271025057206174,97.72897494279383
570,1344.594,3.2733545196956584,97.72664548030434
571,1347.060,2.2756938976051373,97.72430610239486
572,1349.524,0.27804316974523147,97.72195683025477
573,1351.988,2.280402314662851,97.71959768533715
574,1354.450,0.2827713106394043,97.7172286893606
575,1356.912,1.2851501356887667,97.71484986431123
576,1359.373,1.2875387675554464,97.71246123244455
577,1361.833,0.0,97.71006281628729
578,1364.292,0.29234536136060285,97.7076546386394
579,1366.750,1.2947632774241242,97.70523672257588
580,1369.207,2.2971909085512294,97.70280909144877
581,1371.663,2.2996282311110576,97.70037176888894
582,1374.119,3.302075221191899,97.6979247788081
583,1376.573,1.3045318545993894,97.69546814540061
584,1379.027,0.0,97.69300189314548
585,1381.479,1.309473953191855,97.69052604680815
586,1383.931,0.3119593685574955,97.6880406314425
587,1386.381,0.3144543276072511,97.68554567239275
588,1388.831,1.3169588047047398,97.68304119529526
589,1391.280,1.3194727739194576,97.68052722608054
590,1393.728,2.3219962090249027,97.6780037909751
591,1396.175,0.32452908349665677,97.67547091650334
592,1398.621,0.32707137051046686,97.67292862948953
593,1401.066,2.3296230429403693,97.67037695705963
594,1403.511,1.3321840733567996,97.6678159266432
595,1405.954,0.33475443402461735,97.66524556597538
596,1408.397,1.3373340969013157,97.66266590309868
597,1410.838,2.339923033635017,97.66007696636498
598,1413.279,2.3425212155626127,97.65747878443739
599,1415.718,1.3451286137078853,97.65487138629211
600,1418.157,1.3477451987795632,97.65225480122044
601,1420.595,0.35037094116943024,97.64962905883057
602,1423.032,0.35300581095042105,97.64699418904958
603,1425.468,1.3556497778747598,97.64435022212524
604,1427.903,0.35830281137198483,97.64169718862802
605,1430.338,1.3609648805470869,97.63903511945291
606,1432.771,3.3636359541786334,97.63636404582137
607,1435.203,0.36631600071680737,97.63368399928319
608,1437.635,1.3690049882815458,97.63099501171845
609,1440.065,2.371702884660607,97.6282971153394
610,1442.495,1.374409657307723,97.62559034269228
611,1444.924,0.0,97.62287472665938
612,1447.352,0.3798496995391929,97.6201503004608
613,1449.779,2.3825829023435148,97.61741709765649
614,1452.205,0.0,97.61467515214795
615,1454.630,0.38807550181961403,97.61192449818039
616,1457.054,1.3908348296556028,97.6091651703444
617,1459.477,1.3936027964220017,97.606397203578
618,1461.900,0.39637936683151054,97.60362063316849
619,1464.321,1.3991645052456647,97.60083549475434
620,1466.742,0.0,97.5980418243271
621,1469.162,1.4047603417666323,97.59523965823337
622,1471.581,1.407570966823414,97.59242903317659
623,1473.998,0.4103900137810115,97.58960998621899
624,1476.415,0.4132174452164463,97.58678255478355
625,1478.832,1.4160532233441785,97.58394677665582
626,1481.247,1.418897310014131,97.58110268998587
627,1483.661,0.42174966670985725,97.57825033329014
628,1486.074,0.0,97.57538974545342
629,1488.487,0.42747903426928247,97.57252096573072
630,1490.899,0.430355966250886,97.56964403374911
631,1493.309,0.4332410104902493,97.56675898950975
632,1495.719,0.4361341266103409,97.56386587338966
633,1498.128,1.4390352738562768,97.56096472614372
634,1500.536,2.4419444110934876,97.55805558890651
635,1502.943,0.0,97.55513850319427
636,1505.349,1.4477864890932608,97.55221351090674
637,1507.754,0.45071934567090466,97.5492806543291
638,1510.159,1.4536600238661208,97.54633997613388
639,1512.562,0.4566084806171631,97.54339151938284
640,1514.965,0.0,97.54043532752888
641,1517.367,1.462528555582054,97.53747144441795
642,1519.767,1.465500085709067,97.53449991429093
643,1522.167,1.4684792182144264,97.53152078178557
644,1524.566,0.0,97.52853409193837
645,1526.964,1.4744601098135348,97.52553989018647
646,1529.362,1.4774617776304382,97.52253822236956
647,1531.758,1.4804708652681882,97.51952913473181
648,1534.153,2.4834873260762578,97.51651267392374
649,1536.548,1.4865111129958422,97.51348888700416
650,1538.942,1.489542178557997,97.510457821442
651,1541.334,0.49258047488169154,97.50741952511831
652,1543.726,0.4956259536719472,97.50437404632805
653,1546.117,0.4986785662178619,97.50132143378214
654,1548.507,0.5017382633908198,97.49826173660918
655,1550.896,1.504804995642445,97.49519500435756
656,1553.285,0.5078787130028815,97.49212128699712
657,1555.672,1.5109593650786763,97.48904063492132
658,1558.059,1.5140469010510884,97.48595309894891
659,1560.444,0.5171412696740134,97.48285873032599
660,1562.829,0.5202424192722077,97.47975758072779
661,1565.213,0.0,97.47664970226073
662,1567.596,1.5264648525358808,97.47353514746412
663,1569.978,0.0,97.47041396931225
664,1572.359,1.5327137787838154,97.46728622121618
665,1574.739,1.5358480429743082,97.46415195702569
666,1577.119,2.5389887689688493,97.46101123103115
667,1579.497,0.0,97.45786409796546
668,1581.875,0.5452893869940993,97.4547106130059
669,1584.252,2.5484491682238684,97.45155083177613
670,1586.628,1.5516151896520398,97.44838481034796
671,1589.003,1.5547873947566302,97.44521260524337
672,1591.377,0.0,97.44203427343635
673,1593.750,0.561150127645206,97.4388498723548
674,1596.122,1.5643405401175556,97.43565945988244
675,1598.494,1.5675369056392157,97.43246309436078
676,1600.864,0.5707391654090941,97.4292608345909
677,1603.234,0.5739472601645161,97.42605273983548
678,1605.603,1.5771611301794337,97.42283886982057
679,1607.971,2.580380715262393,97.4196192847376
680,1610.338,1.5836059547547308,97.41639404524527
681,1612.704,3.5868367875286538,97.41316321247135
682,1615.069,0.5900731519852513,97.40992684801475
683,1617.433,0.5933149860527465,97.40668501394725
684,1619.797,0.0,97.40343777281556
685,1622.160,0.5998148123568825,97.40018518764312
686,1624.521,1.603072678068017,97.39692732193198
687,1626.882,1.6063357603351847,97.39366423966482
688,1629.242,1.609603994693245,97.39039600530676
689,1631.601,0.6128773161927086,97.38712268380729
690,1633.960,1.6161556593978332,97.38384434060217
691,1636.317,0.6194389583846629,97.38056104161534
692,1638.673,1.6227271467392228,97.37727285326078
693,1641.029,0.6260201575555016,97.3739798424445
694,1643.384,0.0,97.37068207656637
695,1645.738,1.6326203764779734,97.36737962352203
696,1648.091,1.6359274482951918,97.36407255170481
697,1650.443,1.6392390699923425,97.36076093000766
698,1652.794,1.6425551721750224,97.35744482782498
699,1655.144,0.6458756849454232,97.35412431505458
700,1657.494,0.6492005379004269,97.35079946209957
701,1659.842,1.6525296601297441,97.34747033987026
702,1662.190,1.6558629802139535,97.34413701978605
703,1664.537,0.0,97.34079957377736
704,1666.883,0.6625419257125031,97.3374580742875
705,1669.228,2.6658874057253996,97.3341125942746
706,1671.573,1.6692367927864922,97.33076320721351
707,1673.916,0.0,97.32740998709767
708,1676.258,0.6759469915589449,97.32405300844106
709,1678.600,0.6793076537199312,97.32069234628007
710,1680.941,2.6826719238246,97.3173280761754
711,1683.281,0.0,97.31396027421401
712,1685.620,0.6894109829890454,97.31058901701095
713,1687.958,1.6927856182886671,97.30721438171133
714,1690.295,0.6961635540078248,97.30383644599218
715,1692.632,0.6995447119356726,97.30045528806433
716,1694.967,0.702929013325587,97.29707098667441
717,1697.302,0.7063163788933338,97.29368362110667
718,1699.636,0.7097067288151351,97.29029327118486
719,1701.969,0.7130999827257654,97.28690001727423
720,1704.301,0.0,97.28350394028337
721,1706.632,0.7198948783339034,97.2801051216661
722,1708.963,0.7232963565766113,97.27670364342339
723,1711.292,0.7267004118947114,97.27329958810529
724,1713.621,0.0,97.2698930388128
725,1715.948,0.7335159208002295,97.26648407919977
726,1718.275,0.7369272065251806,97.26307279347482
727,1720.601,0.7403407335967529,97.25965926640325
728,1722.927,0.0,97.2562435833089
729,1725.251,2.7471741699238947,97.2528258300761
730,1727.574,2.7505939068484366,97.24940609315156
731,1729.897,1.7540155404537359,97.24598445954626
732,1732.219,1.7574389831626291,97.24256101683737
733,1734.540,0.7608641468299027,97.2391358531701
734,1736.860,1.764290942740331,97.23570905725967
735,1739.179,0.767719281606773,97.23228071839323
736,1741.497,0.0,97.22885092643165
737,1743.815,0.7745802281884693,97.22541977181153
738,1746.131,1.7780126544529509,97.22198734554705
739,1748.447,1.7814462607680923,97.21855373923191
740,1750.762,0.0,97.21511904504118
741,1753.076,0.7883166442667431,97.21168335573326
742,1755.389,1.7917532353482812,97.20824676465172
743,1757.701,0.0,97.20480936572729
744,1760.013,1.7986287465203503,97.20137125347965
745,1762.323,1.802067476980568,97.19793252301943
746,1764.633,0.0,97.19449327005009
747,1766.942,0.0,97.19105359086976
748,1769.250,1.812386417626783,97.18761358237322
749,1771.557,1.815826657946232,97.18417334205377
750,1773.864,1.8192670319948547,97.18073296800515
751,1776.169,0.8227074410766022,97.1772925589234
752,1778.474,0.0,97.17385221410879
753,1780.777,1.8295879665322303,97.17041203346777
754,1783.080,0.0,97.16697211751479
755,1785.382,0.8364674326257955,97.1635325673742
756,1787.683,1.8399065152177059,97.1600934847823
757,1789.984,1.843345027910999,97.156654972089
758,1792.283,3.8467828677400178,97.15321713225998
759,1794.582,1.8502199311216287,97.14978006887837
760,1796.880,2.8536561138531624,97.14634388614684
761,1799.177,2.857091311110679,97.14290868888932
762,1801.473,1.8605254174469223,97.13947458255308
763,1803.768,0.0,97.1360416732105
764,1806.062,1.8673899324389538,97.13261006756105
765,1808.356,0.8708201270668638,97.12917987293314
766,1810.649,0.8742488027139501,97.12575119728605
767,1812.941,0.8776758507881368,97.12232414921186
768,1815.232,0.0,97.11889883793728
769,1817.522,0.8845246266743629,97.11547537332564
770,1819.811,1.887946134121293,97.1120538658787
771,1822.099,2.8913655732613535,97.10863442673865
772,1824.387,0.8947828323100993,97.1052171676899
773,1826.674,0.8981977988388934,97.1018022011611
774,1828.960,1.9016103597730307,97.09838964022697
775,1831.245,1.905020401389777,97.09497959861022
776,1833.529,1.9084278093165494,97.09157219068345
777,1835.813,1.9118324685289423,97.08816753147106
778,1838.095,0.9152342633488644,97.08476573665114
779,1840.377,2.918633077442621,97.08136692255738
780,1842.658,1.9220287938189955,97.077971206181
781,1844.938,0.9254212948274017,97.0745787051726
782,1847.217,1.9288104621559228,97.07118953784408
783,1849.495,0.0,97.06780382317058
784,1851.773,0.9355783192076643,97.06442168079234
785,1854.049,0.9389567689834024,97.0610432310166
786,1856.325,1.9423314051804539,97.05766859481955
787,1858.600,0.9457021061518276,97.05429789384817
788,1860.874,0.9490687495777905,97.05093125042221
789,1863.148,0.0,97.04756878753598
790,1865.420,1.9557893711396162,97.04421062886038
791,1867.692,0.9591431012552789,97.04085689874472
792,1869.962,2.9624922777813794,97.03750772221862
793,1872.232,0.0,97.03416322499397
794,1874.501,0.9691764665331988,97.0308235334668
795,1876.770,1.9725112252808543,97.02748877471915
796,1879.037,0.9758409234789553,97.02415907652104
797,1881.304,0.9791654326676849,97.02083456733232
798,1883.570,1.982484623695413,97.01751537630459
799,1885.834,0.0,97.0142016332831
800,1888.099,1.9891065311913394,97.01089346880866
801,1890.362,1.9924089858804592,97.00759101411954
802,1892.624,0.9957055988466124,97.00429440115339
803,1894.886,0.0,97.00100376254906
804,1897.147,0.0022807683513690336,96.99771923164863
805,1899.406,2.0055590575007614,96.99444094249924
806,1901.666,1.0088309701450555,96.99116902985494
807,1903.924,2.0120963708212543,96.98790362917875
808,1906.181,2.0153551233556186,96.98464487664438
809,1908.438,2.0186070908617495,96.98139290913825
810,1910.694,2.0218521357386265,96.97814786426137
811,1912.948,0.025090119668746524,96.97490988033125
812,1915.203,2.028320903616276,96.97167909638372
813,1917.456,1.0315443478250188,96.96845565217498
814,1919.708,1.0347603118166404,96.96523968818336
815,1921.960,0.0379686543886919,96.96203134561131
816,1924.211,2.0411692336127203,96.95883076638728
817,1926.461,2.0443619068323926,96.95563809316761
818,1928.710,0.047546530661577435,96.95245346933842
819,1930.958,0.050722960982398035,96.9492770390176
820,1933.205,0.05389105294341334,96.94610894705659
821,1935.452,2.057050660957671,96.94294933904233
822,1937.698,4.060201638700789,96.93979836129921
823,1939.943,0.06334383910906638,96.93665616089093
824,1942.187,2.066477114377605,96.9335228856224
825,1944.430,1.0696013159583657,96.93039868404163
826,1946.673,4.072716294558305,96.9272837054417
827,1948.914,2.0758219001374556,96.92417809986254
828,1951.155,3.0789179819070256,96.92108201809297
829,1953.395,3.082004388327448,96.91799561167255
830,1955.634,2.0850809671065917,96.91491903289341
831,1957.873,2.0881475651977297,96.91185243480227
832,1960.110,2.0912040287977334,96.90879597120227
833,1962.347,0.09425020334514045,96.90574979665486
834,1964.583,2.097285933518208,96.90271406648179
835,1966.818,0.10031106323307881,96.89968893676692
836,1969.052,2.1033254356418354,96.89667456435816
837,1971.286,0.106328893130609,96.89367110686939
838,1973.518,2.109321277317676,96.89067872268232
839,1975.750,0.0,96.88769757094842
840,1977.981,2.1152721884091648,96.88472781159084
841,1980.211,0.0,96.88176960530625
842,1982.441,2.121176886433176,96.87882311356682
843,1984.669,1.1241115013779108,96.87588849862209
844,1986.897,1.1270340764991573,96.87296592350084
845,1989.124,2.129944447986972,96.87005555201303
846,1991.350,0.13284245124827976,96.86715754875172
847,1993.575,1.1357279209050972,96.8642720790949
848,1995.799,1.138600690792515,96.86139930920748
849,1998.023,2.1414605939568503,96.85853940604315
850,2000.246,2.1443074626537424,96.85569253734626
851,2002.468,0.0,96.85285887165374
852,2004.689,2.1499614217029546,96.85003857829705
853,2006.909,2.1527681725959837,96.84723182740402
854,2009.129,1.1555612100992363,96.84443878990076
855,2011.347,2.158340362486385,96.84165963751362
856,2013.565,2.161105457229013,96.83889454277099
857,2015.782,1.1638563209946824,96.83614367900532
858,2017.999,0.0,96.83340722035493
859,2020.214,0.16931465823405745,96.83068534176594
860,2022.429,2.1720217810057534,96.82797821899425
861,2024.642,2.174713971392748,96.82528602860725
862,2026.855,0.17739105201401628,96.82260894798598
863,2029.068,0.18005284467319882,96.8199471553268
864,2031.279,0.18269917035657102,96.81730082964343
865,2033.490,1.185329849231195,96.8146701507688
866,2035.699,1.187944700642987,96.81205529935701
867,2037.908,2.1905435431148987,96.8094564568851
868,2040.116,0.19312619434485612,96.80687380565514
869,2042.324,1.1956924712040404,96.80430752879596
870,2044.530,1.1982421897348274,96.80175781026517
871,2046.736,0.0,96.79922483485097
872,2048.941,2.203291211825814,96.79670878817419
873,2051.145,1.2057901433100255,96.79420985668997
874,2053.348,2.208271772310056,96.79172822768994
875,2055.551,2.2107359106961013,96.7892640893039
876,2057.752,3.213182369498213,96.78681763050179
877,2059.953,2.2156109589043638,96.78438904109564
878,2062.153,0.2180214882585858,96.78197851174141
879,2064.352,0.22041376605902485,96.77958623394098
880,2066.551,2.2227875999561064,96.7772124000439
881,2068.748,3.2251427967505606,96.77485720324944
882,2070.945,1.2274791623915462,96.77252083760845
883,2073.141,2.229796501974775,96.77020349802523
884,2075.336,1.232094619740593,96.7679053802594
885,2077.531,1.2343733190720343,96.76562668092797
886,2079.724,0.23663240249297246,96.76336759750703
887,2081.917,0.0,96.76112832833378
888,2084.109,2.241090927391568,96.75890907260843
889,2086.300,0.2432899696039783,96.75671003039602
890,2088.491,1.2454685973715698,96.75453140262843
891,2090.680,1.2476266088937962,96.7523733911062
892,2092.869,0.0,96.75023619850049
893,2095.057,1.2518799716450957,96.7481200283549
894,2097.244,1.2539749149124901,96.74602508508751
895,2099.431,0.2560484260073679,96.74395157399263
896,2101.616,1.258100298757185,96.74189970124282
897,2103.801,1.2601303261092909,96.73986967389071
898,2105.985,2.2621383001290383,96.73786169987096
899,2108.168,1.2641240119978647,96.73587598800214
900,2110.351,2.266087252011374,96.73391274798863
901,2112.532,3.2680278095774895,96.73197219042251
902,2114.713,2.2699454732144773,96.73005452678552
903,2116.893,2.2718400305491144,96.72815996945089
904,2119.072,3.2737112683147416,96.72628873168526
905,2121.250,1.2755589723493443,96.72444102765066
906,2123.428,4.277382927593749,96.72261707240625
907,2125.605,0.0,96.72081708191044
908,2127.781,0.2809587269774312,96.71904127302257
909,2129.956,2.2827101364950266,96.71728986350497
910,2132.130,1.284436927975193,96.7155630720248
911,2134.304,0.0,96.71386111815598
912,2136.477,0.2878157776189596,96.71218422238104
913,2138.649,2.289467393906932,96.71053260609307
914,2140.820,1.2910935084023833,96.70890649159762
915,2142.990,1.2926938978853997,96.7073061021146
916,2145.160,0.2942683382198652,96.70573166178013
917,2147.329,1.2958166043514439,96.70418339564856
918,2149.497,1.2973384703057889,96.70266152969421
919,2151.664,1.298833709186539,96.70116629081346
920,2153.831,3.3003020931734994,96.6996979068265
921,2155.996,1.3017433935207379,96.69825660647926
922,2158.161,2.3031573805545804,96.69684261944542
923,2160.325,0.0,96.69545617632816
924,2162.488,1.305902491337804,96.6940975086622
925,2164.651,1.3072331510844322,96.69276684891557
926,2166.813,1.3085355695083791,96.69146443049162
927,2168.973,2.309809512269098,96.6901904877309
928,2171.134,1.311054744086988,96.68894525591301
929,2173.293,0.3122710287414492,96.68772897125855
930,2175.451,1.3134581290689766,96.68654187093102
931,2177.609,1.314615806961271,96.68538419303873
932,2179.766,0.3157438233633627,96.68425617663664
933,2181.922,1.3168419382716792,96.68315806172832
934,2184.078,1.317909910732098,96.6820900892679
935,2186.232,1.3189474988381562,96.68105250116184
936,2188.386,0.3199544597290469,96.68004554027095
937,2190.539,0.0,96.67906945041223
938,2192.691,2.321875523639193,96.67812447636081
939,2194.843,1.322789136148188,96.67721086385181
940,2196.994,1.3236711404177157,96.67632885958228
941,2199.143,2.3245212887868973,96.6754787112131
942,2201.293,0.0,96.67466066737087
943,2203.441,2.3261250223501975,96.6738749776498
944,2205.588,2.3268781073863636,96.67312189261364
945,2207.735,0.32759833620245615,96.67240166379754
946,2209.881,2.3282854562899615,96.67171454371004
947,2212.026,0.0,96.67106078583487
948,2214.171,2.3295593553670813,96.67044064463292
949,2216.314,0.0,96.6698543755441
950,2218.457,2.3306977650106973,96.6693022349893
951,2220.599,0.0,96.6687844803722
952,2222.740,0.33169862991871923,96.66830137008128
953,2224.881,1.3321468365083717,96.66785316349163
954,2227.021,2.33255987903307,96.66744012096693
955,2229.160,1.3329374961386975,96.6670625038613
956,2231.298,0.0,96.66672057452122
957,2233.435,2.3335854037125756,96.66641459628742
958,2235.572,0.0,96.6661448334968
959,2237.708,0.3340884485156579,96.66591155148434
960,2239.843,2.3342849834150172,96.66571501658498
961,2241.977,1.334444503864475,96.66555549613553
962,2244.110,0.0,96.66543325847655
963,2246.243,2.334651427045685,96.66534857295431
964,2248.375,1.3346982900773128,96.66530170992269
965,2250.506,1.3347070592550239,96.66529294074498
966,2252.636,1.3346774622041409,96.66532253779586
967,2254.766,0.3346092255366244,96.66539077446338
968,2256.895,4.3345020748493255,96.66549792515067
969,2259.023,3.334355734721953,96.66564426527805
970,2261.150,2.334169928715241,96.66583007128476
971,2263.277,3.3339443793690293,96.66605562063097
972,2265.402,0.0,96.66632119179967
973,2267.527,0.3333729357014903,96.66662706429851
974,2269.651,0.0,96.66697351866176
975,2271.775,2.332639163547782,96.66736083645222
976,2273.897,0.33221069973691897,96.66778930026308
977,2276.019,2.331740806280152,96.66825919371985
978,2278.140,2.331229198517775,96.66877080148222
979,2280.261,0.33067559075391273,96.66932440924609
980,2282.380,0.3300796962547423,96.66992030374526
981,2284.499,0.32944122724646263,96.67055877275354
982,2286.617,2.3287598949134605,96.67124010508654
983,2288.734,1.3280354093963922,96.67196459060361
984,2290.850,1.327267479790308,96.67273252020969
985,2292.966,2.3264558141426903,96.67354418585731
986,2295.081,3.3256001194516074,96.67439988054839
987,2297.195,1.3247001016637938,96.6752998983362
988,2299.308,0.0,96.67624453432731
989,2301.421,1.3227659153166655,96.67723408468333
990,2303.533,1.3217311533770157,96.67826884662298
991,2305.644,0.32065088157607136,96.67934911842393
992,2307.754,0.31952480057530863,96.68047519942469
993,2309.864,1.3183526099734735,96.68164739002653
994,2311.972,1.3171340083046488,96.68286599169535
995,2314.080,0.3158686930363501,96.68413130696365
996,2316.188,0.3145563605676358,96.68544363943236
997,2318.294,2.3131967062272025,96.6868032937728
998,2320.400,1.311789424271467,96.68821057572853
999,2322.505,0.31033420788267563,96.68966579211732
1000,2324.609,1.3088307491670292,96.69116925083297
1001,2326.712,2.3072787391527356,96.69272126084726
1002,2328.815,1.3056778677881056,96.6943221322119
1003,2330.917,0.3040278239396912,96.69597217606031
1004,2333.018,2.3023282953903816,96.69767170460962
1005,2335.118,0.30057896883744206,96.69942103116256
1006,2337.218,1.2987795298906804,96.70122047010932
1007,2339.316,0.29692966307047186,96.70307033692953
1008,2341.414,2.2950290518059546,96.70497094819405
1009,2343.512,1.2930773784330398,96.70692262156696
1010,2345.608,1.2910743241925218,96.70892567580748
1011,2347.704,1.2890195692282447,96.71098043077176
1012,2349.799,2.286912792585099,96.7130872074149
1013,2351.893,3.284753672207202,96.7152463277928
1014,2353.987,1.282541884935938,96.71745811506406
1015,2356.079,1.2802771065080947,96.7197228934919
1016,2358.171,0.27795901155397473,96.72204098844603
1017,2360.262,0.0,96.72441272640461
1018,2362.353,2.2731615650439068,96.7268384349561
1019,2364.443,0.0,96.72931844280116
1020,2366.531,1.268146920245357,96.73185307975464
1021,2368.620,2.2655573232526507,96.73444267674735
1022,2370.707,1.2629124341719375,96.73708756582806
1023,2372.794,0.26021191983463154,96.73978808016537
