pixel_index,raman_shift_cm-1,intensity
0,-224.846,98.0
1,-221.778,98.0
2,-218.712,98.0
3,-215.647,98.0
4,-212.583,98.0
5,-209.521,98.0
6,-206.460,98.0
7,-203.399,97.0
8,-200.340,97.0
9,-197.283,97.0
10,-194.226,97.0
11,-191.171,99.0
12,-188.116,99.0
13,-185.064,99.0
14,-182.012,98.0
15,-178.961,98.0
16,-175.912,98.0
17,-172.864,99.0
18,-169.817,99.0
19,-166.771,99.0
20,-163.726,99.0
21,-160.683,98.0
22,-157.641,98.0
23,-154.600,98.0
24,-151.560,98.0
25,-148.521,97.0
26,-145.484,98.0
27,-142.447,98.0
28,-139.412,98.0
29,-136.379,98.0
30,-133.346,98.0
31,-130.314,98.0
32,-127.284,97.0
33,-124.255,97.0
34,-121.227,97.0
35,-118.200,98.0
36,-115.175,98.0
37,-112.150,98.0
38,-109.127,98.0
39,-106.105,98.0
40,-103.084,98.0
41,-100.065,98.0
42,-97.046,98.0
43,-94.029,98.0
44,-91.013,98.0
45,-87.998,98.0
46,-84.984,98.0
47,-81.972,98.0
48,-78.960,98.0
49,-75.950,98.0
50,-72.941,98.0
51,-69.933,97.0
52,-66.927,97.0
53,-63.921,98.0
54,-60.917,98.0
55,-57.914,98.0
56,-54.912,98.0
57,-51.911,98.0
58,-48.912,98.0
59,-45.913,97.0
60,-42.916,97.0
61,-39.920,97.0
62,-36.925,97.0
63,-33.931,98.0
64,-30.939,99.0
65,-27.947,99.0
66,-24.957,99.0
67,-21.968,98.0
68,-18.980,98.0
69,-15.993,97.0
70,-13.008,97.0
71,-10.023,98.0
72,-7.040,98.0
73,-4.058,98.0
74,-1.077,98.0
75,1.903,98.0
76,4.881,97.0
77,7.859,97.0
78,10.835,97.0
79,13.810,98.0
80,16.784,99.0
81,19.757,99.0
82,22.728,99.0
83,25.699,98.0
84,28.668,97.0
85,31.636,97.0
86,34.603,97.0
87,37.569,98.0
88,40.534,98.0
89,43.497,98.0
90,46.460,98.0
91,49.421,98.0
92,52.381,98.0
93,55.340,98.0
94,58.297,98.0
95,61.254,98.0
96,64.209,97.0
97,67.164,97.0
98,70.117,97.0
99,73.069,97.0
100,76.020,98.0
101,78.969,99.0
102,81.918,98.0
103,84.865,98.0
104,87.811,98.0
105,90.757,98.0
106,93.700,98.0
107,96.643,98.0
108,99.585,99.0
109,102.525,98.0
110,105.465,98.0
111,108.403,99.0
112,111.340,99.0
113,114.276,98.0
114,117.211,98.0
115,120.144,99.0
116,123.077,98.0
117,126.008,98.0
118,128.938,97.0
119,131.868,97.0
120,134.795,97.0
121,137.722,99.0
122,140.648,97.0
123,143.572,99.0
124,146.496,99.0
125,149.418,99.0
126,152.339,97.0
127,155.259,98.0
128,158.178,98.0
129,161.096,98.0
130,164.012,98.0
131,166.928,98.0
132,169.842,98.0
133,172.755,98.0
134,175.667,98.0
135,178.578,98.0
136,181.488,99.0
137,184.397,99.0
138,187.304,99.0
139,190.211,99.0
140,193.116,98.0
141,196.020,98.0
142,198.923,99.0
143,201.825,99.0
144,204.726,99.0
145,207.625,99.0
146,210.524,99.0
147,213.421,98.0
148,216.318,99.0
149,219.213,99.0
150,222.107,99.0
151,225.000,99.0
152,227.891,99.0
153,230.782,99.0
154,233.672,99.0
155,236.560,99.0
156,239.447,99.0
157,242.333,98.0
158,245.218,98.0
159,248.102,98.0
160,250.985,98.0
161,253.867,98.0
162,256.748,99.0
163,259.627,99.0
164,262.505,99.0
165,265.383,99.0
166,268.259,99.0
167,271.134,99.0
168,274.008,99.0
169,276.880,98.0
170,279.752,98.0
171,282.623,99.0
172,285.492,99.0
173,288.360,99.0
174,291.228,99.0
175,294.094,99.0
176,296.959,99.0
177,299.823,100.0
178,302.685,100.0
179,305.547,99.0
180,308.408,98.0
181,311.267,98.0
182,314.126,98.0
183,316.983,98.0
184,319.839,98.0
185,322.694,98.0
186,325.548,98.0
187,328.401,98.0
188,331.253,98.0
189,334.103,98.0
190,336.953,99.0
191,339.801,98.0
192,342.649,98.0
193,345.495,99.0
194,348.340,99.0
195,351.184,99.0
196,354.027,99.0
197,356.869,99.0
198,359.709,99.0
199,362.549,99.0
200,365.388,99.0
201,368.225,98.0
202,371.061,98.0
203,373.897,98.0
204,376.731,98.0
205,379.564,98.0
206,382.396,99.0
207,385.227,99.0
208,388.057,99.0
209,390.885,99.0
210,393.713,99.0
211,396.539,99.0
212,399.365,98.0
213,402.189,98.0
214,405.012,98.0
215,407.835,97.0
216,410.656,98.0
217,413.476,98.0
218,416.295,97.0
219,419.112,98.0
220,421.929,99.0
221,424.745,98.0
222,427.559,98.0
223,430.373,98.0
224,433.185,98.0
225,435.996,98.0
226,438.807,98.0
227,441.616,98.0
228,444.424,98.0
229,447.231,98.0
230,450.037,98.0
231,452.842,99.0
232,455.645,99.0
233,458.448,99.0
234,461.250,99.0
235,464.050,99.0
236,466.849,99.0
237,469.648,99.0
238,472.445,99.0
239,475.241,99.0
240,478.036,99.0
241,480.830,99.0
242,483.623,99.0
243,486.415,99.0
244,489.206,99.0
245,491.996,99.0
246,494.784,100.0
247,497.572,102.0
248,500.358,104.0
249,503.144,105.0
250,505.928,111.0
251,508.712,111.0
252,511.494,111.0
253,514.275,105.0
254,517.055,101.0
255,519.834,100.0
256,522.612,99.0
257,525.389,99.0
258,528.165,99.0
259,530.940,99.0
260,533.713,99.0
261,536.486,99.0
262,539.257,99.0
263,542.028,99.0
264,544.797,99.0
265,547.566,99.0
266,550.333,99.0
267,553.099,99.0
268,555.864,99.0
269,558.629,99.0
270,561.392,99.0
271,564.154,99.0
272,566.915,98.0
273,569.674,98.0
274,572.433,99.0
275,575.191,98.0
276,577.948,98.0
277,580.703,98.0
278,583.458,98.0
279,586.211,98.0
280,588.964,98.0
281,591.715,98.0
282,594.466,98.0
283,597.215,99.0
284,599.963,99.0
285,602.710,99.0
286,605.457,99.0
287,608.202,99.0
288,610.946,99.0
289,613.689,99.0
290,616.431,97.0
291,619.172,97.0
292,621.911,97.0
293,624.650,97.0
294,627.388,98.0
295,630.125,98.0
296,632.860,99.0
297,635.595,99.0
298,638.328,98.0
299,641.061,98.0
300,643.792,98.0
301,646.523,98.0
302,649.252,98.0
303,651.980,99.0
304,654.708,99.0
305,657.434,99.0
306,660.159,99.0
307,662.883,99.0
308,665.606,99.0
309,668.328,99.0
310,671.049,99.0
311,673.769,98.0
312,676.488,99.0
313,679.206,99.0
314,681.923,99.0
315,684.639,99.0
316,687.354,99.0
317,690.067,98.0
318,692.780,98.0
319,695.492,98.0
320,698.202,98.0
321,700.912,98.0
322,703.621,98.0
323,706.328,98.0
324,709.035,99.0
325,711.740,98.0
326,714.444,99.0
327,717.148,98.0
328,719.850,99.0
329,722.552,99.0
330,725.252,99.0
331,727.951,98.0
332,730.649,99.0
333,733.347,99.0
334,736.043,98.0
335,738.738,99.0
336,741.432,99.0
337,744.125,99.0
338,746.817,99.0
339,749.508,99.0
340,752.198,99.0
341,754.887,99.0
342,757.575,99.0
343,760.262,99.0
344,762.948,99.0
345,765.633,99.0
346,768.317,99.0
347,770.999,98.0
348,773.681,97.0
349,776.362,97.0
350,779.042,97.0
351,781.720,97.0
352,784.398,98.0
353,787.075,98.0
354,789.751,98.0
355,792.425,98.0
356,795.099,99.0
357,797.771,99.0
358,800.443,99.0
359,803.114,99.0
360,805.783,100.0
361,808.452,100.0
362,811.119,99.0
363,813.786,98.0
364,816.451,98.0
365,819.116,98.0
366,821.779,98.0
367,824.442,98.0
368,827.103,98.0
369,829.763,98.0
370,832.423,97.0
371,835.081,98.0
372,837.739,99.0
373,840.395,99.0
374,843.050,99.0
375,845.705,99.0
376,848.358,99.0
377,851.010,99.0
378,853.662,99.0
379,856.312,98.0
380,858.961,98.0
381,861.610,98.0
382,864.257,98.0
383,866.903,98.0
384,869.549,98.0
385,872.193,98.0
386,874.836,98.0
387,877.478,98.0
388,880.120,98.0
389,882.760,98.0
390,885.399,99.0
391,888.037,98.0
392,890.675,98.0
393,893.311,99.0
394,895.946,99.0
395,898.580,98.0
396,901.214,99.0
397,903.846,99.0
398,906.477,98.0
399,909.107,99.0
400,911.737,99.0
401,914.365,99.0
402,916.992,99.0
403,919.618,99.0
404,922.244,99.0
405,924.868,99.0
406,927.491,99.0
407,930.113,99.0
408,932.735,99.0
409,935.355,99.0
410,937.974,99.0
411,940.592,99.0
412,943.210,99.0
413,945.826,99.0
414,948.441,99.0
415,951.056,100.0
416,953.669,98.0
417,956.281,98.0
418,958.893,98.0
419,961.503,99.0
420,964.112,99.0
421,966.721,99.0
422,969.328,99.0
423,971.935,99.0
424,974.540,99.0
425,977.144,99.0
426,979.748,99.0
427,982.350,99.0
428,984.952,99.0
429,987.552,98.0
430,990.152,98.0
431,992.750,98.0
432,995.348,98.0
433,997.944,98.0
434,1000.540,98.0
435,1003.134,99.0
436,1005.728,99.0
437,1008.321,99.0
438,1010.912,99.0
439,1013.503,99.0
440,1016.092,99.0
441,1018.681,99.0
442,1021.269,99.0
443,1023.856,99.0
444,1026.441,99.0
445,1029.026,99.0
446,1031.610,99.0
447,1034.193,99.0
448,1036.775,99.0
449,1039.355,98.0
450,1041.935,98.0
451,1044.514,98.0
452,1047.092,98.0
453,1049.669,98.0
454,1052.245,98.0
455,1054.820,98.0
456,1057.394,98.0
457,1059.967,99.0
458,1062.539,99.0
459,1065.110,99.0
460,1067.681,99.0
461,1070.250,99.0
462,1072.818,99.0
463,1075.385,99.0
464,1077.951,98.0
465,1080.517,98.0
466,1083.081,98.0
467,1085.644,98.0
468,1088.207,98.0
469,1090.768,99.0
470,1093.329,99.0
471,1095.888,99.0
472,1098.447,99.0
473,1101.004,98.0
474,1103.561,98.0
475,1106.116,98.0
476,1108.671,98.0
477,1111.225,99.0
478,1113.777,99.0
479,1116.329,99.0
480,1118.880,99.0
481,1121.430,98.0
482,1123.979,98.0
483,1126.527,98.0
484,1129.074,98.0
485,1131.620,99.0
486,1134.165,99.0
487,1136.709,98.0
488,1139.252,98.0
489,1141.794,98.0
490,1144.335,98.0
491,1146.875,99.0
492,1149.415,99.0
493,1151.953,99.0
494,1154.490,100.0
495,1157.027,100.0
496,1159.562,99.0
497,1162.097,99.0
498,1164.630,98.0
499,1167.163,98.0
500,1169.695,98.0
501,1172.225,98.0
502,1174.755,98.0
503,1177.284,98.0
504,1179.812,99.0
505,1182.338,98.0
506,1184.864,99.0
507,1187.389,98.0
508,1189.913,98.0
509,1192.436,98.0
510,1194.959,99.0
511,1197.480,99.0
512,1200.000,99.0
513,1202.519,99.0
514,1205.038,99.0
515,1207.555,99.0
516,1210.071,99.0
517,1212.587,99.0
518,1215.101,99.0
519,1217.615,99.0
520,1220.128,99.0
521,1222.639,99.0
522,1225.150,99.0
523,1227.660,99.0
524,1230.169,99.0
525,1232.677,99.0
526,1235.184,99.0
527,1237.690,99.0
528,1240.195,99.0
529,1242.699,99.0
530,1245.202,99.0
531,1247.704,99.0
532,1250.206,99.0
533,1252.706,99.0
534,1255.206,99.0
535,1257.704,99.0
536,1260.202,99.0
537,1262.698,99.0
538,1265.194,99.0
539,1267.689,99.0
540,1270.183,99.0
541,1272.676,99.0
542,1275.168,99.0
543,1277.659,99.0
544,1280.149,99.0
545,1282.638,99.0
546,1285.126,100.0
547,1287.613,100.0
548,1290.100,100.0
549,1292.585,99.0
550,1295.070,99.0
551,1297.553,99.0
552,1300.036,99.0
553,1302.517,99.0
554,1304.998,99.0
555,1307.478,99.0
556,1309.957,99.0
557,1312.435,99.0
558,1314.912,99.0
559,1317.388,99.0
560,1319.863,100.0
561,1322.337,100.0
562,1324.811,100.0
563,1327.283,100.0
564,1329.755,99.0
565,1332.225,99.0
566,1334.695,98.0
567,1337.163,98.0
568,1339.631,98.0
569,1342.098,100.0
570,1344.564,100.0
571,1347.029,100.0
572,1349.493,101.0
573,1351.956,100.0
574,1354.418,100.0
575,1356.880,101.0
576,1359.340,100.0
577,1361.800,100.0
578,1364.258,100.0
579,1366.716,100.0
580,1369.172,100.0
581,1371.628,100.0
582,1374.083,100.0
583,1376.537,100.0
584,1378.990,99.0
585,1381.442,99.0
586,1383.893,99.0
587,1386.344,99.0
588,1388.793,98.0
589,1391.241,98.0
590,1393.689,98.0
591,1396.135,98.0
592,1398.581,98.0
593,1401.026,98.0
594,1403.470,98.0
595,1405.913,99.0
596,1408.355,98.0
597,1410.796,98.0
598,1413.236,99.0
599,1415.675,99.0
600,1418.114,99.0
601,1420.551,99.0
602,1422.988,99.0
603,1425.423,99.0
604,1427.858,99.0
605,1430.292,99.0
606,1432.725,99.0
607,1435.157,99.0
608,1437.588,98.0
609,1440.018,98.0
610,1442.447,98.0
611,1444.876,98.0
612,1447.303,99.0
613,1449.730,99.0
614,1452.156,100.0
615,1454.580,100.0
616,1457.004,100.0
617,1459.427,99.0
618,1461.849,99.0
619,1464.270,98.0
620,1466.690,98.0
621,1469.110,98.0
622,1471.528,98.0
623,1473.946,98.0
624,1476.362,98.0
625,1478.778,98.0
626,1481.193,98.0
627,1483.607,98.0
628,1486.020,99.0
629,1488.432,98.0
630,1490.843,99.0
631,1493.253,99.0
632,1495.663,99.0
633,1498.071,99.0
634,1500.479,99.0
635,1502.886,98.0
636,1505.292,98.0
637,1507.697,98.0
638,1510.101,98.0
639,1512.504,99.0
640,1514.906,99.0
641,1517.307,99.0
642,1519.708,99.0
643,1522.107,99.0
644,1524.506,98.0
645,1526.904,98.0
646,1529.301,98.0
647,1531.697,97.0
648,1534.092,97.0
649,1536.486,97.0
650,1538.879,97.0
651,1541.272,97.0
652,1543.663,98.0
653,1546.054,97.0
654,1548.444,97.0
655,1550.832,98.0
656,1553.220,98.0
657,1555.607,98.0
658,1557.994,98.0
659,1560.379,99.0
660,1562.763,99.0
661,1565.147,99.0
662,1567.529,99.0
663,1569.911,99.0
664,1572.292,99.0
665,1574.672,99.0
666,1577.051,98.0
667,1579.429,98.0
668,1581.807,98.0
669,1584.183,98.0
670,1586.559,98.0
671,1588.933,98.0
672,1591.307,98.0
673,1593.680,98.0
674,1596.052,98.0
675,1598.423,98.0
676,1600.794,98.0
677,1603.163,98.0
678,1605.531,98.0
679,1607.899,98.0
680,1610.266,98.0
681,1612.632,98.0
682,1614.997,98.0
683,1617.361,98.0
684,1619.724,99.0
685,1622.086,99.0
686,1624.448,98.0
687,1626.808,98.0
688,1629.168,98.0
689,1631.527,98.0
690,1633.885,97.0
691,1636.242,97.0
692,1638.598,97.0
693,1640.954,98.0
694,1643.308,98.0
695,1645.662,98.0
696,1648.014,98.0
697,1650.366,98.0
698,1652.717,98.0
699,1655.067,98.0
700,1657.417,98.0
701,1659.765,98.0
702,1662.112,97.0
703,1664.459,97.0
704,1666.805,97.0
705,1669.150,97.0
706,1671.494,97.0
707,1673.837,98.0
708,1676.179,98.0
709,1678.520,98.0
710,1680.861,98.0
711,1683.201,99.0
712,1685.539,98.0
713,1687.877,98.0
714,1690.214,98.0
715,1692.551,98.0
716,1694.886,98.0
717,1697.220,98.0
718,1699.554,98.0
719,1701.887,99.0
720,1704.219,99.0
721,1706.550,99.0
722,1708.880,99.0
723,1711.209,99.0
724,1713.537,98.0
725,1715.865,98.0
726,1718.192,99.0
727,1720.518,99.0
728,1722.843,99.0
729,1725.167,99.0
730,1727.490,98.0
731,1729.812,98.0
732,1732.134,98.0
733,1734.455,98.0
734,1736.774,98.0
735,1739.093,98.0
736,1741.411,98.0
737,1743.729,98.0
738,1746.045,98.0
739,1748.361,98.0
740,1750.675,98.0
741,1752.989,98.0
742,1755.302,98.0
743,1757.614,98.0
744,1759.925,98.0
745,1762.236,98.0
746,1764.545,98.0
747,1766.854,98.0
748,1769.162,98.0
749,1771.469,98.0
750,1773.775,99.0
751,1776.080,98.0
752,1778.385,98.0
753,1780.688,97.0
754,1782.991,98.0
755,1785.293,98.0
756,1787.594,98.0
757,1789.894,98.0
758,1792.193,98.0
759,1794.492,98.0
760,1796.789,98.0
761,1799.086,98.0
762,1801.382,98.0
763,1803.677,98.0
764,1805.971,98.0
765,1808.265,98.0
766,1810.557,99.0
767,1812.849,99.0
768,1815.140,99.0
769,1817.430,99.0
770,1819.719,99.0
771,1822.007,98.0
772,1824.295,99.0
773,1826.581,98.0
774,1828.867,98.0
775,1831.152,98.0
776,1833.436,98.0
777,1835.719,98.0
778,1838.002,98.0
779,1840.283,97.0
780,1842.564,97.0
781,1844.844,98.0
782,1847.123,98.0
783,1849.401,98.0
784,1851.678,99.0
785,1853.955,98.0
786,1856.231,99.0
787,1858.506,98.0
788,1860.780,99.0
789,1863.053,99.0
790,1865.325,99.0
791,1867.597,99.0
792,1869.867,99.0
793,1872.137,99.0
794,1874.406,99.0
795,1876.674,99.0
796,1878.941,99.0
797,1881.208,99.0
798,1883.473,98.0
799,1885.738,98.0
800,1888.002,98.0
801,1890.265,98.0
802,1892.528,98.0
803,1894.789,99.0
804,1897.050,99.0
805,1899.310,99.0
806,1901.569,98.0
807,1903.827,98.0
808,1906.084,98.0
809,1908.340,98.0
810,1910.596,98.0
811,1912.851,98.0
812,1915.105,98.0
813,1917.358,98.0
814,1919.610,98.0
815,1921.862,98.0
816,1924.113,98.0
817,1926.362,98.0
818,1928.611,98.0
819,1930.860,98.0
820,1933.107,99.0
821,1935.353,99.0
822,1937.599,99.0
823,1939.844,98.0
824,1942.088,98.0
825,1944.331,98.0
826,1946.574,97.0
827,1948.815,98.0
828,1951.056,98.0
829,1953.296,98.0
830,1955.535,98.0
831,1957.773,98.0
832,1960.011,98.0
833,1962.248,98.0
834,1964.483,98.0
835,1966.718,98.0
836,1968.953,98.0
837,1971.186,98.0
838,1973.418,99.0
839,1975.650,98.0
840,1977.881,99.0
841,1980.111,98.0
842,1982.340,99.0
843,1984.569,99.0
844,1986.797,99.0
845,1989.023,98.0
846,1991.249,98.0
847,1993.474,98.0
848,1995.699,98.0
849,1997.922,98.0
850,2000.145,98.0
851,2002.367,98.0
852,2004.588,98.0
853,2006.808,98.0
854,2009.028,98.0
855,2011.246,98.0
856,2013.464,98.0
857,2015.681,98.0
858,2017.898,98.0
859,2020.113,98.0
860,2022.328,98.0
861,2024.541,99.0
862,2026.754,98.0
863,2028.966,99.0
864,2031.178,99.0
865,2033.388,99.0
866,2035.598,99.0
867,2037.807,99.0
868,2040.015,98.0
869,2042.222,98.0
870,2044.429,98.0
871,2046.634,98.0
872,2048.839,98.0
873,2051.043,99.0
874,2053.247,99.0
875,2055.449,99.0
876,2057.651,99.0
877,2059.851,97.0
878,2062.052,97.0
879,2064.251,97.0
880,2066.449,97.0
881,2068.647,97.0
882,2070.844,98.0
883,2073.040,98.0
884,2075.235,98.0
885,2077.429,98.0
886,2079.623,98.0
887,2081.815,98.0
888,2084.007,98.0
889,2086.199,98.0
890,2088.389,98.0
891,2090.579,98.0
892,2092.767,98.0
893,2094.955,98.0
894,2097.143,97.0
895,2099.329,98.0
896,2101.514,97.0
897,2103.699,97.0
898,2105.883,97.0
899,2108.066,97.0
900,2110.249,97.0
901,2112.430,99.0
902,2114.611,99.0
903,2116.791,99.0
904,2118.970,99.0
905,2121.149,99.0
906,2123.326,98.0
907,2125.503,98.0
908,2127.679,98.0
909,2129.854,98.0
910,2132.029,97.0
911,2134.202,98.0
912,2136.375,98.0
913,2138.547,98.0
914,2140.718,98.0
915,2142.889,99.0
916,2145.058,99.0
917,2147.227,99.0
918,2149.395,98.0
919,2151.563,98.0
920,2153.729,98.0
921,2155.895,98.0
922,2158.060,98.0
923,2160.224,99.0
924,2162.387,99.0
925,2164.550,99.0
926,2166.711,99.0
927,2168.872,99.0
928,2171.033,99.0
929,2173.192,98.0
930,2175.351,99.0
931,2177.508,98.0
932,2179.665,98.0
933,2181.822,98.0
934,2183.977,97.0
935,2186.132,97.0
936,2188.285,97.0
937,2190.439,97.0
938,2192.591,98.0
939,2194.742,98.0
940,2196.893,98.0
941,2199.043,97.0
942,2201.192,97.0
943,2203.341,97.0
944,2205.488,98.0
945,2207.635,98.0
946,2209.781,98.0
947,2211.926,97.0
948,2214.071,97.0
949,2216.214,97.0
950,2218.357,97.0
951,2220.499,98.0
952,2222.641,98.0
953,2224.781,98.0
954,2226.921,98.0
955,2229.060,98.0
956,2231.198,98.0
957,2233.336,98.0
958,2235.472,98.0
959,2237.608,98.0
960,2239.743,97.0
961,2241.878,97.0
962,2244.011,97.0
963,2246.144,97.0
964,2248.276,98.0
965,2250.407,98.0
966,2252.538,98.0
967,2254.667,98.0
968,2256.796,98.0
969,2258.924,98.0
970,2261.052,97.0
971,2263.178,98.0
972,2265.304,98.0
973,2267.429,97.0
974,2269.553,97.0
975,2271.677,97.0
976,2273.800,97.0
977,2275.921,97.0
978,2278.043,98.0
979,2280.163,98.0
980,2282.283,98.0
981,2284.401,98.0
982,2286.520,98.0
983,2288.637,98.0
984,2290.753,98.0
985,2292.869,98.0
986,2294.984,98.0
987,2297.098,98.0
988,2299.212,98.0
989,2301.325,98.0
990,2303.437,98.0
991,2305.548,98.0
992,2307.658,98.0
993,2309.768,98.0
994,2311.877,97.0
995,2313.985,97.0
996,2316.092,97.0
997,2318.199,98.0
998,2320.304,98.0
999,2322.409,98.0
1000,2324.514,99.0
1001,2326.617,99.0
1002,2328.720,98.0
1003,2330.822,99.0
1004,2332.923,99.0
1005,2335.024,99.0
1006,2337.123,99.0
1007,2339.222,99.0
1008,2341.320,97.0
1009,2343.418,97.0
1010,2345.514,97.0
1011,2347.610,97.0
1012,2349.705,97.0
1013,2351.800,98.0
1014,2353.893,98.0
1015,2355.986,98.0
1016,2358.078,98.0
1017,2360.170,98.0
1018,2362.260,98.0
1019,2364.350,97.0
1020,2366.439,98.0
1021,2368.527,97.0
1022,2370.615,97.0
1023,2372.702,97.0
