pixel_index,raman_shift_cm-1,intensity
0,-224.846,98.0
1,-221.778,98.0
2,-218.712,98.0
3,-215.647,98.0
4,-212.583,100.0
5,-209.521,97.0
6,-206.460,99.0
7,-203.399,98.0
8,-200.340,98.0
9,-197.283,98.0
10,-194.226,99.0
11,-191.171,98.0
12,-188.116,99.0
13,-185.064,98.0
14,-182.012,99.0
15,-178.961,97.0
16,-175.912,97.0
17,-172.864,99.0
18,-169.817,97.0
19,-166.771,98.0
20,-163.726,97.0
21,-160.683,98.0
22,-157.641,97.0
23,-154.600,100.0
24,-151.560,98.0
25,-148.521,99.0
26,-145.484,97.0
27,-142.447,97.0
28,-139.412,99.0
29,-136.379,99.0
30,-133.346,97.0
31,-130.314,98.0
32,-127.284,99.0
33,-124.255,98.0
34,-121.227,96.0
35,-118.200,96.0
36,-115.175,99.0
37,-112.150,97.0
38,-109.127,97.0
39,-106.105,97.0
40,-103.084,99.0
41,-100.065,97.0
42,-97.046,100.0
43,-94.029,97.0
44,-91.013,98.0
45,-87.998,97.0
46,-84.984,97.0
47,-81.972,97.0
48,-78.960,99.0
49,-75.950,97.0
50,-72.941,97.0
51,-69.933,99.0
52,-66.927,98.0
53,-63.921,98.0
54,-60.917,101.0
55,-57.914,99.0
56,-54.912,98.0
57,-51.911,97.0
58,-48.912,99.0
59,-45.913,98.0
60,-42.916,96.0
61,-39.920,98.0
62,-36.925,96.0
63,-33.931,99.0
64,-30.939,100.0
65,-27.947,102.0
66,-24.957,102.0
67,-21.968,99.0
68,-18.980,96.0
69,-15.993,99.0
70,-13.008,97.0
71,-10.023,96.0
72,-7.040,98.0
73,-4.058,98.0
74,-1.077,97.0
75,1.903,96.0
76,4.881,98.0
77,7.859,98.0
78,10.835,99.0
79,13.810,99.0
80,16.784,99.0
81,19.757,99.0
82,22.728,98.0
83,25.699,97.0
84,28.668,99.0
85,31.636,98.0
86,34.603,96.0
87,37.569,97.0
88,40.534,97.0
89,43.497,98.0
90,46.460,98.0
91,49.421,99.0
92,52.381,99.0
93,55.340,99.0
94,58.297,98.0
95,61.254,99.0
96,64.209,97.0
97,67.164,99.0
98,70.117,98.0
99,73.069,98.0
100,76.020,98.0
101,78.969,98.0
102,81.918,96.0
103,84.865,98.0
104,87.811,98.0
105,90.757,99.0
106,93.700,100.0
107,96.643,98.0
108,99.585,99.0
109,102.525,98.0
110,105.465,99.0
111,108.403,99.0
112,111.340,99.0
113,114.276,100.0
114,117.211,98.0
115,120.144,99.0
116,123.077,99.0
117,126.008,96.0
118,128.938,98.0
119,131.868,99.0
120,134.795,101.0
121,137.722,99.0
122,140.648,101.0
123,143.572,98.0
124,146.496,99.0
125,149.418,97.0
126,152.339,98.0
127,155.259,98.0
128,158.178,98.0
129,161.096,100.0
130,164.012,99.0
131,166.928,99.0
132,169.842,99.0
133,172.755,100.0
134,175.667,97.0
135,178.578,99.0
136,181.488,97.0
137,184.397,99.0
138,187.304,100.0
139,190.211,97.0
140,193.116,98.0
141,196.020,99.0
142,198.923,98.0
143,201.825,100.0
144,204.726,100.0
145,207.625,98.0
146,210.524,98.0
147,213.421,99.0
148,216.318,101.0
149,219.213,98.0
150,222.107,99.0
151,225.000,99.0
152,227.891,99.0
153,230.782,99.0
154,233.672,98.0
155,236.560,99.0
156,239.447,98.0
157,242.333,99.0
158,245.218,99.0
159,248.102,99.0
160,250.985,98.0
161,253.867,100.0
162,256.748,98.0
163,259.627,99.0
164,262.505,98.0
165,265.383,99.0
166,268.259,100.0
167,271.134,98.0
168,274.008,99.0
169,276.880,100.0
170,279.752,99.0
171,282.623,99.0
172,285.492,99.0
173,288.360,99.0
174,291.228,98.0
175,294.094,100.0
176,296.959,98.0
177,299.823,99.0
178,302.685,97.0
179,305.547,101.0
180,308.408,99.0
181,311.267,98.0
182,314.126,98.0
183,316.983,97.0
184,319.839,101.0
185,322.694,100.0
186,325.548,99.0
187,328.401,99.0
188,331.253,100.0
189,334.103,101.0
190,336.953,97.0
191,339.801,100.0
192,342.649,100.0
193,345.495,99.0
194,348.340,101.0
195,351.184,98.0
196,354.027,100.0
197,356.869,99.0
198,359.709,100.0
199,362.549,100.0
200,365.388,99.0
201,368.225,99.0
202,371.061,97.0
203,373.897,101.0
204,376.731,100.0
205,379.564,98.0
206,382.396,98.0
207,385.227,99.0
208,388.057,99.0
209,390.885,98.0
210,393.713,98.0
211,396.539,100.0
212,399.365,100.0
213,402.189,97.0
214,405.012,99.0
215,407.835,100.0
216,410.656,99.0
217,413.476,98.0
218,416.295,99.0
219,419.112,100.0
220,421.929,99.0
221,424.745,100.0
222,427.559,98.0
223,430.373,100.0
224,433.185,98.0
225,435.996,99.0
226,438.807,98.0
227,441.616,97.0
228,444.424,99.0
229,447.231,99.0
230,450.037,99.0
231,452.842,99.0
232,455.645,100.0
233,458.448,98.0
234,461.250,97.0
235,464.050,98.0
236,466.849,99.0
237,469.648,99.0
238,472.445,99.0
239,475.241,99.0
240,478.036,98.0
241,480.830,100.0
242,483.623,98.0
243,486.415,101.0
244,489.206,99.0
245,491.996,100.0
246,494.784,100.0
247,497.572,104.0
248,500.358,104.0
249,503.144,108.0
250,505.928,112.0
251,508.712,112.0
252,511.494,116.0
253,514.275,106.0
254,517.055,101.0
255,519.834,101.0
256,522.612,99.0
257,525.389,100.0
258,528.165,98.0
259,530.940,101.0
260,533.713,99.0
261,536.486,99.0
262,539.257,99.0
263,542.028,99.0
264,544.797,100.0
265,547.566,99.0
266,550.333,100.0
267,553.099,99.0
268,555.864,99.0
269,558.629,102.0
270,561.392,100.0
271,564.154,99.0
272,566.915,98.0
273,569.674,100.0
274,572.433,100.0
275,575.191,99.0
276,577.948,100.0
277,580.703,98.0
278,583.458,98.0
279,586.211,101.0
280,588.964,99.0
281,591.715,98.0
282,594.466,99.0
283,597.215,100.0
284,599.963,97.0
285,602.710,97.0
286,605.457,99.0
287,608.202,98.0
288,610.946,98.0
289,613.689,97.0
290,616.431,100.0
291,619.172,99.0
292,621.911,99.0
293,624.650,100.0
294,627.388,99.0
295,630.125,98.0
296,632.860,100.0
297,635.595,97.0
298,638.328,99.0
299,641.061,98.0
300,643.792,100.0
301,646.523,99.0
302,649.252,99.0
303,651.980,99.0
304,654.708,100.0
305,657.434,99.0
306,660.159,99.0
307,662.883,99.0
308,665.606,100.0
309,668.328,99.0
310,671.049,98.0
311,673.769,99.0
312,676.488,99.0
313,679.206,97.0
314,681.923,99.0
315,684.639,98.0
316,687.354,100.0
317,690.067,99.0
318,692.780,99.0
319,695.492,99.0
320,698.202,100.0
321,700.912,97.0
322,703.621,97.0
323,706.328,97.0
324,709.035,96.0
325,711.740,98.0
326,714.444,97.0
327,717.148,101.0
328,719.850,99.0
329,722.552,98.0
330,725.252,99.0
331,727.951,99.0
332,730.649,98.0
333,733.347,99.0
334,736.043,98.0
335,738.738,99.0
336,741.432,99.0
337,744.125,99.0
338,746.817,98.0
339,749.508,99.0
340,752.198,101.0
341,754.887,98.0
342,757.575,100.0
343,760.262,100.0
344,762.948,101.0
345,765.633,98.0
346,768.317,99.0
347,770.999,99.0
348,773.681,100.0
349,776.362,98.0
350,779.042,97.0
351,781.720,99.0
352,784.398,99.0
353,787.075,100.0
354,789.751,98.0
355,792.425,100.0
356,795.099,99.0
357,797.771,99.0
358,800.443,99.0
359,803.114,98.0
360,805.783,98.0
361,808.452,99.0
362,811.119,100.0
363,813.786,101.0
364,816.451,100.0
365,819.116,99.0
366,821.779,100.0
367,824.442,100.0
368,827.103,99.0
369,829.763,99.0
370,832.423,99.0
371,835.081,99.0
372,837.739,99.0
373,840.395,99.0
374,843.050,100.0
375,845.705,100.0
376,848.358,98.0
377,851.010,99.0
378,853.662,99.0
379,856.312,98.0
380,858.961,98.0
381,861.610,99.0
382,864.257,99.0
383,866.903,100.0
384,869.549,99.0
385,872.193,101.0
386,874.836,100.0
387,877.478,101.0
388,880.120,99.0
389,882.760,100.0
390,885.399,100.0
391,888.037,100.0
392,890.675,99.0
393,893.311,99.0
394,895.946,99.0
395,898.580,99.0
396,901.214,101.0
397,903.846,101.0
398,906.477,99.0
399,909.107,99.0
400,911.737,100.0
401,914.365,100.0
402,916.992,99.0
403,919.618,100.0
404,922.244,99.0
405,924.868,100.0
406,927.491,97.0
407,930.113,98.0
408,932.735,100.0
409,935.355,100.0
410,937.974,98.0
411,940.592,99.0
412,943.210,99.0
413,945.826,100.0
414,948.441,100.0
415,951.056,99.0
416,953.669,102.0
417,956.281,100.0
418,958.893,99.0
419,961.503,99.0
420,964.112,99.0
421,966.721,99.0
422,969.328,100.0
423,971.935,99.0
424,974.540,99.0
425,977.144,99.0
426,979.748,101.0
427,982.350,100.0
428,984.952,101.0
429,987.552,99.0
430,990.152,99.0
431,992.750,100.0
432,995.348,100.0
433,997.944,98.0
434,1000.540,99.0
435,1003.134,100.0
436,1005.728,99.0
437,1008.321,100.0
438,1010.912,99.0
439,1013.503,100.0
440,1016.092,99.0
441,1018.681,101.0
442,1021.269,99.0
443,1023.856,99.0
444,1026.441,98.0
445,1029.026,99.0
446,1031.610,98.0
447,1034.193,97.0
448,1036.775,100.0
449,1039.355,99.0
450,1041.935,99.0
451,1044.514,102.0
452,1047.092,100.0
453,1049.669,100.0
454,1052.245,99.0
455,1054.820,98.0
456,1057.394,99.0
457,1059.967,98.0
458,1062.539,99.0
459,1065.110,98.0
460,1067.681,99.0
461,1070.250,100.0
462,1072.818,100.0
463,1075.385,99.0
464,1077.951,97.0
465,1080.517,100.0
466,1083.081,98.0
467,1085.644,99.0
468,1088.207,100.0
469,1090.768,101.0
470,1093.329,100.0
471,1095.888,100.0
472,1098.447,99.0
473,1101.004,98.0
474,1103.561,100.0
475,1106.116,99.0
476,1108.671,99.0
477,1111.225,99.0
478,1113.777,98.0
479,1116.329,98.0
480,1118.880,101.0
481,1121.430,99.0
482,1123.979,99.0
483,1126.527,99.0
484,1129.074,99.0
485,1131.620,100.0
486,1134.165,100.0
487,1136.709,99.0
488,1139.252,100.0
489,1141.794,101.0
490,1144.335,99.0
491,1146.875,99.0
492,1149.415,101.0
493,1151.953,99.0
494,1154.490,99.0
495,1157.027,101.0
496,1159.562,100.0
497,1162.097,100.0
498,1164.630,98.0
499,1167.163,99.0
500,1169.695,101.0
501,1172.225,98.0
502,1174.755,99.0
503,1177.284,100.0
504,1179.812,99.0
505,1182.338,98.0
506,1184.864,99.0
507,1187.389,102.0
508,1189.913,102.0
509,1192.436,101.0
510,1194.959,99.0
511,1197.480,99.0
512,1200.000,100.0
513,1202.519,100.0
514,1205.038,100.0
515,1207.555,102.0
516,1210.071,101.0
517,1212.587,102.0
518,1215.101,100.0
519,1217.615,100.0
520,1220.128,99.0
521,1222.639,99.0
522,1225.150,102.0
523,1227.660,101.0
524,1230.169,100.0
525,1232.677,102.0
526,1235.184,102.0
527,1237.690,101.0
528,1240.195,98.0
529,1242.699,100.0
530,1245.202,101.0
531,1247.704,99.0
532,1250.206,100.0
533,1252.706,100.0
534,1255.206,100.0
535,1257.704,102.0
536,1260.202,102.0
537,1262.698,100.0
538,1265.194,99.0
539,1267.689,99.0
540,1270.183,102.0
541,1272.676,100.0
542,1275.168,101.0
543,1277.659,102.0
544,1280.149,103.0
545,1282.638,102.0
546,1285.126,102.0
547,1287.613,102.0
548,1290.100,101.0
549,1292.585,101.0
550,1295.070,100.0
551,1297.553,101.0
552,1300.036,102.0
553,1302.517,102.0
554,1304.998,100.0
555,1307.478,103.0
556,1309.957,100.0
557,1312.435,102.0
558,1314.912,102.0
559,1317.388,103.0
560,1319.863,103.0
561,1322.337,102.0
562,1324.811,103.0
563,1327.283,102.0
564,1329.755,103.0
565,1332.225,102.0
566,1334.695,103.0
567,1337.163,103.0
568,1339.631,103.0
569,1342.098,104.0
570,1344.564,99.0
571,1347.029,104.0
572,1349.493,103.0
573,1351.956,104.0
574,1354.418,102.0
575,1356.880,103.0
576,1359.340,102.0
577,1361.800,102.0
578,1364.258,104.0
579,1366.716,102.0
580,1369.172,101.0
581,1371.628,99.0
582,1374.083,100.0
583,1376.537,102.0
584,1378.990,101.0
585,1381.442,102.0
586,1383.893,100.0
587,1386.344,100.0
588,1388.793,100.0
589,1391.241,99.0
590,1393.689,99.0
591,1396.135,99.0
592,1398.581,101.0
593,1401.026,100.0
594,1403.470,98.0
595,1405.913,100.0
596,1408.355,100.0
597,1410.796,99.0
598,1413.236,102.0
599,1415.675,100.0
600,1418.114,99.0
601,1420.551,102.0
602,1422.988,99.0
603,1425.423,100.0
604,1427.858,102.0
605,1430.292,100.0
606,1432.725,101.0
607,1435.157,99.0
608,1437.588,102.0
609,1440.018,99.0
610,1442.447,99.0
611,1444.876,100.0
612,1447.303,101.0
613,1449.730,101.0
614,1452.156,102.0
615,1454.580,103.0
616,1457.004,103.0
617,1459.427,100.0
618,1461.849,101.0
619,1464.270,102.0
620,1466.690,103.0
621,1469.110,102.0
622,1471.528,99.0
623,1473.946,100.0
624,1476.362,101.0
625,1478.778,99.0
626,1481.193,101.0
627,1483.607,99.0
628,1486.020,100.0
629,1488.432,99.0
630,1490.843,99.0
631,1493.253,101.0
632,1495.663,99.0
633,1498.071,101.0
634,1500.479,96.0
635,1502.886,99.0
636,1505.292,100.0
637,1507.697,99.0
638,1510.101,98.0
639,1512.504,97.0
640,1514.906,98.0
641,1517.307,100.0
642,1519.708,99.0
643,1522.107,99.0
644,1524.506,98.0
645,1526.904,98.0
646,1529.301,101.0
647,1531.697,101.0
648,1534.092,100.0
649,1536.486,100.0
650,1538.879,99.0
651,1541.272,100.0
652,1543.663,98.0
653,1546.054,100.0
654,1548.444,98.0
655,1550.832,100.0
656,1553.220,100.0
657,1555.607,100.0
658,1557.994,99.0
659,1560.379,100.0
660,1562.763,100.0
661,1565.147,100.0
662,1567.529,99.0
663,1569.911,100.0
664,1572.292,100.0
665,1574.672,98.0
666,1577.051,99.0
667,1579.429,98.0
668,1581.807,100.0
669,1584.183,101.0
670,1586.559,100.0
671,1588.933,98.0
672,1591.307,99.0
673,1593.680,99.0
674,1596.052,100.0
675,1598.423,99.0
676,1600.794,100.0
677,1603.163,97.0
678,1605.531,101.0
679,1607.899,100.0
680,1610.266,100.0
681,1612.632,99.0
682,1614.997,99.0
683,1617.361,99.0
684,1619.724,99.0
685,1622.086,98.0
686,1624.448,99.0
687,1626.808,100.0
688,1629.168,100.0
689,1631.527,98.0
690,1633.885,100.0
691,1636.242,98.0
692,1638.598,101.0
693,1640.954,101.0
694,1643.308,98.0
695,1645.662,99.0
696,1648.014,99.0
697,1650.366,99.0
698,1652.717,98.0
699,1655.067,98.0
700,1657.417,100.0
701,1659.765,99.0
702,1662.112,99.0
703,1664.459,99.0
704,1666.805,100.0
705,1669.150,99.0
706,1671.494,98.0
707,1673.837,100.0
708,1676.179,101.0
709,1678.520,101.0
710,1680.861,98.0
711,1683.201,99.0
712,1685.539,99.0
713,1687.877,99.0
714,1690.214,99.0
715,1692.551,99.0
716,1694.886,99.0
717,1697.220,97.0
718,1699.554,99.0
719,1701.887,99.0
720,1704.219,99.0
721,1706.550,97.0
722,1708.880,99.0
723,1711.209,98.0
724,1713.537,102.0
725,1715.865,100.0
726,1718.192,99.0
727,1720.518,97.0
728,1722.843,100.0
729,1725.167,98.0
730,1727.490,98.0
731,1729.812,99.0
732,1732.134,99.0
733,1734.455,99.0
734,1736.774,98.0
735,1739.093,102.0
736,1741.411,100.0
737,1743.729,97.0
738,1746.045,99.0
739,1748.361,98.0
740,1750.675,100.0
741,1752.989,97.0
742,1755.302,101.0
743,1757.614,101.0
744,1759.925,99.0
745,1762.236,98.0
746,1764.545,100.0
747,1766.854,99.0
748,1769.162,100.0
749,1771.469,101.0
750,1773.775,99.0
751,1776.080,99.0
752,1778.385,99.0
753,1780.688,100.0
754,1782.991,99.0
755,1785.293,100.0
756,1787.594,99.0
757,1789.894,99.0
758,1792.193,100.0
759,1794.492,101.0
760,1796.789,99.0
761,1799.086,100.0
762,1801.382,99.0
763,1803.677,100.0
764,1805.971,99.0
765,1808.265,99.0
766,1810.557,101.0
767,1812.849,101.0
768,1815.140,100.0
769,1817.430,99.0
770,1819.719,98.0
771,1822.007,100.0
772,1824.295,100.0
773,1826.581,99.0
774,1828.867,98.0
775,1831.152,99.0
776,1833.436,99.0
777,1835.719,100.0
778,1838.002,97.0
779,1840.283,98.0
780,1842.564,99.0
781,1844.844,99.0
782,1847.123,99.0
783,1849.401,100.0
784,1851.678,100.0
785,1853.955,101.0
786,1856.231,99.0
787,1858.506,99.0
788,1860.780,99.0
789,1863.053,97.0
790,1865.325,100.0
791,1867.597,99.0
792,1869.867,98.0
793,1872.137,100.0
794,1874.406,101.0
795,1876.674,99.0
796,1878.941,100.0
797,1881.208,98.0
798,1883.473,100.0
799,1885.738,100.0
800,1888.002,100.0
801,1890.265,99.0
802,1892.528,99.0
803,1894.789,100.0
804,1897.050,100.0
805,1899.310,98.0
806,1901.569,99.0
807,1903.827,100.0
808,1906.084,99.0
809,1908.340,100.0
810,1910.596,98.0
811,1912.851,102.0
812,1915.105,100.0
813,1917.358,99.0
814,1919.610,98.0
815,1921.862,100.0
816,1924.113,101.0
817,1926.362,99.0
818,1928.611,101.0
819,1930.860,99.0
820,1933.107,100.0
821,1935.353,100.0
822,1937.599,98.0
823,1939.844,100.0
824,1942.088,99.0
825,1944.331,100.0
826,1946.574,99.0
827,1948.815,99.0
828,1951.056,99.0
829,1953.296,100.0
830,1955.535,100.0
831,1957.773,103.0
832,1960.011,103.0
833,1962.248,103.0
834,1964.483,98.0
835,1966.718,99.0
836,1968.953,100.0
837,1971.186,99.0
838,1973.418,101.0
839,1975.650,98.0
840,1977.881,100.0
841,1980.111,97.0
842,1982.340,100.0
843,1984.569,99.0
844,1986.797,99.0
845,1989.023,98.0
846,1991.249,99.0
847,1993.474,100.0
848,1995.699,100.0
849,1997.922,100.0
850,2000.145,99.0
851,2002.367,99.0
852,2004.588,100.0
853,2006.808,99.0
854,2009.028,99.0
855,2011.246,98.0
856,2013.464,99.0
857,2015.681,99.0
858,2017.898,99.0
859,2020.113,100.0
860,2022.328,101.0
861,2024.541,99.0
862,2026.754,98.0
863,2028.966,100.0
864,2031.178,100.0
865,2033.388,99.0
866,2035.598,98.0
867,2037.807,99.0
868,2040.015,100.0
869,2042.222,100.0
870,2044.429,101.0
871,2046.634,100.0
872,2048.839,99.0
873,2051.043,99.0
874,2053.247,99.0
875,2055.449,100.0
876,2057.651,99.0
877,2059.851,102.0
878,2062.052,98.0
879,2064.251,97.0
880,2066.449,101.0
881,2068.647,99.0
882,2070.844,101.0
883,2073.040,98.0
884,2075.235,100.0
885,2077.429,99.0
886,2079.623,100.0
887,2081.815,101.0
888,2084.007,99.0
889,2086.199,98.0
890,2088.389,100.0
891,2090.579,98.0
892,2092.767,101.0
893,2094.955,99.0
894,2097.143,99.0
895,2099.329,98.0
896,2101.514,100.0
897,2103.699,99.0
898,2105.883,99.0
899,2108.066,100.0
900,2110.249,99.0
901,2112.430,98.0
902,2114.611,98.0
903,2116.791,98.0
904,2118.970,97.0
905,2121.149,100.0
906,2123.326,98.0
907,2125.503,99.0
908,2127.679,99.0
909,2129.854,100.0
910,2132.029,97.0
911,2134.202,98.0
912,2136.375,99.0
913,2138.547,100.0
914,2140.718,98.0
915,2142.889,102.0
916,2145.058,99.0
917,2147.227,102.0
918,2149.395,100.0
919,2151.563,101.0
920,2153.729,98.0
921,2155.895,100.0
922,2158.060,99.0
923,2160.224,99.0
924,2162.387,100.0
925,2164.550,98.0
926,2166.711,98.0
927,2168.872,100.0
928,2171.033,99.0
929,2173.192,99.0
930,2175.351,99.0
931,2177.508,100.0
932,2179.665,101.0
933,2181.822,98.0
934,2183.977,99.0
935,2186.132,100.0
936,2188.285,99.0
937,2190.439,100.0
938,2192.591,98.0
939,2194.742,99.0
940,2196.893,99.0
941,2199.043,99.0
942,2201.192,100.0
943,2203.341,100.0
944,2205.488,98.0
945,2207.635,100.0
946,2209.781,99.0
947,2211.926,99.0
948,2214.071,99.0
949,2216.214,99.0
950,2218.357,99.0
951,2220.499,97.0
952,2222.641,100.0
953,2224.781,99.0
954,2226.921,99.0
955,2229.060,100.0
956,2231.198,100.0
957,2233.336,101.0
958,2235.472,97.0
959,2237.608,99.0
960,2239.743,101.0
961,2241.878,99.0
962,2244.011,100.0
963,2246.144,100.0
964,2248.276,99.0
965,2250.407,100.0
966,2252.538,98.0
967,2254.667,100.0
968,2256.796,97.0
969,2258.924,99.0
970,2261.052,99.0
971,2263.178,101.0
972,2265.304,100.0
973,2267.429,99.0
974,2269.553,99.0
975,2271.677,99.0
976,2273.800,99.0
977,2275.921,99.0
978,2278.043,99.0
979,2280.163,99.0
980,2282.283,101.0
981,2284.401,98.0
982,2286.520,99.0
983,2288.637,99.0
984,2290.753,101.0
985,2292.869,100.0
986,2294.984,99.0
987,2297.098,99.0
988,2299.212,101.0
989,2301.325,99.0
990,2303.437,99.0
991,2305.548,99.0
992,2307.658,100.0
993,2309.768,97.0
994,2311.877,101.0
995,2313.985,100.0
996,2316.092,101.0
997,2318.199,99.0
998,2320.304,99.0
999,2322.409,101.0
1000,2324.514,100.0
1001,2326.617,99.0
1002,2328.720,100.0
1003,2330.822,100.0
1004,2332.923,99.0
1005,2335.024,98.0
1006,2337.123,99.0
1007,2339.222,99.0
1008,2341.320,99.0
1009,2343.418,97.0
1010,2345.514,99.0
1011,2347.610,99.0
1012,2349.705,98.0
1013,2351.800,100.0
1014,2353.893,101.0
1015,2355.986,99.0
1016,2358.078,101.0
1017,2360.170,100.0
1018,2362.260,98.0
1019,2364.350,101.0
1020,2366.439,99.0
1021,2368.527,98.0
1022,2370.615,99.0
1023,2372.702,100.0
