# kind,background_subtracted
# version_label,v1_01
# poly_order,5
# iterations_run,7
pixel_index,raman_shift_cm-1,intensity,background_intensity
0,-224.846,0.8223784718310156,96.17762152816898
1,-221.778,1.8092963805262912,96.19070361947371
2,-218.712,1.7961674569449997,96.203832543055
3,-215.647,2.782992061069706,96.2170079389303
4,-212.583,1.7697705519615567,96.23022944803844
5,-209.521,1.7565032877611344,96.24349671223887
6,-206.460,1.743190625689195,96.2568093743108
7,-203.399,1.72983292204745,96.27016707795255
8,-200.340,3.716430532219377,96.28356946778062
9,-197.283,1.7029838106709434,96.29701618932906
10,-194.226,0.0,96.31050688904855
11,-191.171,1.6759587856942346,96.32404121430577
12,-188.116,0.6623811866175515,96.33761881338245
13,-185.064,2.648760664525227,96.35123933547477
14,-182.012,1.635097569307547,96.36490243069245
15,-178.961,1.6213922499419766,96.37860775005802
16,-175.912,1.6076450544939718,96.39235494550603
17,-172.864,3.593856330117717,96.40614366988228
18,-169.817,1.5800264230569354,96.41997357694306
19,-166.771,2.5661556786456856,96.43384432135431
20,-163.726,1.5522444413090852,96.44775555869091
21,-160.683,0.0,96.46170694543586
22,-157.641,2.52430186102049,96.47569813897951
23,-154.600,1.5102712023812046,96.4897287976188
24,-151.560,0.0,96.50379858055642
25,-148.521,1.4820928520998677,96.51790714790013
26,-145.484,1.4679458393380997,96.5320541606619
27,-142.447,0.4537607192428652,96.54623928075713
28,-139.412,1.4395378289960377,96.56046217100396
29,-136.379,1.4252775048776272,96.57472249512237
30,-133.346,0.41098008226649085,96.58901991773351
31,-130.314,2.3966458956411856,96.60335410435881
32,-127.284,0.38227527858066424,96.61772472141934
33,-124.255,1.3678685637651427,96.63213143623486
34,-121.227,0.3534260829767817,96.64657391702322
35,-118.200,0.3389481671005683,96.66105183289943
36,-115.175,0.3244351461249977,96.675564853875
37,-112.150,1.3098873491429117,96.69011265085709
38,-109.127,0.29530510435229473,96.7046948956477
39,-106.105,2.280688739056984,96.71931126094302
40,-103.084,0.26603857966750866,96.73396142033249
41,-100.065,1.2513549517018276,96.74864504829817
42,-97.046,1.236638179786155,96.76336182021385
43,-94.029,2.221888587655698,96.7781114123443
44,-91.013,1.2071064981554258,96.79289350184457
45,-87.998,0.0,96.80770776675908
46,-84.984,3.177446113979073,96.82255388602093
47,-81.972,5.162568460548897,96.8374315394511
48,-78.960,1.1476595922423343,96.85234040775767
49,-75.950,0.13271982746498168,96.86728017253502
50,-72.941,0.0,96.88225051626307
51,-69.933,1.1027488776934433,96.89725112230656
52,-66.927,1.0877183250858877,96.91228167491411
53,-63.921,0.07265814078236588,96.92734185921763
54,-60.917,1.057568638768572,96.94243136123143
55,-57.914,0.042450132148559305,96.95754986785144
56,-54.912,0.02730293314552057,96.97269706685448
57,-51.911,0.012127353102556526,96.98787264689744
58,-48.912,0.0,97.00307629751654
59,-45.913,0.0,97.01830770912652
60,-42.916,0.0,97.03356657301987
61,-39.920,0.0,97.04885258136602
62,-36.925,0.9358345727893465,97.06416542721065
63,-33.931,1.9204951955251772,97.07950480447482
64,-30.939,3.9051295920457676,97.09487040795423
65,-27.947,1.8897380666815877,97.11026193331841
66,-24.957,6.874320922889993,97.12567907711001
67,-21.968,1.8588784632560476,97.14112153674395
68,-18.980,0.0,97.15658901050668
69,-15.993,0.0,97.17208119755536
70,-13.008,1.8124022020828505,97.18759779791715
71,-10.023,0.7968614875116202,97.20313851248838
72,-7.040,0.0,97.21870304303377
73,-4.058,0.0,97.23429109218566
74,-1.077,0.0,97.24990236344325
75,1.903,2.7344634388282003,97.2655365611718
76,4.881,0.7188066093981575,97.28119339060184
77,7.859,1.7031274421715636,97.29687255782844
78,10.835,1.6874262301896295,97.31257376981037
79,13.810,1.67170326563064,97.32829673436936
80,16.784,1.655958839810694,97.3440411601893
81,19.757,0.6401932431845125,97.35980675681549
82,22.728,0.6244067653461656,97.37559323465383
83,25.699,0.0,97.39140030497005
84,28.668,0.5927723201110666,97.40722767988893
85,31.636,1.5769249276064414,97.42307507239356
86,34.603,0.0,97.43894219632448
87,37.569,0.0,97.45482876637897
88,40.534,0.0,97.47073449811023
89,43.497,0.0,97.48665910792666
90,46.460,0.0,97.502602313091
91,49.421,1.4814361682803963,97.5185638317196
92,52.381,0.46545661721833653,97.53454338278166
93,55.340,1.4494593139016274,97.55054068609837
94,58.297,0.0,97.56655546234224
95,61.254,0.41741256696377604,97.58258743303622
96,64.209,1.4013636794470017,97.598636320553
97,67.164,0.0,97.61470184811417
98,70.117,1.3692162602105071,97.63078373978949
99,73.069,2.353118279503917,97.64688172049608
100,76.020,0.0,97.66299551599765
101,78.969,1.320875147096288,97.67912485290371
102,81.918,1.3047305413311818,97.69526945866882
103,84.865,2.288570938408199,97.7114290615918
104,87.811,1.272396609185094,97.7276033908149
105,90.757,0.2562078236768599,97.74379217632314
106,93.700,2.240004851056625,97.75999514894337
107,96.643,2.223787959656363,97.77621204034364
108,99.585,1.2075574169676742,97.79244258303233
109,102.525,2.1913134896425817,97.80868651035742
110,105.465,1.1750564434943556,97.82494355650564
111,108.403,2.1587865434981666,97.84121345650183
112,111.340,0.1425040537920097,97.85749594620799
113,114.276,2.1262092376774007,97.8737907623226
114,117.211,0.10990235762012901,97.89009764237987
115,120.144,1.0935836752511534,97.90641632474885
116,123.077,2.077253451367227,97.92274654863277
117,126.008,2.0609119459318066,97.9390880540682
118,128.938,0.0,97.95544058192421
119,131.868,1.028196126098237,97.97180387390176
120,134.795,2.011822327467229,97.98817767253277
121,137.722,0.0,98.00456172117937
122,140.648,3.9790442359668106,98.02095576403319
123,143.572,0.9626404538854985,98.0373595461145
124,146.496,1.946227186728521,98.05377281327148
125,149.418,0.9298046878205923,98.07019531217941
126,152.339,2.9133732096600795,98.08662679033992
127,155.259,0.8969330039197985,98.1030669960802
128,158.178,0.8804843214478097,98.11951567855219
129,161.096,2.864027412268129,98.13597258773187
130,164.012,2.84756252558158,98.15243747441842
131,166.928,0.831089909766547,98.16891009023345
132,169.842,0.814609812379743,98.18539018762026
133,172.755,0.798122480157005,98.201877519843
134,175.667,4.781628159014062,98.21837184098594
135,178.578,0.7651270940473012,98.2348729059527
136,181.488,4.748619529534608,98.25138047046539
137,184.397,0.0,98.26789429106395
138,187.304,0.7155858748947281,98.28441412510527
139,190.211,0.0,98.30093973076245
140,193.116,1.6825291329759722,98.31747086702403
141,196.020,0.6659927063067954,98.3340072936932
142,198.923,0.0,98.35054877138703
143,201.825,0.6329049384643497,98.36709506153565
144,204.726,3.6163540736184387,98.38364592638156
145,207.625,1.5997988710212496,98.40020112897875
146,210.524,1.5832395668080181,98.41676043319198
147,213.421,1.5666763963040182,98.43332360369598
148,216.318,1.550109594025301,98.4498904059747
149,219.213,0.5335393936795185,98.46646060632048
150,222.107,1.5169660281666637,98.48303397183334
151,225.000,0.0,98.49961027042012
152,227.891,2.4838107292062546,98.51618927079375
153,230.782,2.4672292575275065,98.5327707424725
154,233.672,0.4506455442209045,98.5493544557791
155,236.560,0.4340598181599091,98.56594018184009
156,239.447,0.4174723074150535,98.58252769258495
157,242.333,3.400883239254668,98.59911676074533
158,245.218,1.3842928401456902,98.61570715985431
159,248.102,2.367701335754404,98.6322986642456
160,250.985,1.351108950947264,98.64889104905274
161,253.867,3.3345159097916337,98.66548409020837
162,256.748,1.3179224355566106,98.68207756444339
163,259.627,1.3013287507137505,98.69867124928625
164,262.505,1.284735076937892,98.71526492306211
165,265.383,3.2681416351079235,98.73185836489208
166,268.259,2.251548645307537,98.74845135469246
167,271.134,0.23495632682605105,98.76504367317395
168,274.008,3.2183648981591375,98.78163510184086
169,276.880,1.2017745770096582,98.79822542299034
170,279.752,1.1851855802884046,98.8148144197116
171,282.623,0.1685981241148653,98.83140187588513
172,285.492,1.15201242381805,98.84798757618195
173,288.360,1.1354286939372429,98.86457130606276
174,291.228,1.118847148222784,98.88115285177722
175,294.094,3.1022679996368367,98.89773200036316
176,296.959,4.085691460354184,98.91430853964582
177,299.823,3.069117741763023,98.93088225823698
178,302.685,2.052547054465677,98.94745294553432
179,305.547,2.0359796082794617,98.96402039172054
180,308.408,1.0194156122373954,98.9805843877626
181,311.267,0.002855274589038004,98.99714472541096
182,314.126,2.986298802801187,99.01370119719881
183,316.983,1.9697464035587444,99.03025359644126
184,319.839,1.953198282765456,99.04680171723454
185,322.694,0.0,99.06334535445532
186,325.548,0.0,99.07988430375983
187,328.401,0.9035816384168811,99.09641836158312
188,331.253,2.887052674861735,99.11294732513826
189,334.103,1.8705290075843806,99.12947099241562
190,336.953,2.8540108378179667,99.14598916218203
191,339.801,2.837498366019986,99.16250163398001
192,342.649,2.820991791872956,99.17900820812704
193,345.495,0.0,99.19550868571469
194,348.340,1.787997131392089,99.21200286860791
195,351.184,1.7715094405557181,99.22849055944428
196,354.027,1.7550284383668497,99.24497156163315
197,356.869,1.7385543206451217,99.26144567935488
198,359.709,2.7220872824398867,99.27791271756011
199,362.549,1.7056275180310507,99.29437248196895
200,365.388,1.689175220929826,99.31082477907017
201,368.225,1.6727305838795132,99.32726941612049
202,371.061,2.6562937988562823,99.34370620114372
203,373.897,0.6398650570699402,99.36013494293006
204,376.731,2.623444548964727,99.37655545103527
205,379.564,1.607032464220083,99.39296753577992
206,382.396,1.5906289917514442,99.40937100824856
207,385.227,2.574234319710982,99.42576568028902
208,388.057,2.5578486354884546,99.44215136451155
209,390.885,3.5414721257118913,99.45852787428811
210,393.713,2.5251049762484428,99.47489502375156
211,396.539,2.50874737220515,99.49125262779485
212,399.365,2.4923994979296964,99.5076005020703
213,402.189,0.4760615370112191,99.52393846298878
214,405.012,3.4597336722810326,99.54026632771897
215,407.835,1.4434160858134675,99.55658391418653
216,410.656,2.4271089589266523,99.57289104107335
217,413.476,0.41081247218325245,99.58918752781675
218,416.295,1.394526805391223,99.60547319460878
219,419.112,0.37825213760470433,99.6217478623953
220,421.929,1.3619886471246616,99.63801135287534
221,424.745,0.3457365114997515,99.65426348850025
222,427.559,0.3294959075271038,99.6705040924729
223,430.373,1.3132670112530462,99.68673298874695
224,433.185,0.2970499979739003,99.7029500020261
225,435.996,1.2808450422368054,99.7191549577632
226,438.807,0.2646523178404294,99.73534768215957
227,441.616,1.2484719978358356,99.75152800216416
228,444.424,0.0,99.76769574547286
229,447.231,0.21614925947240238,99.7838507405276
230,450.037,1.2000071834843737,99.79999281651563
231,452.842,1.1838781966312126,99.81612180336879
232,455.645,1.1677624682373704,99.83223753176263
233,458.448,0.15166016688428385,99.84833983311572
234,461.250,1.1355714604111853,99.86442853958881
235,464.050,0.11949651591588406,99.88050348408412
236,466.849,0.10343549975554822,99.89656450024445
237,469.648,3.087388577547486,99.91261142245251
238,472.445,0.07135591416989939,99.9286440858301
239,475.241,0.055337673762693385,99.9446623262373
240,478.036,1.03933401972823,99.96066598027177
241,480.830,2.0233451147321375,99.97665488526786
242,483.623,1.0073711207040503,99.99262887929595
243,486.415,0.0,100.00858780116157
244,489.206,0.9754685095953164,100.02453149040468
245,491.996,0.9595402127010999,100.0404597872989
246,494.784,2.9436274671493408,100.05637253285066
247,497.572,2.927730431201482,100.07226956879852
248,500.358,5.911849262387719,100.08815073761228
249,503.144,8.89598411750768,100.10401588249232
250,505.928,12.880135152631283,100.11986484736872
251,508.712,12.864302523099497,100.1356974769005
252,511.494,12.848486383525042,100.15151361647496
253,514.275,6.832686887793315,100.16731311220668
254,517.055,2.816904189063038,100.18309581093696
255,519.834,3.801138439767101,100.1988615602329
256,522.612,2.7853897916133263,100.21461020838667
257,525.389,1.7696583955852532,100.23034160441475
258,528.165,0.7539444019429169,100.24605559805708
259,530.940,0.7382479602236032,100.2617520397764
260,533.713,1.722569219242672,100.27743078075733
261,536.486,1.7069083270942969,100.2930916729057
262,539.257,0.6912654311522459,100.30873456884775
263,542.028,2.6756406780707067,100.3243593219293
264,544.797,2.6600342137849964,100.339965786215
265,547.566,1.6444461835124144,100.35555381648759
266,550.333,0.0,100.37112326824706
267,553.099,0.6133260022901084,100.38667399770989
268,555.864,0.5977941381916736,100.40220586180833
269,558.629,0.5822812818105092,100.41771871818949
270,561.392,1.5667875747852804,100.43321242521472
271,564.154,1.551313158041296,100.4486868419587
272,566.915,0.5358581717912614,100.46414182820874
273,569.674,0.5204227555360603,100.47957724446394
274,572.433,0.505007048065508,100.49499295193449
275,575.191,1.4896111874591895,100.51038881254081
276,577.948,0.0,100.52576468891282
277,580.703,0.0,100.54112044438915
278,583.458,0.0,100.55645594301636
279,586.211,0.0,100.57177104954815
280,588.964,1.412934370555405,100.5870656294446
281,591.715,0.3976604511286439,100.60233954887136
282,594.466,1.3824073253010596,100.61759267469894
283,597.215,0.0,100.63282487450184
284,599.963,1.3519639834421753,100.64803601655782
285,602.710,1.3367740301528528,100.66322596984715
286,605.457,1.3216053959482537,100.67839460405175
287,608.202,2.3064582104455127,100.69354178955449
288,610.946,0.2913326025616527,100.70866739743835
289,613.689,0.27622870051428094,100.72377129948572
290,616.431,0.2611466318224984,100.7388533681775
291,619.172,1.2460865233075253,100.75391347669247
292,621.911,2.231048501093639,100.76895149890636
293,624.650,2.216032690608799,100.7839673093912
294,627.388,0.0,100.79896078341446
295,630.125,1.1860682030617227,100.81393179693828
296,632.860,0.17111977338127815,100.82888022661872
297,635.595,1.1561940501949977,100.843805949805
298,638.328,0.14129115546134585,100.85870884453865
299,641.061,2.126411210447216,100.87358878955278
300,643.792,0.11155433572872653,100.88844566427127
301,646.523,1.09672065119193,100.90327934880807
302,649.252,1.081910276033696,100.9180897239663
303,651.980,2.0671233287624204,100.93287667123758
304,654.708,0.05235992719885019,100.94764007280115
305,657.434,2.0376201884767795,100.96237981152322
306,660.159,0.02290422904394518,100.97709577095605
307,662.883,1.008212164662723,100.99178783533728
308,665.606,1.993544110410923,101.00645588958908
309,668.328,1.9789001806825866,101.02109981931741
310,671.049,0.0,101.03571951081126
311,673.769,1.9496851489581957,101.0503148510418
312,676.488,1.9351142723383248,101.06488572766168
313,679.206,0.0,101.07943202900414
314,681.923,2.9060463559175957,101.0939536440824
315,684.639,2.891549537411265,101.10845046258873
316,687.354,0.8770776251062387,101.12292237489376
317,690.067,0.0,101.13736927204563
318,692.780,0.0,101.15179104576926
319,695.492,0.8338124115344243,101.16618758846558
320,698.202,0.0,101.18055879321071
321,700.912,0.0,101.19490455375521
322,703.621,0.7907752354767013,101.2092247645233
323,706.328,1.7764806793879302,101.22351932061207
324,709.035,0.7622118822093142,101.23778811779069
325,711.740,1.747968947500354,101.25203105249965
326,714.444,0.7337519781500106,101.26624802184999
327,717.148,1.719561076377488,101.28043892362251
328,719.850,0.0,101.29460365626697
329,722.552,0.6912578810986361,101.30874211890136
330,725.252,1.6771457886889607,101.32285421131104
331,727.951,1.6630601660519204,101.33693983394808
332,730.649,0.649001112069655,101.35099888793034
333,733.347,0.6349687249591796,101.36503127504082
334,736.043,0.6209631022731941,101.3790368977268
335,738.738,3.606984340900908,101.39301565909909
336,741.432,0.5930325370687513,101.40696746293125
337,744.125,1.579107786341197,101.4208922136588
338,746.817,0.5652101836215309,101.43478981637847
339,749.508,2.551339823152631,101.44866017684737
340,752.198,1.5374967985177506,101.46250320148225
341,754.887,1.5236812026412707,101.47631879735873
342,757.575,1.5098931277895105,101.49010687221049
343,760.262,0.0,101.50386733442849
344,762.948,0.0,101.51760009306024
345,765.633,0.4686949421910498,101.53130505780895
346,768.317,0.4550178609672031,101.5449821390328
347,770.999,1.4413687522558405,101.55863124774416
348,773.681,2.427747704391223,101.57225229560878
349,776.362,2.414154805054963,101.58584519494504
350,779.042,0.4005901412768367,101.59940985872316
351,781.720,0.38705379943556295,101.61294620056444
352,784.398,1.3735458652595867,101.62645413474041
353,787.075,0.3600664238278455,101.63993357617215
354,789.751,0.0,101.65338444042948
355,792.425,0.0,101.66680664373011
356,795.099,0.0,101.68020010293895
357,797.771,2.3064352644327073,101.69356473556729
358,800.443,0.29309954022794216,101.70690045977206
359,803.114,1.2797928056450303,101.72020719435497
360,805.783,1.2665151412381874,101.73348485876181
361,808.452,0.0,101.74673337308163
362,811.119,1.2400473419540106,101.75995265804599
363,813.786,1.2268573649718633,101.77314263502814
364,816.451,2.2136967739577074,101.78630322604229
365,819.116,1.2005656462572034,101.7994343537428
366,821.779,0.0,101.81253594142338
367,824.442,2.17439208698363,101.82560791301637
368,827.103,0.16134980690807765,101.83865019309192
369,829.763,0.14833729314278798,101.85166270685721
370,832.423,2.1353546198442928,101.86464538015571
371,835.081,0.0,101.87759813946631
372,837.739,1.1094790880973022,101.8905209119027
373,840.395,1.0965863747876057,101.9034136252124
374,843.050,0.0,101.91627620777611
375,845.705,1.0708914113930774,101.92910858860692
376,848.358,3.058089302650515,101.94191069734948
377,851.010,2.0453175357207556,101.95468246427924
378,853.662,0.03257617969828175,101.96742382030172
379,856.312,2.0198653030483626,101.98013469695164
380,858.961,0.0071849736077780335,101.99281502639222
381,861.610,1.9945352585856142,102.00546474141439
382,864.257,1.981916224564074,102.01808377543593
383,866.903,0.0,102.0306720625008
384,869.549,0.0,102.04322953727834
385,872.193,0.9442438649375902,102.05575613506241
386,874.836,2.9317482082293083,102.06825179177069
387,877.478,0.9192835560561008,102.0807164439439
388,880.120,2.906849971255042,102.09315002874496
389,882.760,2.8944475160417227,102.10555248395828
390,885.399,0.0,102.11792374798893
391,888.037,1.86973624013811,102.13026375986189
392,890.675,0.8574275407787297,102.14257245922127
393,893.311,1.845150213670479,102.15484978632952
394,895.946,1.8329043179333269,102.16709568206667
395,898.580,0.820689912070506,102.1793100879295
396,901.214,0.0,102.19149294603082
397,903.846,0.7963558009013241,102.20364419909868
398,906.477,0.0,102.21576379047553
399,909.107,0.7721483358824344,102.22785166411757
400,911.737,1.7600922354061908,102.23990776459381
401,914.365,1.7480679629145754,102.25193203708542
402,916.992,0.0,102.26392442738491
403,919.618,3.7241151181046916,102.27588488189531
404,922.244,1.7121866523705762,102.28781334762942
405,924.868,3.7002902277909158,102.29970977220908
406,927.491,3.6884258961356693,102.31157410386433
407,930.113,1.676593708567367,102.32340629143263
408,932.735,3.664793715641892,102.33520628435811
409,935.355,2.653025967309219,102.34697403269078
410,937.974,2.641290512914253,102.35870948708575
411,940.592,1.62958740119754,102.37041259880246
412,943.210,2.617916680296105,102.3820833197039
413,945.826,1.6062783977442052,102.3937216022558
414,948.441,2.5946726004741265,102.40532739952587
415,951.056,3.5830993348169358,102.41690066518306
416,953.669,2.571558646503263,102.42844135349674
417,956.281,2.560050580664111,102.43994941933589
418,958.893,2.5485751818315805,102.45142481816842
419,961.503,0.5371324939397226,102.46286750606028
420,964.112,2.5257225603252635,102.47427743967474
421,966.721,1.514345423728372,102.48565457627163
422,969.328,1.5030011262934977,102.4969988737065
423,971.935,2.4916897095701103,102.50831029042989
424,974.540,0.4804112145134525,102.51958878548655
425,977.144,1.4691656814853928,102.53083431851461
426,979.748,4.457953150255136,102.54204684974486
427,982.350,3.4467736600000336,102.55322633999997
428,984.952,0.4356272493063784,102.56437275069362
429,987.552,0.42451395617013077,102.57548604382987
430,990.152,0.41343381799775614,102.58656618200224
431,992.750,0.4023868716069643,102.59761312839304
432,995.348,1.3913731532274909,102.60862684677251
433,997.944,1.3803926985019075,102.61960730149809
434,1000.540,0.36944554248637473,102.63055445751363
435,1003.134,0.0,102.64146828034856
436,1005.728,1.3476512638827671,102.65234873611723
437,1008.321,2.336804208481979,102.66319579151802
438,1010.912,0.32599058616740706,102.6740094138326
439,1013.503,1.315210429074881,102.68478957092512
440,1016.092,1.3044637687584668,102.69553623124153
441,1018.681,3.2937506361913194,102.70624936380868
442,1021.269,1.2830710617663925,102.71692893823361
443,1023.856,1.2724250752972353,102.72757492470276
444,1026.441,1.26181270601883,102.73818729398117
445,1029.026,2.251233982588275,102.74876601741173
446,1031.610,2.240688933085636,102.75931106691436
447,1034.193,2.2301775850146868,102.76982241498531
448,1036.775,2.219699965303718,102.78030003469628
449,1039.355,1.209256100306277,102.79074389969372
450,1041.935,0.0,102.80115398419801
451,1044.514,3.1884697369973196,102.81153026300268
452,1047.092,2.1781272885263405,102.82187271147366
453,1049.669,0.16781869445151187,102.83218130554849
454,1052.245,0.0,102.84245602173553
455,1054.820,2.1473031628868426,102.85269683711316
456,1057.394,3.1370962706709378,102.86290372932906
457,1059.967,3.1269233234006037,102.8730766765994
458,1062.539,1.1167843422919788,102.88321565770802
459,1065.110,0.10667934799424472,102.89332065200576
460,1067.681,2.09660836059048,102.90339163940952
461,1070.250,0.08657139959835547,102.91342860040164
462,1072.818,1.0765684839709593,102.92343151602904
463,1075.385,0.06659963209754949,102.93340036790245
464,1077.951,2.0566648618043786,102.94333513819562
465,1080.517,1.0467641903554181,102.95323580964458
466,1083.081,4.036897634453169,102.96310236554683
467,1085.644,0.027065210239442195,102.97293478976056
468,1088.207,0.017266933296127718,102.98273306670387
469,1090.768,4.007502818645946,102.99249718135405
470,1093.329,0.9977728807533168,103.00222711924668
471,1095.888,2.9880771335250103,103.01192286647499
472,1098.447,2.9784155903110303,103.02158440968897
473,1101.004,0.0,103.03121173609465
474,1103.561,0.0,103.04080483345328
475,1106.116,0.0,103.05036369008063
476,1108.671,0.9401117051538961,103.0598882948461
477,1111.225,0.9306213628279494,103.06937863717205
478,1113.777,0.921165292967089,103.07883470703291
479,1116.329,0.9117435050454787,103.08825649495452
480,1118.880,2.902356007986725,103.09764399201327
481,1121.430,0.8930028101646883,103.10699718983531
482,1123.979,0.8836839194041488,103.11631608059585
483,1126.527,2.8743993429816754,103.12560065701832
484,1129.074,0.0,103.1348509123736
485,1131.620,0.855933159520788,103.14406684047921
486,1134.165,0.0,103.15324843569866
487,1136.709,0.8376043070595216,103.16239569294048
488,1139.252,0.8284913923423858,103.17150860765761
489,1141.794,0.8194128241535026,103.1805871758465
490,1144.335,1.8103686059535704,103.18963139404643
491,1146.875,3.801358740661371,103.19864125933863
492,1149.415,0.0,103.20761676934559
493,1151.953,2.783442077769749,103.21655792223025
494,1154.490,2.7745352833048287,103.22546471669517
495,1157.027,2.765662848018138,103.23433715198186
496,1159.562,0.0,103.24317522786987
497,1162.097,2.7480210553238607,103.25197894467614
498,1164.630,2.739251696745896,103.2607483032541
499,1167.163,0.7305166950069832,103.26948330499302
500,1169.695,1.7218160481829017,103.2781839518171
501,1172.225,0.7131497538152303,103.28685024618477
502,1174.755,1.7045178089120867,103.29548219108791
503,1177.284,0.0,103.30407979005105
504,1179.812,2.687356952869422,103.31264304713058
505,1182.338,0.6788280330860061,103.321171966914
506,1184.864,1.6703334454808925,103.32966655451911
507,1187.389,2.66187318440673,103.33812681559327
508,1189.913,2.6534472436874097,103.34655275631259
509,1192.436,0.6450556166188335,103.35494438338117
510,1194.959,1.6366982959697083,103.36330170403029
511,1197.480,1.6283752739823285,103.37162472601767
512,1200.000,1.6200865423733148,103.37991345762669
513,1202.519,1.611832092334467,103.38816790766553
514,1205.038,3.6036119145334737,103.39638808546653
515,1207.555,1.5954259991147097,103.40457400088529
516,1210.071,1.5872743357000303,103.41272566429997
517,1212.587,2.5791569133895536,103.42084308661045
518,1215.101,0.5710737207624135,103.42892627923759
519,1217.615,3.56302474587757,103.43697525412243
520,1220.128,0.5550099762745475,103.44499002372545
521,1222.639,1.5470293989742459,103.45297060102575
522,1225.150,1.5390830004797351,103.46091699952026
523,1227.660,2.531170766776981,103.46882923322302
524,1230.169,3.5232926833356686,103.47670731666433
525,1232.677,3.515448735109956,103.48455126489004
526,1235.184,1.5076389065392704,103.49236109346073
527,1237.690,3.4998631815491024,103.5001368184509
528,1240.195,0.4921215435517041,103.5078784564483
529,1242.699,0.4844139754469978,103.515586024553
530,1245.202,0.47674045962322964,103.52325954037677
531,1247.704,0.46910097795783656,103.53089902204216
532,1250.206,1.4614955118181854,103.53850448818181
533,1252.706,0.0,103.54607595793767
534,1255.206,1.4463865490398433,103.55361345096016
535,1257.704,0.43888301259259777,103.5611169874074
536,1260.202,1.4314134120554627,103.56858658794454
537,1262.698,1.4239777262571778,103.57602227374282
538,1265.194,0.4165759335210879,103.58342406647891
539,1267.689,0.4092080116659105,103.59079198833409
540,1270.183,2.4018739380065455,103.59812606199345
541,1272.676,0.0,103.60542631064517
542,1275.168,0.3873072420203556,103.61269275797964
543,1277.659,1.3800745718111642,103.61992542818884
544,1280.149,3.372875654034658,103.62712434596534
545,1282.638,1.3657104634982318,103.63428953650177
546,1285.126,3.358578974510152,103.64142102548985
547,1287.613,0.35148116088032566,103.64851883911967
548,1290.100,1.3444169959210086,103.65558300407899
549,1292.585,2.337386452447703,103.6626135475523
550,1295.070,0.0,103.66961049722018
551,1297.553,0.32342611874152283,103.67657388125848
552,1300.036,2.316496271662487,103.68350372833751
553,1302.517,3.3095999323787026,103.6904000676213
554,1304.998,4.302737071233196,103.6972629287668
555,1307.478,3.295907658076885,103.70409234192311
556,1309.957,0.2891116622693062,103.7108883377307
557,1312.435,0.28234905267939325,103.7176509473206
558,1314.912,1.2756197976863035,103.7243802023137
559,1317.388,3.2689238651801276,103.73107613481987
560,1319.863,0.26226122256271367,103.73773877743729
561,1322.337,3.2556318367484636,103.74436816325154
562,1324.811,4.249035674165057,103.75096432583494
563,1327.283,0.24247270075426286,103.75752729924574
564,1329.755,3.2359428819727327,103.76405711802727
565,1332.225,1.229446182792742,103.77055381720726
566,1334.695,2.222982567702971,103.77701743229703
567,1337.163,0.2165520007093562,103.78344799929064
568,1339.631,0.0,103.78984555466423
569,1342.098,1.2037898646248664,103.79621013537513
570,1344.564,0.0,103.80254177886118
571,1347.029,1.191159476960138,103.80884052303986
572,1349.493,0.0,103.8151064063076
573,1351.956,2.1786605324610946,103.8213394675389
574,1354.418,1.1724602539143518,103.82753974608565
575,1356.880,0.0,103.83370728177628
576,1359.340,3.1601578850849705,103.83984211491503
577,1361.800,1.1540557137188614,103.84594428628114
578,1364.258,4.147986162871959,103.85201383712804
579,1366.716,2.1419491908173143,103.85805080918269
580,1369.172,3.1359447553553395,103.86405524464466
581,1371.628,1.1299728138145753,103.87002718618542
582,1374.083,1.1240333230524158,103.87596667694758
583,1376.537,3.1181262394559184,103.88187376054408
584,1378.990,3.112251518942614,103.88774848105739
585,1381.442,2.106409116961231,103.89359088303877
586,1383.893,2.100598988492507,103.89940101150749
587,1386.344,1.094821088049983,103.90517891195002
588,1388.793,1.089075369680728,103.91092463031927
589,1391.241,1.083361786966151,103.91663821303385
590,1393.689,2.0776802930228087,103.92231970697719
591,1396.135,3.072030840503132,103.92796915949687
592,1398.581,2.0664133815962344,103.93358661840377
593,1401.026,3.0608278680286816,103.93917213197132
594,1403.470,1.0552742510652706,103.94472574893473
595,1405.913,1.0497524815098274,103.95024751849017
596,1408.355,0.04426250970595902,103.95573749029404
597,1410.796,2.038804285537836,103.96119571446216
598,1413.236,2.0333777584310013,103.966622241569
599,1415.675,3.0279828773530966,103.9720171226469
600,1418.114,2.022619590814699,103.9773804091853
601,1420.551,1.0172878468700617,103.98271215312994
602,1422.988,3.011987593117894,103.9880124068821
603,1425.423,2.0067187767021863,103.99328122329781
604,1427.858,3.001481344312907,103.99851865568709
605,1430.292,0.9962752421868544,104.00372475781315
606,1432.725,1.9911004161084094,104.00889958389159
607,1435.157,0.0,104.01404318858971
608,1437.588,5.980844372974403,104.0191556270256
609,1440.018,0.9757630452325117,104.02423695476749
610,1442.447,0.0,104.02928722783287
611,1444.876,0.0,104.03430650268777
612,1447.303,2.960705163754028,104.03929483624597
613,1449.730,2.955747714131803,104.0442522858682
614,1452.156,0.9508210906386125,104.04917890936139
615,1454.580,0.0,104.05407476497786
616,1457.004,0.9410600885854166,104.05893991141458
617,1459.427,0.0,104.06377440781236
618,1461.849,0.9314216862449456,104.06857831375505
619,1464.270,0.926648310731153,104.07335168926885
620,1466.690,1.9219054051785776,104.07809459482142
621,1469.110,0.9171929086788282,104.08280709132117
622,1471.528,0.0,104.08748924011648
623,1473.946,2.907858897005113,104.09214110299489
624,1476.362,1.903237257817679,104.09676274218232
625,1478.778,2.89864577965767,104.10135422034233
626,1481.193,0.8940843994246848,104.10591560057532
627,1483.607,3.8895530535822758,104.11044694641772
628,1486.020,2.8850516781587032,104.1149483218413
629,1488.432,1.8805802087477588,104.11941979125224
630,1490.843,1.876138580509462,104.12386141949054
631,1493.253,1.8717267281709553,104.12827327182904
632,1495.663,1.8673445860271443,104.13265541397286
633,1498.071,2.862992087941592,104.13700791205841
634,1500.479,0.0,104.14133083265274
635,1502.886,0.8543757572472543,104.14562424275275
636,1505.292,0.0,104.14988820978432
637,1507.697,1.8458771983983127,104.15412280160169
638,1510.101,0.8416719135134656,104.15832808648653
639,1512.504,0.8374958668527768,104.16250413314722
640,1514.906,0.0,104.1666510107181
641,1517.307,1.829231211241364,104.17076878875864
642,1519.708,0.8251424627472943,104.1748575372527
643,1522.107,0.0,104.17891732660773
644,1524.506,2.817051772346005,104.182948227654
645,1526.904,0.0,104.18695031164378
646,1529.301,0.0,104.19092365025067
647,1531.697,0.0,104.19486831556867
648,1534.092,0.0,104.19878438011155
649,1536.486,1.7973280831880487,104.20267191681195
650,1538.879,0.0,104.20653099902067
651,1541.272,0.7896382994941149,104.21036170050589
652,1543.663,1.7858359045476675,104.21416409545233
653,1546.054,1.7820617415394224,104.21793825846058
654,1548.444,2.7783157354538304,104.22168426454617
655,1550.832,1.7745978108610387,104.22540218913896
656,1553.220,0.7709078919177585,104.22909210808224
657,1555.607,2.7672459023680176,104.23275409763198
658,1557.994,1.7636117655439136,104.23638823445609
659,1560.379,0.0,104.23999459563358
660,1562.763,2.756426741346189,104.24357325865381
661,1565.147,0.0,104.24712430141575
662,1567.529,3.7493521977728506,104.25064780222715
663,1569.911,0.0,104.25414383980373
664,1572.292,1.7423875067314754,104.25761249326852
665,1574.672,1.7389461578490426,104.26105384215096
666,1577.051,0.7355320336138362,104.26446796638616
667,1579.429,1.7321450536858407,104.26785494631416
668,1581.807,1.7287851373208838,104.27121486267912
669,1584.183,0.7254522033715034,104.2745477966285
670,1586.559,1.7221461702876297,104.27785382971237
671,1588.933,2.718866956117438,104.28113304388256
672,1591.307,1.7156144785081011,104.2843855214919
673,1593.680,0.7123886547065581,104.28761134529344
674,1596.052,0.0,104.29081059843972
675,1598.423,0.706016635518111,104.29398336448189
676,1600.794,0.0,104.29712972736903
677,1603.163,1.6997502285527162,104.30024977144728
678,1605.531,0.6966564185408117,104.30334358145919
679,1607.899,2.693588757457235,104.30641124254277
680,1610.266,1.6905471597691388,104.30945284023086
681,1612.632,2.687531539549724,104.31246846045028
682,1614.997,0.6845418104789331,104.31545818952107
683,1617.361,2.6815778858443338,104.31842211415567
684,1619.724,1.6786396785417708,104.32136032145823
685,1622.086,1.6757271010762622,104.32427289892374
686,1624.448,0.0,104.32715993443729
687,1626.808,2.6699784837266805,104.33002151627332
688,1629.168,0.0,104.33285773309476
689,1631.527,3.664331326047659,104.33566867395234
690,1633.885,0.0,104.33845442828375
691,1636.242,2.6587849140870787,104.34121508591292
692,1638.598,4.6560492629508445,104.34395073704916
693,1640.954,1.653338527713558,104.34666147228644
694,1643.308,2.6506526173974123,104.34934738260259
695,1645.662,0.6479914406414338,104.35200855935857
696,1648.014,2.6453549057024333,104.35464509429757
697,1650.366,0.6427429204556177,104.35725707954438
698,1652.717,0.6401553923954992,104.3598446076045
699,1655.067,2.6375922286365636,104.36240777136344
700,1657.417,1.635053335914165,104.36494666408583
701,1659.765,0.0,104.3674613794148
702,1662.112,0.6300479886289452,104.36995201137105
703,1664.459,1.627581345647826,104.37241865435217
704,1666.805,1.6251385968681973,104.3748614031318
705,1669.150,1.622719647141082,104.37728035285892
706,1671.494,0.0,104.37967559905697
707,1673.837,3.617952762376831,104.38204723762317
708,1676.179,2.6156046351723177,104.38439536482768
709,1678.520,0.0,104.38672007731287
710,1680.861,0.6109785279075197,104.38902147209248
711,1683.201,1.6087003534491089,104.39129964655089
712,1685.539,0.0,104.3935546984423
713,1687.877,0.6042132741099806,104.39578672589002
714,1690.214,0.0,104.3979958273856
715,1692.551,0.5998178982118674,104.40018210178813
716,1694.886,0.5976543516765815,104.40234564832342
717,1697.220,2.5955134334167838,104.40448656658322
718,1699.554,1.5933950434755673,104.40660495652443
719,1701.887,4.591299081531602,104.4087009184684
720,1704.219,1.5892254468999454,104.41077455310005
721,1706.550,1.5871740385328508,104.41282596146715
722,1708.880,0.585144755020508,104.41485524497949
723,1711.209,1.5831374945918242,104.41686250540818
724,1713.537,2.5811521551152055,104.4188478448848
725,1715.865,1.5791886340993528,104.42081136590065
726,1718.192,0.5772468286940153,104.42275317130598
727,1720.518,0.0,104.4246733643092
728,1722.843,1.5734279515239251,104.42657204847607
729,1725.167,2.5715506722710018,104.428449327729
730,1727.490,2.5696946936538296,104.43030530634617
731,1729.812,2.5678599110391644,104.43214008896084
732,1732.134,3.566046219439471,104.43395378056053
733,1734.455,0.5642535135137905,104.43574648648621
734,1736.774,1.5624816875683933,104.4375183124316
735,1739.093,1.560730635557647,104.43926936444235
736,1741.411,0.5590002510847825,104.44099974891522
737,1743.729,2.5572904274026484,104.44270957259735
738,1746.045,0.5556010574144921,104.44439894258551
739,1748.361,1.5539320336747835,104.44606796632522
740,1750.675,0.0,104.44771675161006
741,1752.989,2.550654593419125,104.44934540658087
742,1755.302,2.5490459602750093,104.45095403972499
743,1757.614,1.5474572401246007,104.4525427598754
744,1759.925,2.5458883237899954,104.45411167621
745,1762.236,1.5443391017491024,104.4556608982509
746,1764.545,0.5428094641365391,104.45719053586346
747,1766.854,1.5412993007442708,104.45870069925573
748,1769.162,0.5398085010225486,104.46019149897745
749,1771.469,0.5383369540805063,104.4616630459195
750,1773.775,3.5368845486871265,104.46311545131287
751,1776.080,4.535451173271866,104.46454882672813
752,1778.385,0.0,104.46596328407449
753,1780.688,0.0,104.46735893559904
754,1782.991,0.0,104.46873589388602
755,1785.293,0.529905728143973,104.47009427185603
756,1787.594,0.5285658172348064,104.4714341827652
757,1789.894,2.527244259795509,104.47275574020449
758,1792.193,0.5259409419011263,104.47405905809887
759,1794.492,0.5246557492935011,104.4753442507065
760,1796.789,2.5233885673819714,104.47661143261803
761,1799.086,3.522139281244236,104.47786071875576
762,1801.382,1.5209077756270943,104.4790922243729
763,1803.677,1.5196939349472274,104.48030606505277
764,1805.971,2.5184976432919655,104.48150235670803
765,1808.265,0.0,104.48268121557989
766,1810.557,0.5161572417626701,104.48384275823733
767,1812.849,1.5150128984236346,104.48498710157637
768,1815.140,2.513885637180792,104.48611436281921
769,1817.430,1.5127753404865132,104.48722465951349
770,1819.719,1.5116818904684806,104.48831810953152
771,1822.007,0.0,104.48939483106952
772,1824.295,1.5095450573532077,104.49045494264679
773,1826.581,0.5085014368950453,104.49149856310495
774,1828.867,2.5074741883928198,104.49252581160718
775,1831.152,1.5064631923625882,104.49353680763741
776,1833.436,0.0,104.49453167099959
777,1835.719,2.50448947818316,104.49551052181684
778,1838.002,2.503526519469247,104.49647348053075
779,1840.283,1.5025793320994723,104.49742066790053
780,1842.564,0.5016477949977372,104.49835220500226
781,1844.844,2.5007317867718513,104.49926821322815
782,1847.123,2.4998311857143136,104.50016881428569
783,1849.401,2.49894586980308,104.50105413019692
784,1851.678,0.49807571670237394,104.50192428329763
785,1853.955,0.0,104.50277939623659
786,1856.231,1.4963804080252316,104.50361959197477
787,1858.506,0.49555500621544013,104.50444499378456
788,1860.780,0.4947442747510138,104.50525572524899
789,1863.053,0.4939480897390638,104.50605191026094
790,1865.325,0.493166326977601,104.5068336730224
791,1867.597,0.0,104.50760113804363
792,1869.867,1.4916455698575817,104.50835443014242
793,1872.137,1.4909063255566508,104.50909367444335
794,1874.406,0.4901810036230927,104.50981899637691
795,1876.674,0.4894694783212117,104.51053052167879
796,1878.941,0.488771623610873,104.51122837638913
797,1881.208,1.4880873131483838,104.51191268685162
798,1883.473,2.4874164202871185,104.51258357971288
799,1885.738,1.4867588180784281,104.51324118192157
800,1888.002,2.4861143792723652,104.51388562072763
801,1890.265,2.4854829763184654,104.51451702368153
802,1892.528,3.484864481366529,104.51513551863347
803,1894.789,0.48425876626740205,104.5157412337326
804,1897.050,0.4836657025737452,104.51633429742625
805,1899.310,2.4830851615408562,104.51691483845914
806,1901.569,0.0,104.51748298587265
807,1903.827,1.4819611309960692,104.51803886900393
808,1906.084,0.4814173825147634,104.51858261748524
809,1908.340,4.480885638756888,104.51911436124311
810,1910.596,0.48036576950242704,104.51963423049757
811,1912.851,3.4798576442386207,104.52014235576138
812,1915.105,0.0,104.52063886783924
813,1917.358,2.478876102173018,104.52112389782698
814,1919.610,0.4784024228891042,104.5215975771109
815,1921.862,1.4779399626331866,104.52206003736681
816,1924.113,2.4774885894405543,104.52251141055945
817,1926.362,0.47704817105849884,104.5229518289415
818,1928.611,0.0,104.523381425053
819,1930.860,1.4761996682795626,104.52380033172044
820,1933.107,0.0,104.52420868205604
821,1935.353,0.0,104.52460660945692
822,1937.599,0.47500575239558884,104.52499424760441
823,1939.844,2.4746282695368365,104.52537173046316
824,1942.088,0.0,104.52573919228044
825,1944.331,1.4739032324146422,104.52609676758536
826,1946.574,0.47355540881198976,104.52644459118801
827,1948.815,1.4732172018211998,104.5267827981788
828,1951.056,1.4728884760723986,104.5271115239276
829,1953.296,0.4725690959170379,104.52743090408296
830,1955.535,0.4722589254286049,104.5277410745714
831,1957.773,0.47195782840348954,104.52804217159651
832,1960.011,2.4716656683616662,104.52833433163833
833,1962.248,2.4713823085475894,104.52861769145241
834,1964.483,1.471107611930833,104.52889238806917
835,1966.718,0.4708414412069857,104.52915855879301
836,1968.953,5.47058365879839,104.52941634120161
837,1971.186,2.4703341268549224,104.52966587314508
838,1973.418,3.470092707254736,104.52990729274526
839,1975.650,2.4698592616050945,104.5301407383949
840,1977.881,4.469633651243129,104.53036634875687
841,1980.111,1.4694157372366163,104.53058426276338
842,1982.340,3.4692053803847642,104.53079461961524
843,1984.569,0.0,104.53099755878102
844,1986.797,0.0,104.53119321999635
845,1989.023,2.468618256736903,104.5313817432631
846,1991.249,2.4684367311514706,104.53156326884853
847,1993.474,1.4682620627153398,104.53173793728466
848,1995.699,0.0,104.53190588936738
849,1997.922,0.0,104.53206726615568
850,2000.145,1.4677777910290928,104.53222220897091
851,2002.367,1.4676291406040178,104.53237085939598
852,2004.588,3.467486640725383,104.53251335927462
853,2006.808,1.4673501492894871,104.53264985071051
854,2009.028,0.4672195239334087,104.53278047606659
855,2011.246,2.4670946220357592,104.53290537796424
856,2013.464,3.4669753007174933,104.5330246992825
857,2015.681,1.4668614168426757,104.53313858315732
858,2017.898,2.4667528270192633,104.53324717298074
859,2020.113,1.4666493875998583,104.53335061240014
860,2022.328,1.4665509546825604,104.53344904531744
861,2024.541,1.466457384111635,104.53354261588836
862,2026.754,0.0,104.53363146852162
863,2028.966,2.466284252121909,104.53371574787809
864,2031.178,0.4662044011298434,104.53379559887016
865,2033.388,1.4661288333391838,104.53387116666082
866,2035.598,3.4660574033370324,104.53394259666297
867,2037.807,2.465989965461418,104.53401003453858
868,2040.015,3.465926373802006,104.534073626198
869,2042.222,0.4658664822009655,104.53413351779903
870,2044.429,0.0,104.53418985574632
871,2046.634,2.4657572133095584,104.53424278669044
872,2048.839,3.465707542472785,104.53429245752721
873,2051.043,2.465660984603133,104.53433901539687
874,2053.247,3.465617392316716,104.53438260768328
875,2055.449,2.465576617986841,104.53442338201316
876,2057.651,2.465538513744633,104.53446148625537
877,2059.851,1.4655029314799606,104.53449706852004
878,2062.052,1.4654697228421583,104.53453027715784
879,2064.251,2.4654387392408097,104.53456126075919
880,2066.449,0.0,104.5345901681535
881,2068.647,1.46538285159167,104.53461714840833
882,2070.844,2.4653576491712954,104.5346423508287
883,2073.040,0.0,104.53466592495627
884,2075.235,2.4653119794314904,104.53468802056851
885,2077.429,0.46529121232201476,104.53470878767799
886,2079.623,0.4652716234684249,104.53472837653158
887,2081.815,2.4652530623903033,104.5347469376097
888,2084.007,1.4652353783745298,104.53476462162547
889,2086.199,0.46521842047603457,104.53478157952397
890,2088.389,1.4652020375185089,104.53479796248149
891,2090.579,2.4651860780953,104.5348139219047
892,2092.767,0.4651703905700799,104.53482960942992
893,2094.955,0.0,104.53484517692229
894,2097.143,2.4651392235249716,104.53486077647503
895,2099.329,0.0,104.53487656040865
896,2101.514,1.4651073187298351,104.53489268127016
897,2103.699,2.4650907081676934,104.5349092918323
898,2105.883,0.0,104.53492654509279
899,2108.066,2.465055405726531,104.53494459427347
900,2110.249,1.465036407180392,104.53496359281961
901,2112.430,1.4650163056009262,104.53498369439907
902,2114.611,1.4649949470984325,104.53500505290157
903,2116.791,2.4649721775621316,104.53502782243787
904,2118.970,2.4649478426609903,104.53505215733901
905,2121.149,2.4649217878444745,104.53507821215553
906,2123.326,0.0,104.53510614165668
907,2125.503,2.4648638991703393,104.53513610082966
908,2127.679,0.0,104.53516824487885
909,2129.854,1.4647972707750512,104.53520272922495
910,2132.029,1.4647602904956614,104.53523970950434
911,2134.202,0.46472065843184396,104.53527934156816
912,2136.375,2.4646782185183866,104.53532178148161
913,2138.547,0.4646328144768006,104.5353671855232
914,2140.718,1.4645842898161305,104.53541571018387
915,2142.889,0.4645324878337078,104.53546751216629
916,2145.058,3.464477251615918,104.53552274838408
917,2147.227,1.4644184240390246,104.53558157596098
918,2149.395,3.464355847769909,104.53564415223009
919,2151.563,1.4642893652668505,104.53571063473315
920,2153.729,1.4642188187803384,104.53578118121966
921,2155.895,2.464144050353795,104.5358559496462
922,2158.060,0.46406490182442894,104.53593509817557
923,2160.224,1.4639812148239315,104.53601878517607
924,2162.387,2.463892830779315,104.53610716922068
925,2164.550,2.4637995909136947,104.5362004090863
926,2166.711,1.4637013362470128,104.53629866375299
927,2168.872,0.4635979075968777,104.53640209240312
928,2171.033,2.4634891455793024,104.5365108544207
929,2173.192,0.0,104.53662510939051
930,2175.351,0.4632549829026402,104.53674501709736
931,2177.508,2.463129262474709,104.53687073752529
932,2179.665,2.4629975691431696,104.53700243085683
933,2181.822,0.4628597425278258,104.53714025747217
934,2183.977,2.462715622051576,104.53728437794842
935,2186.132,2.462565046941151,104.53743495305885
936,2188.285,3.4624078562279976,104.537592143772
937,2190.439,1.4622438887489437,104.53775611125106
938,2192.591,0.0,104.53792701685295
939,2194.742,0.0,104.53810502212765
940,2196.893,2.461709711182664,104.53829028881734
941,2199.043,1.4615170211443314,104.53848297885567
942,2201.192,0.0,104.53868325436696
943,2203.341,0.0,104.53889127766543
944,2205.488,2.4608927887456105,104.53910721125439
945,2207.635,2.4606687821744515,104.53933121782555
946,2209.781,2.4604365397418917,104.53956346025811
947,2211.926,2.4601958983818975,104.5398041016181
948,2214.071,1.4599466948424862,104.54005330515751
949,2216.214,1.4596887656864226,104.54031123431358
950,2218.357,0.45942194729198604,104.54057805270801
951,2220.499,1.4591460758538943,104.5408539241461
952,2222.641,1.4588609873839005,104.5411390126161
953,2224.781,3.458566517711674,104.54143348228833
954,2226.921,1.4582625024855531,104.54173749751445
955,2229.060,2.4579487771733426,104.54205122282666
956,2231.198,2.457625177063065,104.54237482293694
957,2233.336,0.4572915372637425,104.54270846273626
958,2235.472,1.4569476927062226,104.54305230729378
959,2237.608,1.456593478143887,104.54340652185611
960,2239.743,2.4562287281534623,104.54377127184654
961,2241.878,0.45585327713584434,104.54414672286416
962,2244.011,0.0,104.54453304068322
963,2246.144,2.455069608747749,104.54493039125225
964,2248.276,1.4546610593066447,104.54533894069336
965,2250.407,1.454241144698642,104.54575885530136
966,2252.538,0.0,104.54619030154309
967,2254.667,0.0,104.54663344605656
968,2256.796,2.452911544349803,104.5470884556502
969,2258.924,0.4524445026978867,104.54755549730211
970,2261.052,2.4519652618407832,104.54803473815922
971,2263.178,1.4514736544634275,104.54852634553657
972,2265.304,1.4509695130835212,104.54903048691648
973,2267.429,2.4504526700521865,104.54954732994781
974,2269.553,0.4499229575548185,104.55007704244518
975,2271.677,2.4493802076118527,104.55061979238815
976,2273.800,2.448824252079504,104.5511757479205
977,2275.921,0.4482549226506194,104.55174507734938
978,2278.043,0.4476720508553882,104.55232794914461
979,2280.163,0.4470754680621525,104.55292453193785
980,2282.283,0.44646500547818846,104.55353499452181
981,2284.401,0.4458404941504597,104.55415950584954
982,2286.520,0.0,104.55479823503356
983,2288.637,2.444548648654859,104.55545135134514
984,2290.753,0.44388097578647034,104.55611902421353
985,2292.869,1.4431985767748756,104.55680142322512
986,2294.984,1.44250128187727,104.55749871812273
987,2297.098,0.4417889211952115,104.55821107880479
988,2299.212,3.441061324675445,104.55893867532455
989,2301.325,0.0,104.55968167788937
990,2303.437,1.4395597431401654,104.56044025685983
991,2305.548,2.438785417250898,104.5612145827491
992,2307.658,2.4379951737780203,104.56200482622198
993,2309.768,2.437188841905737,104.56281115809426
994,2311.877,0.0,104.56363374933193
995,2313.985,2.4355272289497094,104.56447277105029
996,2316.092,1.4346716054866704,104.56532839451333
997,2318.199,1.4337992088671854,104.56620079113281
998,2320.304,1.432909867532402,104.5670901324676
999,2322.409,4.432003409777238,104.56799659022276
1000,2324.514,2.4310796637510776,104.56892033624892
1001,2326.617,2.430138457458611,104.56986154254139
1002,2328.720,1.4291796187605996,104.5708203812394
1003,2330.822,0.0,104.5717970246254
1004,2332.923,0.0,104.57279164512411
1005,2335.024,1.4261955846980356,104.57380441530196
1006,2337.123,3.4251644921338595,104.57483550786614
1007,2339.222,2.424114904336136,104.57588509566386
1008,2341.320,2.4230466483183193,104.57695335168168
1009,2343.418,0.4219595509554779,104.57804044904452
1010,2345.514,3.4208534389849063,104.5791465610151
1011,2347.610,0.0,104.58027186099301
1012,2349.705,0.41858347748598135,104.58141652251402
1013,2351.800,0.4174192807507495,104.58258071924925
1014,2353.893,1.4162353749955798,104.58376462500442
1015,2355.986,1.415031586280989,104.58496841371901
1016,2358.078,0.41380774053439495,104.5861922594656
1017,2360.170,1.4125636635510261,104.58743633644897
1018,2362.260,1.4112991809945896,104.58870081900541
1019,2364.350,1.410014118398152,104.58998588160185
1020,2366.439,2.408708301164836,104.59129169883516
1021,2368.527,1.4073815545686301,104.59261844543137
1022,2370.615,3.4060337037551847,104.59396629624482
1023,2372.702,1.4046645737425507,104.59533542625745
