# kind,background_subtracted
# version_label,v1_02
# poly_order,5
# iterations_run,7
pixel_index,raman_shift_cm-1,intensity,background_intensity
0,-224.846,1.013633259612888,96.98636674038711
1,-221.778,1.0139471625346772,96.98605283746532
2,-218.712,0.01424171333025015,96.98575828666975
3,-215.647,0.01451704587557856,96.98548295412442
4,-212.583,0.01477329374041858,96.98522670625958
5,-209.521,1.0150105901882824,96.98498940981172
6,-206.460,1.0152290681764953,96.9847709318235
7,-203.399,2.0154288603562662,96.98457113964373
8,-200.340,1.0156100990726742,96.98438990092733
9,-197.283,2.0157729163647957,96.9842270836352
10,-194.226,2.015917443965648,96.98408255603435
11,-191.171,0.0,96.98395618669768
12,-188.116,0.016152155495944953,96.98384784450406
13,-185.064,1.0162426013618102,96.98375739863819
14,-182.012,1.016315281409348,96.98368471859065
15,-178.961,0.016370325842189004,96.98362967415781
16,-175.912,1.0164078645582322,96.98359213544177
17,-172.864,2.0164280271496295,96.98357197285037
18,-169.817,1.0164309429029146,96.98356905709709
19,-166.771,0.016416740798959495,96.98358325920104
20,-163.726,2.016385549513089,96.98361445048691
21,-160.683,2.0163374974150656,96.98366250258493
22,-157.641,1.0162727125691617,96.98372728743084
23,-154.600,0.016191322734186997,96.98380867726581
24,-151.560,1.0160934553635883,96.98390654463641
25,-148.521,1.0159792376053787,96.98402076239462
26,-145.484,1.0158487963023077,96.98415120369769
27,-142.447,1.015702257991805,96.9842977420082
28,-139.412,1.015539748906093,96.9844602510939
29,-136.379,3.0153613949721603,96.98463860502784
30,-133.346,2.015167321811873,96.98483267818813
31,-130.314,3.014957654741991,96.98504234525801
32,-127.284,0.014732518774181358,96.98526748122582
33,-124.255,0.014492038615117053,96.98550796138488
34,-121.227,1.0142363386664783,96.98576366133352
35,-118.200,0.0,96.98603445697499
36,-115.175,1.0136797754825437,96.98632022451746
37,-112.150,2.0133791595260817,96.98662084047392
38,-109.127,0.013063818337798239,96.9869361816622
39,-106.105,0.012733874795145539,96.98726612520485
40,-103.084,3.0123894514707814,96.98761054852922
41,-100.065,1.0120306706327398,96.98796932936726
42,-97.046,0.0,96.9883423457556
43,-94.029,2.0112705239645265,96.98872947603547
44,-91.013,2.0108694011473744,96.98913059885263
45,-87.998,2.0104544068426407,96.98954559315736
46,-84.984,3.010025661795595,96.9899743382044
47,-81.972,0.0,96.99041671355295
48,-78.960,0.009127400933479635,96.99087259906652
49,-75.950,0.008658125086967061,96.99134187491303
50,-72.941,0.008175578435356101,96.99182442156464
51,-69.933,2.00767988020219,96.99232011979781
52,-66.927,2.007171149306842,96.99282885069316
53,-63.921,0.006649504364489189,96.99335049563551
54,-60.917,2.006115063686181,96.99388493631382
55,-57.914,0.005567945278926345,96.99443205472107
56,-54.912,2.005008266845664,96.99499173315434
57,-51.911,0.004436145785348344,96.99556385421465
58,-48.912,2.003851699192964,96.99614830080704
59,-45.913,0.0,96.9967449561404
60,-42.916,1.0026462962724878,96.99735370372751
61,-39.920,1.0020255726150253,96.99797442738497
62,-36.925,1.0013929887668382,96.99860701123316
63,-33.931,1.0007486603037847,96.99925133969622
64,-30.939,4.000092702498051,96.99990729750195
65,-27.947,6.999425230318181,97.00057476968182
66,-24.957,3.998746358429102,97.0012536415709
67,-21.968,0.9980562011921421,97.00194379880786
68,-18.980,0.99735487266517,97.00264512733483
69,-15.993,1.9966424866024965,97.0033575133975
70,-13.008,1.9959191564550594,97.00408084354494
71,-10.023,0.99518499537038,97.00481500462962
72,-7.040,0.0,97.00555988380741
73,-4.058,2.9936846314625853,97.00631536853741
74,-1.077,0.9929186534179308,97.00708134658207
75,1.903,1.9921422939929982,97.007857706007
76,4.881,0.9913556648189541,97.00864433518105
77,7.859,0.9905588772238616,97.00944112277614
78,10.835,0.9897520422326664,97.01024795776733
79,13.810,1.9889352705672536,97.01106472943275
80,16.784,1.9881086726465327,97.01189132735347
81,19.757,1.9872723585864094,97.01272764141359
82,22.728,1.9864264381998709,97.01357356180013
83,25.699,0.9855710209970425,97.01442897900296
84,28.668,0.9847062161852165,97.01529378381478
85,31.636,0.9838321326688515,97.01616786733115
86,34.603,0.9829488790496725,97.01705112095033
87,37.569,0.9820565636267133,97.01794343637329
88,40.534,0.9811552943963306,97.01884470560367
89,43.497,0.9802451790522326,97.01975482094777
90,46.460,0.0,97.02067367501442
91,49.421,0.9783988392849636,97.02160116071504
92,52.381,0.0,97.02253717126348
93,55.340,1.9765183998239024,97.0234816001761
94,58.297,0.0,97.02443434127164
95,61.254,1.9746047113287517,97.02539528867125
96,64.209,0.9736356632016765,97.02636433679832
97,67.164,2.9726586196213702,97.02734138037863
98,70.117,0.0,97.0283263144401
99,73.069,0.9706809656871229,97.02931903431288
100,76.020,0.969680564370691,97.03031943562931
101,78.969,0.9686725856762024,97.0313274143238
102,81.918,0.9676571333671831,97.03234286663282
103,84.865,2.9666343109050928,97.03336568909491
104,87.811,1.9656042214494676,97.03439577855053
105,90.757,0.0,97.03543303214214
106,93.700,0.9635226526859526,97.03647734731405
107,96.643,0.0,97.03752862181243
108,99.585,0.9614132463147058,97.0385867536853
109,102.525,1.9603483587176243,97.03965164128238
110,105.465,1.9592768167448185,97.04072318325518
111,108.403,0.9581987214431535,97.04180127855685
112,111.340,0.0,97.04288582644219
113,114.276,0.956023273532395,97.0439767264676
114,117.211,0.9549261215089757,97.04507387849102
115,120.144,1.95382281732806,97.04617718267194
116,123.077,1.9527134605287557,97.04728653947124
117,126.008,0.951598150348687,97.04840184965131
118,128.938,1.9504769857241229,97.04952301427588
119,131.868,1.9493500652900053,97.05064993471
120,134.795,2.9482174873799636,97.05178251262004
121,137.722,0.9470793500263568,97.05292064997364
122,140.648,2.9459357509603876,97.05406424903961
123,143.572,0.0,97.05521321238797
124,146.496,1.9436325571101776,97.05636744288982
125,149.418,1.9424731562826167,97.05752684371738
126,152.339,0.0,97.05869131834389
127,155.259,0.9401392294564204,97.05986077054358
128,158.178,1.9389648956083363,97.06103510439166
129,161.096,2.93778577573579,97.06221422426421
130,164.012,0.9366019651617847,97.06339803483822
131,166.928,0.935413558908536,97.06458644109146
132,169.842,0.0,97.06577934830253
133,172.755,1.9330233379492654,97.06697666205073
134,175.667,0.9318217117839112,97.06817828821609
135,178.578,0.930615867020748,97.06938413297925
136,181.488,0.929405897178512,97.07059410282149
137,184.397,1.9281918954753365,97.07180810452466
138,187.304,0.9269739548288811,97.07302604517112
139,190.211,0.0,97.07424783214373
140,193.116,0.924526626874254,97.07547337312575
141,196.020,2.9232974238991147,97.07670257610089
142,198.923,2.922064650646817,97.07793534935318
143,201.825,1.9208283985330468,97.07917160146695
144,204.726,1.9195887586731573,97.08041124132684
145,207.625,0.0,97.08165417811769
146,210.524,1.9170996786755126,97.08290032132449
147,213.421,0.0,97.08414958073242
148,216.318,1.9145981335732642,97.08540186642674
149,219.213,1.913342911207252,97.08665708879275
150,222.107,0.91208484148423,97.08791515851577
151,225.000,0.9108240134189032,97.0891759865811
152,227.891,0.0,97.09043948427394
153,230.782,0.9082944368206114,97.09170556317939
154,233.672,0.9070258648176122,97.09297413518239
155,236.560,0.9057548875323533,97.09424511246765
156,239.447,2.9044815924803373,97.09551840751966
157,242.333,1.9032060668773738,97.09679393312263
158,245.218,0.901928397639594,97.0980716023604
159,248.102,1.9006486713835358,97.09935132861646
160,250.985,1.8993669744261013,97.1006330255739
161,253.867,0.8980833927846987,97.1019166072153
162,256.748,0.0,97.10320198782279
163,259.627,0.0,97.1044890819779
164,262.505,1.8942221954383882,97.10577780456161
165,265.383,0.8929319292457478,97.10706807075425
166,268.259,2.8916402039644993,97.1083597960355
167,271.134,2.890347103815728,97.10965289618427
168,274.008,1.8890527127212238,97.11094728727878
169,276.880,1.887757114303625,97.11224288569638
170,279.752,0.8864603918863878,97.11353960811361
171,282.623,0.8851626284938874,97.11483737150611
172,285.492,0.0,97.1161360931486
173,288.360,1.882564309385188,97.11743569061481
174,291.228,1.881263918222544,97.11873608177746
175,294.094,0.8799628151918029,97.1200371848082
176,296.959,0.0,97.12133891817757
177,299.823,0.8773587993449894,97.12264120065501
178,302.685,1.8760560486912823,97.12394395130872
179,305.547,1.8747529104943084,97.12524708950569
180,308.408,0.8734494650883704,97.12655053491163
181,311.267,1.8721457925090874,97.12785420749091
182,314.126,0.8708419724933947,97.1291580275066
183,316.983,0.8695380844796716,97.13046191552033
184,319.839,2.868234207607756,97.13176579239224
185,322.694,1.866930420718944,97.13306957928106
186,325.548,0.0,97.13437319764394
187,328.401,0.0,97.13567656923647
188,331.253,3.863020383887388,97.13697961611261
189,334.103,1.8617177393753082,97.13828226062469
190,336.953,0.8604155745767059,97.1395844254233
191,339.801,0.0,97.14088603345728
192,342.649,1.8578129920262683,97.14218700797373
193,345.495,0.0,97.14348727251787
194,348.340,1.8552132490669067,97.1447867509331
195,351.184,1.8539146326391887,97.14608536736081
196,354.027,0.0,97.14738304624052
197,356.869,3.8513202876902994,97.1486797123097
198,359.709,0.0,97.1499752906038
199,362.549,0.0,97.15126970645615
200,365.388,0.8474371145020285,97.15256288549797
201,368.225,1.8461452463416919,97.15385475365831
202,371.061,0.0,97.15514523716398
203,373.897,1.8435657374604517,97.15643426253955
204,376.731,1.8422782433927267,97.15772175660727
205,379.564,0.0,97.15900764648707
206,382.396,0.8397081404035305,97.16029185959647
207,385.227,0.8384256763494591,97.16157432365054
208,388.057,0.837145033338075,97.16285496666193
209,390.885,1.8358662830592891,97.16413371694071
210,393.713,1.8345894969055507,97.16541050309445
211,396.539,1.8333147459719328,97.16668525402807
212,399.365,0.0,97.16795789894385
213,402.189,0.0,97.16922836734142
214,405.012,0.8295034109823689,97.17049658901763
215,407.835,3.8282375059334157,97.17176249406658
216,410.656,1.8269739871204393,97.17302601287956
217,413.476,1.825712923855022,97.17428707614498
218,416.295,1.8244543851516397,97.17554561484836
219,419.112,0.8231984397277472,97.17680156027225
220,421.929,0.8219451560037498,97.17805484399625
221,424.745,1.8206946021030888,97.17930539789691
222,427.559,0.8194468458522977,97.1805531541477
223,430.373,0.8182019547810313,97.18179804521897
224,433.185,0.0,97.18304000387793
225,435.996,1.8157210368114391,97.18427896318856
226,438.807,0.8144851434883691,97.18551485651163
227,441.616,0.8132523824954205,97.18674761750458
228,444.424,0.8120228198784645,97.18797718012154
229,447.231,1.8107965213867345,97.18920347861327
230,450.037,0.0,97.19042644752712
231,452.842,1.80835397829307,97.19164602170693
232,455.645,0.0,97.1928621362931
233,458.448,0.0,97.19407472672246
234,461.250,1.8047162712717437,97.19528372872826
235,464.050,0.8035109216599352,97.19648907834006
236,466.849,1.802309288116163,97.19769071188384
237,469.648,0.8011114340181962,97.1988885659818
238,472.445,1.7999174224476064,97.2000825775524
239,475.241,0.0,97.20127268381029
240,478.036,1.79754117773372,97.20245882226628
241,480.830,0.0,97.20364093072729
242,483.623,1.7951810527036969,97.2048189472963
243,486.415,0.7940071896276635,97.20599281037234
244,489.206,2.7928375413496127,97.20716245865039
245,491.996,2.7916721688786055,97.2083278311214
246,494.784,2.7905111329278043,97.2094888670722
247,497.572,3.78935449391453,97.21064550608547
248,500.358,3.7882023119602763,97.21179768803972
249,503.144,8.78705464689078,97.21294535310922
250,505.928,14.785911558236037,97.21408844176396
251,508.712,19.784773105230386,97.21522689476961
252,511.494,16.783639346812492,97.21636065318751
253,514.275,7.782510341625439,97.21748965837456
254,517.055,3.7813861480167787,97.21861385198322
255,519.834,1.780266824038506,97.2197331759615
256,522.612,2.7791524274471726,97.22084757255283
257,525.389,1.778043015703929,97.22195698429607
258,528.165,1.7769386459744823,97.22306135402552
259,530.940,0.7758393751292516,97.22416062487075
260,533.713,1.7747452597433409,97.22525474025666
261,536.486,1.7736563560965806,97.22634364390342
262,539.257,0.0,97.22742727982636
263,542.028,0.7714944076639512,97.22850559233605
264,544.797,0.0,97.22957852603811
265,547.566,1.769353974166691,97.23064602583331
266,550.333,0.7682919630825751,97.23170803691742
267,553.099,0.0,97.23276450478122
268,555.864,3.7661846247895596,97.23381537521044
269,558.629,1.7651394057142653,97.23486059428573
270,561.392,0.7640998916173771,97.23590010838262
271,564.154,2.7630661358285806,97.23693386417142
272,566.915,0.762038191382743,97.23796180861726
273,569.674,2.761016111019984,97.23898388898002
274,572.433,0.7599999471857473,97.24000005281425
275,575.191,0.0,97.24101024796917
276,577.948,1.7579855774113895,97.24201442258861
277,580.703,0.75698747488903,97.24301252511097
278,583.458,0.7559954957308435,97.24400450426916
279,586.211,0.0,97.2449903090906
280,588.964,0.7540301111028782,97.24596988889712
281,591.715,1.7530568066950138,97.24694319330499
282,594.466,0.0,97.24791017222478
283,597.215,0.0,97.24887077586142
284,599.963,0.0,97.2498249547141
285,602.710,1.7492273404237864,97.25077265957621
286,605.457,1.7482861584646656,97.25171384153533
287,608.202,0.7473515480267707,97.25264845197323
288,610.946,0.7464235574342979,97.2535764425657
289,613.689,0.7455022347173639,97.25449776528264
290,616.431,0.0,97.25541237238795
291,619.172,0.0,97.25632021643948
292,621.911,0.742778749710979,97.25722125028902
293,624.650,0.7418845729177264,97.25811542708227
294,627.388,0.7409972997412808,97.25900270025872
295,630.125,1.74011697644832,97.25988302355168
296,632.860,0.7392436490117547,97.26075635098825
297,635.595,0.7383773631108284,97.26162263688917
298,638.328,0.0,97.26248183586891
299,641.061,1.7366660971644592,97.26333390283554
300,643.792,0.7358212070092804,97.26417879299072
301,646.523,3.73498353817034,97.26501646182966
302,649.252,0.0,97.26584686514104
303,651.980,0.0,97.26666995900703
304,654.708,0.7325143001968115,97.26748569980319
305,657.434,1.7317059558015728,97.26829404419843
306,660.159,0.730905050844953,97.26909494915505
307,662.883,1.730111628071441,97.26988837192856
308,665.606,1.729325729932242,97.27067427006776
309,668.328,0.7285473985853628,97.27145260141464
310,671.049,0.7277766758956687,97.27222332410433
311,673.769,1.7270136034349264,97.27298639656507
312,676.488,1.7262582224818033,97.2737417775182
313,679.206,2.725510574021939,97.27448942597806
314,681.923,0.0,97.27522930125197
315,684.639,0.7240386370597918,97.27596136294021
316,687.354,1.723314429064061,97.27668557093594
317,690.067,0.7225981145748079,97.27740188542519
318,692.780,0.0,97.2781102668868
319,695.492,0.0,97.27881067609236
320,698.202,1.7204969258937695,97.27950307410623
321,700.912,0.7198125777145918,97.28018742228541
322,703.621,1.719136317720455,97.28086368227954
323,706.328,1.7184681839690796,97.28153181603092
324,709.035,0.7178082142256841,97.28219178577432
325,711.740,1.717156445962928,97.28284355403707
326,714.444,0.716512916361026,97.28348708363897
327,717.148,1.7158776623077614,97.28412233769224
328,719.850,0.7152507203985152,97.28474927960148
329,722.552,1.7146321269363654,97.28536787306363
330,725.252,2.714021917932058,97.28597808206794
331,727.951,1.7134201291040938,97.2865798708959
332,730.649,1.7128267958787688,97.28717320412123
333,733.347,0.7122419533901905,97.28775804660981
334,736.043,1.711665636480376,97.28833436351962
335,738.738,0.71109787969921,97.28890212030079
336,741.432,0.7105387173045727,97.28946128269543
337,744.125,1.7099881832623396,97.29001181673766
338,746.817,1.709446311246424,97.29055368875358
339,749.508,0.70891313463882,97.29108686536118
340,752.198,1.7083886865296591,97.29161131347034
341,754.887,0.0,97.29212700028273
342,757.575,1.707366106708136,97.29263389329186
343,760.262,0.7068680397170652,97.29313196028293
344,762.948,1.7063788306671483,97.29362116933285
345,765.633,0.7058985111897869,97.29410148881021
346,768.317,0.0,97.2945728873752
347,770.999,1.7049646660204445,97.29503533397956
348,773.681,0.7045112021334319,97.29548879786657
349,776.362,0.7040667514289964,97.295933248571
350,779.042,2.7036313440809323,97.29636865591907
351,781.720,1.7032050099716258,97.29679499002837
352,784.398,0.0,97.29721222130789
353,787.075,3.7023796795421333,97.29762032045787
354,789.751,0.7019807415301358,97.29801925846986
355,792.425,0.701590993373344,97.29840900662666
356,795.099,0.7012104634978016,97.2987895365022
357,797.771,1.7008391800384146,97.29916081996159
358,800.443,0.0,97.29952282916099
359,803.114,0.0,97.2998755365477
360,805.783,1.6997810851400317,97.30021891485997
361,808.452,2.6994470628729914,97.30055293712701
362,811.119,2.6991224233309907,97.30087757666901
363,813.786,1.6988071929030042,97.301192807097
364,816.451,1.6985013976871386,97.30149860231286
365,819.116,2.698205063490718,97.30179493650928
366,821.779,0.0,97.30208178416973
367,824.442,0.0,97.30235912006832
368,827.103,1.6973730807301166,97.30262691926988
369,829.763,1.697114842870107,97.3028851571299
370,832.423,0.6968661907056344,97.30313380929437
371,835.081,0.0,97.30337285169989
372,837.739,1.696397739426473,97.30360226057353
373,840.395,1.6961779875671823,97.30382201243282
374,843.050,0.6959679159142951,97.3040320840857
375,845.705,0.6957675473695133,97.30423245263049
376,848.358,0.0,97.30442309545583
377,851.010,0.6953960097593495,97.30460399024065
378,853.662,0.6952248850458886,97.30477511495411
379,856.312,1.6950635521444184,97.30493644785558
380,858.961,1.694912032505428,97.30508796749457
381,861.610,1.6947703472892641,97.30522965271074
382,864.257,0.6946385173662293,97.30536148263377
383,866.903,0.0,97.3054834366834
384,869.549,0.69440450543064,97.30559549456936
385,872.193,1.6943023637087151,97.30569763629128
386,874.836,0.6942101578612494,97.30578984213875
387,877.478,0.6941279073088396,97.30587209269116
388,880.120,2.694055631182252,97.30594436881775
389,882.760,0.6939933483224934,97.3060066516775
390,885.399,0.6939410772808401,97.30605892271916
391,888.037,1.6938988363188798,97.30610116368112
392,890.675,1.6938666434085832,97.30613335659142
393,893.311,1.693844516232275,97.30615548376772
394,895.946,1.6938324721827627,97.30616752781724
395,898.580,1.6938305283633213,97.30616947163668
396,901.214,0.0,97.30616129841223
397,903.846,1.6938570083804763,97.30614299161952
398,906.477,0.6938854649764608,97.30611453502354
399,909.107,1.6939240873213777,97.30607591267862
400,911.737,1.6939728910715814,97.30602710892842
401,914.365,1.6940318915941788,97.30596810840582
402,916.992,0.6941011039670428,97.30589889603296
403,919.618,0.0,97.30581945702109
404,922.244,0.6942702231293651,97.30572977687063
405,924.868,2.6943701586289137,97.30562984137109
406,927.491,3.6944803633990233,97.30551963660098
407,930.113,0.6946008510721526,97.30539914892785
408,932.735,2.6947316349918253,97.30526836500817
409,935.355,4.69487272821263,97.30512727178737
410,937.974,0.0,97.30497585649971
411,940.592,1.6951858933317112,97.30481410666829
412,943.210,0.6953579898949869,97.30464201010501
413,945.826,1.6955404450895202,97.30445955491048
414,948.441,2.695733270525963,97.30426672947404
415,951.056,0.695936477526331,97.30406352247367
416,953.669,0.696150077124031,97.30384992287597
417,956.281,2.6963740800638902,97.30362591993611
418,958.893,0.6966084968022273,97.30339150319777
419,961.503,2.6968533375068517,97.30314666249315
420,964.112,1.69710861205715,97.30289138794285
421,966.721,0.6973743300440702,97.30262566995593
422,969.328,1.6976505007702798,97.30234949922972
423,971.935,0.6979371332500506,97.30206286674995
424,974.540,2.6982342362094442,97.30176576379056
425,977.144,0.6985418180862553,97.30145818191374
426,979.748,2.6988598870301104,97.30114011296989
427,982.350,1.699188450902497,97.3008115490975
428,984.952,0.6995275172768061,97.3004724827232
429,987.552,1.69987709343836,97.30012290656164
430,990.152,0.0,97.29976281361553
431,992.750,0.7006078028244787,97.29939219717552
432,995.348,0.700988949179802,97.2990110508202
433,997.944,0.701380631583973,97.29861936841603
434,1000.540,1.7017828558826835,97.29821714411732
435,1003.134,1.702195627633813,97.29780437236619
436,1005.728,0.7026189521074997,97.2973810478925
437,1008.321,0.7030528342861544,97.29694716571385
438,1010.912,0.7034972788645462,97.29650272113545
439,1013.503,1.7039522902497737,97.29604770975023
440,1016.092,1.704417872561379,97.29558212743862
441,1018.681,0.7048940296313475,97.29510597036865
442,1021.269,1.7053807650041932,97.2946192349958
443,1023.856,0.0,97.29412191806307
444,1026.441,0.0,97.2936140166008
445,1029.026,0.7069044720732336,97.29309552792677
446,1031.610,0.7074335503539828,97.29256644964602
447,1034.193,0.7079732203490607,97.29202677965094
448,1036.775,0.0,97.29147651612112
449,1039.355,1.709084342476629,97.29091565752337
450,1041.935,0.0,97.29034420261165
451,1044.514,0.7102378495729766,97.28976215042702
452,1047.092,1.7108304997023538,97.28916950029765
453,1049.669,0.711433748161312,97.28856625183869
454,1052.245,0.0,97.28795240495229
455,1054.820,0.7126720401724356,97.28732795982756
456,1057.394,1.713307083059476,97.28669291694052
457,1059.967,0.7139527229460043,97.286047277054
458,1062.539,1.7146089587823212,97.28539104121768
459,1065.110,0.0,97.28472421076799
460,1067.681,0.0,97.28404678732812
461,1070.250,0.7166412271920848,97.28335877280792
462,1072.818,0.7173398305961456,97.28266016940385
463,1075.385,1.7180490204009402,97.28195097959906
464,1077.951,1.7187687938368157,97.28123120616318
465,1080.517,1.7194991478476283,97.28050085215237
466,1083.081,0.7202400790907149,97.27975992090929
467,1085.644,0.0,97.27900841606298
468,1088.207,1.7217536584711013,97.2782463415289
469,1090.768,1.7225262984911467,97.27747370150885
470,1093.329,2.723309499509071,97.27669050049093
471,1095.888,0.7241032567505243,97.27589674324948
472,1098.447,0.7249075651549362,97.27509243484506
473,1101.004,1.7257224193755718,97.27427758062443
474,1103.561,1.7265478137795611,97.27345218622044
475,1106.116,0.7273837424479694,97.27261625755203
476,1108.671,0.7282301991757834,97.27176980082422
477,1111.225,0.7290871774720387,97.27091282252796
478,1113.777,0.7299546705597493,97.27004532944025
479,1116.329,2.7308326713760778,97.26916732862392
480,1118.880,1.7317211725722927,97.26827882742771
481,1121.430,1.7326201665138115,97.26737983348619
482,1123.979,1.7335296452802993,97.2664703547197
483,1126.527,0.7344496006656556,97.26555039933434
484,1129.074,0.7353800241780846,97.26461997582192
485,1131.620,2.7363209070401524,97.26367909295985
486,1134.165,2.737272240188801,97.2627277598112
487,1136.709,0.7382340142753776,97.26176598572462
488,1139.252,1.739206219665732,97.26079378033427
489,1141.794,0.0,97.2598111535598
490,1144.335,1.7411818843937112,97.25881811560629
491,1146.875,0.0,97.25781467696423
492,1149.415,1.743199151590531,97.25680084840947
493,1151.953,3.7442233589968197,97.25577664100318
494,1154.490,0.0,97.2547420660918
495,1157.027,0.0,97.25369713530695
496,1159.562,0.7473581394344677,97.25264186056553
497,1162.097,1.748423745930495,97.2515762540695
498,1164.630,0.749499671694025,97.25050032830598
499,1167.163,0.7505859039529241,97.24941409604708
500,1169.695,1.7516824296500175,97.24831757034998
501,1172.225,1.7527892354431884,97.24721076455681
502,1174.755,1.753906307705364,97.24609369229464
503,1177.284,0.7550336325245866,97.24496636747541
504,1179.812,1.7561711957040842,97.24382880429592
505,1182.338,2.757318982762257,97.24268101723774
506,1184.864,2.758476978932748,97.24152302106725
507,1187.389,1.7596451691645143,97.24035483083549
508,1189.913,1.7608235381218122,97.23917646187819
509,1192.436,1.7620120701842694,97.23798792981573
510,1194.959,0.0,97.23678925055304
511,1197.480,0.764419559720352,97.23558044027965
512,1200.000,0.7656384845304984,97.2343615154695
513,1202.519,1.7668675071189313,97.23313249288107
514,1205.038,0.7681066104427714,97.23189338955723
515,1207.555,0.769355777174809,97.23064422282519
516,1210.071,0.7706149897034749,97.22938501029653
517,1212.587,0.7718842301329119,97.22811576986709
518,1215.101,0.7731634802830172,97.22683651971698
519,1217.615,0.0,97.22554727831049
520,1220.128,0.0,97.22424806439605
521,1222.639,2.7770611029937555,97.22293889700624
522,1225.150,1.7783802045422874,97.22161979545771
523,1227.660,1.7797092206488827,97.22029077935112
524,1230.169,0.0,97.2189518685711
525,1232.677,0.7823969167137506,97.21760308328625
526,1235.184,1.783755556050906,97.2162444439491
527,1237.690,0.7851240287040469,97.21487597129595
528,1240.195,1.7865023136529743,97.21349768634703
529,1242.699,0.0,97.21210961040622
530,1245.202,0.7892882349387804,97.21071176506122
531,1247.704,0.0,97.20930417218338
532,1250.206,1.7921131460723103,97.20788685392769
533,1252.706,2.7935401672672384,97.20645983273276
534,1255.206,1.7949768686792567,97.20502313132074
535,1257.704,1.7964232273026965,97.2035767726973
536,1260.202,1.7978792198484257,97.20212078015157
537,1262.698,2.7993448227438478,97.20065517725615
538,1265.194,1.8008200121330304,97.19917998786697
539,1267.689,0.0,97.19769523612334
540,1270.183,1.8037990535521402,97.19620094644786
541,1272.676,1.8053028564536078,97.19469714354639
542,1275.168,0.8068161475919879,97.19318385240801
543,1277.659,0.8083389016950377,97.19166109830496
544,1280.149,1.8098710932073914,97.19012890679261
545,1282.638,0.0,97.18858730370943
546,1285.126,1.8129636848230888,97.18703631517691
547,1287.613,0.0,97.18547596759957
548,1290.100,0.0,97.18390628766487
549,1292.585,2.817672697656832,97.18232730234317
550,1295.070,0.8192609611122634,97.18073903888774
551,1297.553,0.8208584751653518,97.17914152483465
552,1300.036,0.0,97.17753478800277
553,1302.517,1.8240811435063051,97.1759188564937
554,1304.998,1.8257062413082394,97.17429375869176
555,1307.478,0.8273404767360972,97.1726595232639
556,1309.957,1.8289838208402927,97.17101617915971
557,1312.435,3.830636244388643,97.16936375561136
558,1314.912,0.8322977178664956,97.1677022821335
559,1317.388,1.833968211476673,97.16603178852333
560,1319.863,0.8356476951395564,97.16435230486044
561,1322.337,2.8373361384931286,97.16266386150687
562,1324.811,1.8390335108930316,97.16096648910697
563,1327.283,2.84073978141258,97.15926021858742
564,1329.755,0.8424549188427903,97.15754508115721
565,1332.225,1.8441788916925077,97.15582110830749
566,1334.695,1.8459116681883359,97.15408833181166
567,1337.163,1.8476532162747645,97.15234678372524
568,1339.631,1.8494035036141696,97.15059649638583
569,1342.098,1.8511624975868841,97.14883750241312
570,1344.564,1.8529301652911983,97.1470698347088
571,1347.029,0.0,97.14529352645653
572,1349.493,1.8564913888780836,97.14350861112192
573,1351.956,1.8582848775475753,97.14171512245242
574,1354.418,0.0,97.13991309447738
575,1356.880,0.8618974384920932,97.1381025615079
576,1359.340,0.8637164418631045,97.1362835581369
577,1361.800,2.8655438807610523,97.13445611923895
578,1364.258,0.0,97.13262027997031
579,1366.716,0.8692239242310933,97.1307760757689
580,1369.172,0.8710764576457848,97.12892354235422
581,1371.628,1.872937284272723,97.12706271572728
582,1374.083,0.8748063678294073,97.12519363217059
583,1376.537,0.8766836717518203,97.12331632824818
584,1378.990,0.0,97.12143084080543
585,1381.442,2.8804627930308726,97.11953720696913
586,1383.893,0.0,97.11763546414738
587,1386.344,0.8842743499704255,97.11572565002957
588,1388.793,1.8861921974136635,97.11380780258634
589,1391.241,0.8881180399304753,97.11188196006952
590,1393.689,0.8900518389878869,97.10994816101211
591,1396.135,0.0,97.10800644422824
592,1398.581,0.8939431511869316,97.10605684881307
593,1401.026,0.8959005858571771,97.10409941414282
594,1403.470,0.897865820125304,97.1021341798747
595,1405.913,0.0,97.10016118594685
596,1408.355,0.9018195274217078,97.09818047257829
597,1410.796,0.0,97.09619208026896
598,1413.236,0.0,97.09419604979958
599,1415.675,2.907807577768395,97.0921924222316
600,1418.114,0.9098187610927226,97.09018123890728
601,1420.551,0.0,97.0881625414495
602,1422.988,0.9138636282381611,97.08613637176184
603,1425.423,0.0,97.08410277202844
604,1427.858,0.9179382152859858,97.08206178471401
605,1430.292,0.9199865474362241,97.08001345256378
606,1432.725,1.922042181396563,97.07795781860344
607,1435.157,0.0,97.07589492613914
608,1437.588,1.9261751812426269,97.07382481875737
609,1440.018,0.9282524596749795,97.07174754032502
610,1442.447,0.0,97.06966313498923
611,1444.876,1.9324283528225834,97.06757164717742
612,1447.303,2.934526878402764,97.06547312159724
613,1449.730,1.936632396763514,97.06336760323649
614,1452.156,0.938744862636895,97.0612551373631
615,1454.580,1.9408642304748867,97.05913576952511
616,1457.004,1.942990454449415,97.05700954555059
617,1459.427,1.9451234884523956,97.0548765115476
618,1461.849,0.0,97.05273671390417
619,1464.270,1.9494098007117486,97.05059019928825
620,1466.690,1.9515629853523393,97.04843701464766
621,1469.110,2.9537227927899607,97.04627720721004
622,1471.528,0.9558891755171857,97.04411082448281
623,1473.946,2.9580620857468034,97.0419379142532
624,1476.362,0.9602414754119621,97.03975852458804
625,1478.778,1.9624272961661262,97.03757270383387
626,1481.193,0.0,97.03538050061688
627,1483.607,0.9668180361572212,97.03318196384278
628,1486.020,0.0,97.03097714269683
629,1488.432,0.0,97.02876608664376
630,1490.843,0.0,97.02654884542775
631,1493.253,0.975674530927563,97.02432546907244
632,1495.663,0.9779039921192663,97.02209600788073
633,1498.071,0.9801394875650828,97.01986051243492
634,1500.479,1.9823809664034826,97.01761903359652
635,1502.886,0.0,97.01537162250631
636,1505.292,0.0,97.01311833058423
637,1507.697,1.9891407904705858,97.01085920952941
638,1510.101,0.9914056886799756,97.00859431132002
639,1512.504,1.9936763117866434,97.00632368821336
640,1514.906,1.9959526072543383,97.00404739274566
641,1517.307,1.9982345222678077,97.00176547773219
642,1519.708,2.0005220037328826,96.99947799626712
643,1522.107,0.002814998276463143,96.99718500172354
644,1524.506,0.005113452246675365,96.99488654775332
645,1526.904,1.0074173117127856,96.99258268828721
646,1529.301,1.0097265224653285,96.99027347753467
647,1531.697,0.012041030016121113,96.98795896998388
648,1534.092,1.0143607795982916,96.98563922040171
649,1536.486,1.0166857161663643,96.98331428383364
650,1538.879,0.0,96.98098421560374
651,1541.272,0.021350928685350823,96.97864907131465
652,1543.663,0.023691093152507392,96.97630890684749
653,1546.054,1.026036221638165,96.97396377836183
654,1548.444,2.028386257704298,96.9716137422957
655,1550.832,1.0307411446345611,96.96925885536544
656,1553.220,1.0331008254342322,96.96689917456577
657,1555.607,1.035465242830341,96.96453475716966
658,1557.994,0.03783433927164026,96.96216566072836
659,1560.379,1.040208056928691,96.95979194307131
660,1562.763,0.0,96.9574136623061
661,1565.147,2.0449691231815734,96.95503087681843
662,1567.529,1.0473563547278957,96.9526436452721
663,1569.911,0.04974797339107795,96.95025202660892
664,1572.292,0.052143919951305406,96.9478560800487
665,1574.672,2.0545441349108415,96.94545586508916
666,1577.051,2.056948558494028,96.94305144150597
667,1579.429,0.05935713064735637,96.94064286935264
668,1581.807,0.0617697910394952,96.9382302089605
669,1584.183,0.06418647906137664,96.93581352093862
670,1586.559,1.066607133826139,96.93339286617386
671,1588.933,2.069031694169283,96.93096830583072
672,1591.307,1.0714600986486573,96.92853990135134
673,1593.680,1.0738922855444741,96.92610771445553
674,1596.052,1.0763281928594353,96.92367180714056
675,1598.423,3.0787677583186905,96.92123224168131
676,1600.794,3.081210919369937,96.91878908063006
677,1603.163,2.0836576131834192,96.91634238681658
678,1605.531,0.08610777665202818,96.91389222334797
679,1607.899,0.08856134639127333,96.91143865360873
680,1610.266,3.091018258739382,96.90898174126062
681,1612.632,1.0934784497573276,96.90652155024267
682,1614.997,1.095941855228844,96.90405814477116
683,1617.361,1.0984084106605252,96.90159158933947
684,1619.724,1.1008780512817964,96.8991219487182
685,1622.086,0.0,96.89664928795497
686,1624.448,2.105826327625522,96.89417367237448
687,1626.808,2.108304832421595,96.8916951675784
688,1629.168,1.1107861605545963,96.8892138394454
689,1631.527,1.1132702458689465,96.88672975413105
690,1633.885,0.11575702193222526,96.88424297806777
691,1636.242,1.1182464220351562,96.88175357796484
692,1638.598,1.120738379191664,96.87926162080834
693,1640.954,3.123232826138974,96.87676717386103
694,1643.308,1.1257296953375686,96.87427030466243
695,1645.662,2.128228918971274,96.87177108102873
696,1648.014,1.1307304289473166,96.86926957105268
697,1650.366,0.13323415689633578,96.86676584310366
698,1652.717,1.135740034172457,96.86425996582754
699,1655.067,0.0,96.86175200814671
700,1657.417,0.14075796074004643,96.85924203925995
701,1659.765,1.143269871357461,96.85673012864254
702,1662.112,0.14578365395399828,96.854216346046
703,1664.459,1.1482992385017354,96.85170076149826
704,1666.805,0.0,96.8491834453035
705,1669.150,2.1533355319579073,96.84666446804209
706,1671.494,1.1558560994293572,96.84414390057064
707,1673.837,2.1583781859781084,96.84162181402189
708,1676.179,1.1609017201953407,96.83909827980466
709,1678.520,3.1634266303961454,96.83657336960385
710,1680.861,0.16595284461961057,96.83404715538039
711,1683.201,0.16848029062884962,96.83151970937115
712,1685.539,0.17100889591105783,96.82899110408894
713,1687.877,1.1735385876775126,96.82646141232249
714,1690.214,2.1760692928636587,96.82393070713634
715,1692.551,2.178600938129165,96.82139906187084
716,1694.886,1.1811334498578958,96.8188665501421
717,1697.220,0.18366675415803968,96.81633324584196
718,1699.554,2.18620077686208,96.81379922313792
719,1701.887,2.1887354435268946,96.8112645564731
720,1704.219,1.1912706794337424,96.80872932056626
721,1706.550,2.193806409588362,96.80619359041164
722,1708.880,0.0,96.803657441279
723,1711.209,0.0,96.80112094871359
724,1713.537,1.2014158114639457,96.79858418853605
725,1715.865,3.2039527631575737,96.79604723684243
726,1718.192,1.2064898299959737,96.79351017000403
727,1720.518,2.2090269353324885,96.79097306466751
728,1722.843,0.21156400224522542,96.78843599775477
729,1725.167,0.21410095353709835,96.7858990464629
730,1727.490,3.2166377117358707,96.78336228826413
731,1729.812,0.0,96.78082580090583
732,1732.134,1.2217103375895562,96.77828966241044
733,1734.455,3.224246048924556,96.77575395107544
734,1736.774,2.2267812545267134,96.77321874547329
735,1739.093,0.22931587554863597,96.77068412445136
736,1741.411,2.231849832868008,96.76815016713199
737,1743.729,1.2343830470876611,96.76561695291234
738,1746.045,0.0,96.76308456146438
739,1748.361,0.23944692726512073,96.76055307273488
740,1750.675,1.2419774330546716,96.75802256694533
741,1752.989,2.2445068754081063,96.7554931245919
742,1755.302,0.0,96.75296482644539
743,1757.614,0.24956224644871838,96.75043775355128
744,1759.925,1.2520880127704856,96.74791198722951
745,1762.236,2.254612390925388,96.74538760907461
746,1764.545,1.257135299044478,96.74286470095552
747,1766.854,1.2596566549843118,96.74034334501569
748,1769.162,0.2621763763271048,96.7378236236729
749,1771.469,3.264694380380732,96.73530561961927
750,1773.775,2.2672105841787413,96.73278941582126
751,1776.080,0.2697249044804124,96.73027509551959
752,1778.385,1.2722372577708398,96.72776274222916
753,1780.688,1.27474756026092,96.72525243973908
754,1782.991,2.277255727887436,96.72274427211256
755,1785.293,2.279761676313072,96.72023832368693
756,1787.594,2.282265320926456,96.71773467907354
757,1789.894,0.28476657684221607,96.71523342315778
758,1792.193,2.2872653589010525,96.71273464109895
759,1794.492,2.2897615816697225,96.71023841833028
760,1796.789,2.2922551594410834,96.70774484055892
761,1799.086,1.294746006234206,96.7052539937658
762,1801.382,2.297234035794361,96.70276596420564
763,1803.677,0.29971916159306033,96.70028083840694
764,1805.971,1.3022012968281018,96.6977987031719
765,1808.265,1.304680354423681,96.69531964557632
766,1810.557,0.3071562470302922,96.69284375296971
767,1812.849,2.309628887024928,96.69037111297507
768,1815.140,2.3120981865110224,96.68790181348898
769,1817.430,0.314564057318492,96.68543594268151
770,1819.719,0.31702641100386586,96.68297358899613
771,1822.007,1.3194851588502132,96.68051484114979
772,1824.295,3.321940211867286,96.67805978813271
773,1826.581,2.3243914807914905,96.67560851920851
774,1828.867,0.3268388760859722,96.67316112391403
775,1831.152,1.3292823079406446,96.67071769205936
776,1833.436,1.3317216862722319,96.66827831372777
777,1835.719,1.3341569207243111,96.66584307927569
778,1838.002,1.3365879206673412,96.66341207933266
779,1840.283,1.3390145951987478,96.66098540480125
780,1842.564,1.3414368531429375,96.65856314685706
781,1844.844,2.343854603051298,96.6561453969487
782,1847.123,0.3462677532023548,96.65373224679765
783,1849.401,2.348676211601699,96.6513237883983
784,1851.678,0.0,96.64892011401794
785,1853.955,2.3534786838034165,96.64652131619658
786,1856.231,2.355872512252958,96.64412748774704
787,1858.506,2.3582612782451378,96.64173872175486
788,1860.780,0.3606448884217883,96.63935511157821
789,1863.053,2.363023249152036,96.63697675084796
790,1865.325,0.36539626653248547,96.63460373346751
791,1867.597,1.3677638463871773,96.63223615361282
792,1869.867,0.370125894267602,96.6298741057324
793,1872.137,0.3724823154528707,96.62751768454713
794,1874.406,1.3748330149496013,96.6251669850504
795,1876.674,0.3771778974921034,96.6228221025079
796,1878.941,0.0,96.62048313245772
797,1881.208,0.3818498292898198,96.61815017071018
798,1883.473,1.3841766866521255,96.61582331334787
799,1885.738,0.0,96.6135026567256
800,1888.002,1.3888117025296793,96.61118829747032
801,1890.265,0.39111966751889327,96.6088803324811
802,1892.528,1.3934211410709167,96.60657885892908
803,1894.789,2.3957160257425443,96.60428397425746
804,1897.050,1.3980042238186172,96.60199577618138
805,1899.310,0.4002856373120238,96.59971436268798
806,1901.569,0.0,96.59743983203626
807,1903.827,2.4048277172428953,96.5951722827571
808,1906.084,1.4070881863467974,96.5929118136532
809,1908.340,1.4093414762009644,96.59065852379904
810,1910.596,1.411587487459201,96.5884125125408
811,1912.851,1.4138261205036002,96.5861738794964
812,1915.105,2.4160572754446434,96.58394272455536
813,1917.358,1.4182808521211854,96.58171914787881
814,1919.610,0.0,96.57950324989949
815,1921.862,0.42270486867840873,96.57729513132159
816,1924.113,2.4249051068791942,96.5750948931208
817,1926.362,0.0,96.57290263654428
818,1928.611,0.0,96.57071846311052
819,1930.860,1.4314575253905986,96.5685424746094
820,1933.107,0.4336252268979308,96.56637477310207
821,1935.353,1.4357845390790516,96.56421546092095
822,1937.599,0.4379353593302824,96.56206464066972
823,1939.844,0.0,96.55992241522316
824,1942.088,1.4422111122727443,96.55778888772726
825,1944.331,0.4443358384009741,96.55566416159903
826,1946.574,1.4464516594734391,96.55354834052656
827,1948.815,0.0,96.55144152846897
828,1951.056,1.45065617034372,96.54934382965628
829,1953.296,1.4527446514105122,96.54725534858949
830,1955.535,0.0,96.54517619004042
831,1957.773,0.0,96.54310645905176
832,1960.011,0.45895373906303405,96.54104626093697
833,1962.248,1.461004298719729,96.53899570128027
834,1964.483,1.4630451140634193,96.53695488593658
835,1966.718,0.4650760789685364,96.53492392103146
836,1968.953,0.0,96.53290291296113
837,1971.186,0.4691080316076466,96.53089196839235
838,1973.418,0.0,96.52889119426244
839,1975.650,2.473099302220845,96.52690069777915
840,1977.881,0.47507941357922334,96.52492058642078
841,1980.111,0.47704903206408744,96.52295096793591
842,1982.340,0.4790080496564144,96.52099195034359
843,1984.569,1.4809563580668765,96.51904364193312
844,1986.797,1.482893848735884,96.51710615126412
845,1989.023,0.48482041283361355,96.51517958716639
846,1991.249,0.4867359412600223,96.51326405873998
847,1993.474,2.4886403246449618,96.51135967535504
848,1995.699,2.4905334533481778,96.50946654665182
849,1997.922,1.4924152174592962,96.5075847825407
850,2000.145,1.4942855067980076,96.50571449320199
851,2002.367,1.4961442109139682,96.50385578908603
852,2004.588,1.497991219086913,96.50200878091309
853,2006.808,2.4998264203267127,96.50017357967329
854,2009.028,0.5016497033733742,96.49835029662663
855,2011.246,0.5034609566970829,96.49653904330292
856,2013.464,1.5052600684982878,96.49473993150171
857,2015.681,1.5070469267077158,96.49295307329228
858,2017.898,1.5088214189864146,96.49117858101359
859,2020.113,1.5105834327257952,96.4894165672742
860,2022.328,0.5123328550476742,96.48766714495233
861,2024.541,0.5140695728043596,96.48593042719564
862,2026.754,0.5157934725785935,96.4842065274214
863,2028.966,0.5175044406837088,96.48249555931629
864,2031.178,0.5192023631635863,96.48079763683641
865,2033.388,2.5208871257927683,96.47911287420723
866,2035.598,0.5225586140764165,96.47744138592358
867,2037.807,0.0,96.47578328674956
868,2040.015,2.525861308281492,96.47413869171851
869,2042.222,1.527492283867005,96.472507716133
870,2044.429,0.5291095244352846,96.47089047556472
871,2046.634,0.5307129141454823,96.46928708585452
872,2048.839,0.5323023368876818,96.46769766311232
873,2051.043,0.5338776762829696,96.46612232371703
874,2053.247,0.535438815683392,96.46456118431661
875,2055.449,0.0,96.46301436182793
876,2057.651,0.0,96.46148197343678
877,2059.851,1.5400358634022098,96.45996413659779
878,2062.052,1.5415390309655805,96.45846096903442
879,2064.251,1.5430274112610647,96.45697258873894
880,2066.449,1.5445008860277198,96.45549911397228
881,2068.647,2.5459593367358906,96.45404066326411
882,2070.844,0.0,96.45259735541276
883,2073.040,1.5488306905148619,96.45116930948514
884,2075.235,2.550243355183298,96.4497566448167
885,2077.429,1.551640518988549,96.44835948101145
886,2079.623,1.5530220620581616,96.44697793794184
887,2081.815,1.554387864251197,96.4456121357488
888,2084.007,0.0,96.4442621948416
889,2086.199,2.557071764102119,96.44292823589788
890,2088.389,0.5583896201364098,96.44161037986359
891,2090.579,1.5596912520470738,96.44030874795293
892,2092.767,1.5609765383516816,96.43902346164832
893,2094.955,1.5622453572996449,96.43775464270036
894,2097.143,1.5634975868722307,96.43650241312777
895,2099.329,0.5647331047826185,96.43526689521738
896,2101.514,2.565951788475928,96.43404821152407
897,2103.699,1.5671535151292915,96.43284648487071
898,2105.883,0.5683381616518801,96.43166183834812
899,2108.066,1.5695056046849487,96.43049439531505
900,2110.249,0.5706557206018488,96.42934427939815
901,2112.430,2.5717883855081283,96.42821161449187
902,2114.611,1.5729034752415316,96.42709652475847
903,2116.791,1.5740008653720707,96.42599913462793
904,2118.970,0.575080431202025,96.42491956879797
905,2121.149,0.5761420477660408,96.42385795223396
906,2123.326,0.5771855898311316,96.42281441016887
907,2125.503,2.5782109318967343,96.42178906810327
908,2127.679,2.579217948194753,96.42078205180525
909,2129.854,0.0,96.41979348731039
910,2132.029,0.5811764990782677,96.41882350092173
911,2134.202,1.5821277807903016,96.4178722192097
912,2136.375,0.5830602309879112,96.41693976901209
913,2138.547,0.5839737225659718,96.41602627743403
914,2140.718,0.5848681281520953,96.4151318718479
915,2142.889,2.5857433201066584,96.41425667989334
916,2145.058,2.5865991705228453,96.41340082947715
917,2147.227,2.5874355512267044,96.4125644487733
918,2149.395,1.5882523337771346,96.41174766622287
919,2151.563,1.589049389466041,96.41095061053396
920,2153.729,2.589826589318264,96.41017341068174
921,2155.895,2.590583804091679,96.40941619590832
922,2158.060,1.591320904277211,96.40867909572279
923,2160.224,0.5920377600989468,96.40796223990105
924,2162.387,2.5927342415140515,96.40726575848595
925,2164.550,0.0,96.40658978178703
926,2166.711,2.5940655596192954,96.4059344403807
927,2168.872,0.5947001348899619,96.40529986511004
928,2171.033,1.5953138129152222,96.40468618708478
929,2173.192,0.5959064623186805,96.40409353768132
930,2175.351,0.0,96.40352204854264
931,2177.508,0.5970281484217139,96.40297185157829
932,2179.665,1.597556921035732,96.40244307896427
933,2181.822,1.5980641368569053,96.4019358631431
934,2183.977,2.598549663176314,96.40145033682369
935,2186.132,1.599013367018685,96.40098663298131
936,2188.285,1.5994551151423764,96.40054488485762
937,2190.439,2.5998747740394776,96.40012522596052
938,2192.591,1.600272209935838,96.39972779006416
939,2194.742,0.6006472887910661,96.39935271120893
940,2196.893,1.6009998762986584,96.39900012370134
941,2199.043,1.601329837885956,96.39867016211404
942,2201.192,0.0,96.39836296128577
943,2203.341,0.0,96.39807865632127
944,2205.488,1.602182617408701,96.3978173825913
945,2207.635,2.6024207242674464,96.39757927573255
946,2209.781,2.6026355283523657,96.39736447164763
947,2211.926,1.602826893494992,96.39717310650501
948,2214.071,2.602994683261045,96.39700531673896
949,2216.214,0.6031387609504719,96.39686123904953
950,2218.357,0.6032589895974638,96.39674101040254
951,2220.499,1.6033552319705535,96.39664476802945
952,2222.641,2.603427350572602,96.3965726494274
953,2224.781,0.6034752076408836,96.39652479235912
954,2226.921,1.6034986651470717,96.39650133485293
955,2229.060,1.6034975847973811,96.39650241520262
956,2231.198,0.6034718280324824,96.39652817196752
957,2233.336,0.603421256027687,96.39657874397231
958,2235.472,1.6033457296928475,96.39665427030715
959,2237.608,0.0,96.3967548903275
960,2239.743,0.6031192563458916,96.39688074365411
961,2241.878,0.6029680298269682,96.39703197017303
962,2244.011,1.6027912899644718,96.39720871003553
963,2246.144,1.6025888963419987,96.397411103658
964,2248.276,0.0,96.39763929172204
965,2250.407,1.6021065848257194,96.39789341517428
966,2252.538,0.6018263847735597,96.39817361522644
967,2254.667,0.0,96.39848003335523
968,2256.796,2.6011871886976934,96.3988128113023
969,2258.924,0.6008279089257513,96.39917209107425
970,2261.052,0.6004419850574436,96.39955801494256
971,2263.178,2.6000292745564906,96.39997072544351
972,2265.304,0.0,96.40041036537819
973,2267.429,1.599122922187533,96.40087707781247
974,2269.553,0.5986289939231426,96.40137100607686
975,2271.677,1.598107706233435,96.40189229376656
976,2273.800,0.5975589152585599,96.40244108474144
977,2275.921,0.5969824768741177,96.40301752312588
978,2278.043,1.5963782466912022,96.4036217533088
979,2280.163,0.0,96.40425391994366
980,2282.283,2.5950858320516943,96.4049141679483
981,2284.401,0.5943973574949695,96.40560264250503
982,2286.520,0.0,96.4063194890605
983,2288.637,0.592935146674364,96.40706485332564
984,2290.753,0.0,96.4078388812757
985,2292.869,0.5913582808498319,96.40864171915017
986,2294.984,0.5905264865472901,96.40947351345271
987,2297.098,0.0,96.41033441095114
988,2299.212,2.588775441322653,96.41122455867735
989,2301.325,0.5878558960726536,96.41214410392735
990,2303.437,1.5869068057388631,96.41309319426114
991,2305.548,0.5859280224973133,96.41407197750269
992,2307.658,0.584919398260098,96.4150806017399
993,2309.768,0.0,96.41611921532458
994,2311.877,1.5828120331275954,96.4171879668724
995,2313.985,0.0,96.41828700526281
996,2316.092,0.5805835203609746,96.41941647963903
997,2318.199,1.5794234605920252,96.42057653940797
998,2320.304,0.5782326657597139,96.42176733424029
999,2322.409,0.5770109859298032,96.4229890140702
1000,2324.514,1.57575827090443,96.42424172909557
1001,2326.617,1.5744743702222195,96.42552562977778
1002,2328.720,2.5731591331582706,96.42684086684173
1003,2330.822,0.0,96.42818759127577
1004,2332.923,1.570434045668307,96.4295659543317
1005,2335.024,2.5690238924753572,96.43097610752464
1006,2337.123,1.5675817973668842,96.43241820263312
1007,2339.222,1.5661076083011238,96.43389239169888
1008,2341.320,0.5646011729730418,96.43539882702696
1009,2343.418,0.5630623388143761,96.43693766118562
1010,2345.514,1.5614909529937648,96.43850904700624
1011,2347.610,0.5598868624166755,96.44011313758332
1012,2349.705,3.558249913725504,96.4417500862745
1013,2351.800,2.5565799532996465,96.44342004670035
1014,2353.893,2.5548768272554554,96.44512317274454
1015,2355.986,0.0,96.44685961855362
1016,2358.078,0.5513704614629376,96.44862953853706
1017,2360.170,1.5495669126327982,96.4504330873672
1018,2362.260,1.5477295800207997,96.4522704199792
1019,2364.350,0.5458583084290041,96.454141691571
1020,2366.439,1.5439529423967429,96.45604705760326
1021,2368.527,0.0,96.45798667379933
1022,2370.615,1.5400393038547548,96.45996069614525
1023,2372.702,0.0,96.4619692808896
