# kind,background_subtracted
# version_label,v1_03
# poly_order,5
# iterations_run,7
pixel_index,raman_shift_cm-1,intensity,background_intensity
0,-224.846,2.250296772983404,96.7497032270166
1,-221.778,1.2476622588115305,96.75233774118847
2,-218.712,2.2450204834991183,96.75497951650088
3,-215.647,0.24237164337920092,96.7576283566208
4,-212.583,1.2397159336798325,96.76028406632017
5,-209.521,2.2370535485265037,96.7629464514735
6,-206.460,1.2343846809445722,96.76561531905543
7,-203.399,1.231709522861621,96.76829047713838
8,-200.340,1.2290282651099744,96.77097173489003
9,-197.283,0.22634109742902808,96.77365890257097
10,-194.226,2.2236482084677647,96.77635179153224
11,-191.171,1.2209497857870701,96.77905021421293
12,-188.116,1.2182460158622206,96.78175398413778
13,-185.064,0.21553708408529815,96.7844629159147
14,-182.012,0.2128231747675926,96.78717682523241
15,-178.961,0.21010447114204567,96.78989552885795
16,-175.912,0.2073811553656384,96.79261884463436
17,-172.864,1.2046534085218497,96.79534659147815
18,-169.817,1.2019214106230436,96.79807858937696
19,-166.771,0.0,96.80081465938711
20,-163.726,1.1964453763688425,96.80355462363116
21,-160.683,2.1937016947044725,96.80629830529553
22,-157.641,2.190954471371967,96.80904552862803
23,-154.600,2.1882038810644957,96.8117961189355
24,-151.560,1.1854500974186664,96.81454990258133
25,-148.521,0.18269329301692494,96.81730670698308
26,-145.484,2.179933639389972,96.82006636061003
27,-142.447,1.1771713070191936,96.8228286929808
28,-139.412,1.1744064653391177,96.82559353466088
29,-136.379,2.1716392827397613,96.82836071726024
30,-133.346,1.1688699265691014,96.8311300734309
31,-130.314,1.1660985631354919,96.83390143686451
32,-127.284,3.1633253577100646,96.83667464228994
33,-124.255,0.16055047452915971,96.83944952547084
34,-121.227,1.1577740767967697,96.84222592320323
35,-118.200,1.1549963266869128,96.84500367331309
36,-115.175,0.1522173853460771,96.84778261465392
37,-112.150,0.14943741289569346,96.8505625871043
38,-109.127,0.0,96.85334343156556
39,-106.105,1.1438750100407589,96.85612498995924
40,-103.084,3.141092894775255,96.85890710522474
41,-100.065,2.1383103786831015,96.8616896213169
42,-97.046,2.1355276167964803,96.86447238320352
43,-94.029,2.132744763136955,96.86725523686304
44,-91.013,1.1299619707179716,96.87003802928203
45,-87.998,2.1271793915472017,96.8728206084528
46,-84.984,2.124397176629003,96.875602823371
47,-81.972,1.1216154759668484,96.87838452403315
48,-78.960,0.0,96.88116556143429
49,-75.950,0.11605421243453407,96.88394578756547
50,-72.941,0.11327494458859633,96.8867250554114
51,-69.933,0.0,96.88950321894804
52,-66.927,0.10771986685989532,96.8922801331401
53,-63.921,0.1049443460613162,96.89505565393868
54,-60.917,1.1021703617211642,96.89782963827884
55,-57.914,0.09939805592283335,96.90060194407717
56,-54.912,1.0966275697706322,96.90337243022937
57,-51.911,2.0938590433921433,96.90614095660786
58,-48.912,0.09109261594072393,96.90890738405928
59,-45.913,1.0883284255978367,96.91167157440216
60,-42.916,1.0855666095755225,96.91443339042448
61,-39.920,1.0828073041188162,96.91719269588118
62,-36.925,1.0800506445081908,96.91994935549181
63,-33.931,1.0772967650619023,96.9227032349381
64,-30.939,2.074545799138491,96.92545420086151
65,-27.947,3.0717978791391687,96.92820212086083
66,-24.957,3.069053136510206,96.9309468634898
67,-21.968,3.066311701745448,96.93368829825455
68,-18.980,2.0635737043886024,96.9364262956114
69,-15.993,0.06083927303581049,96.93916072696419
70,-13.008,1.0581085353379223,96.94189146466208
71,-10.023,0.055381618003025324,96.94461838199697
72,-7.040,0.05265864679880394,96.9473413532012
73,-4.058,0.049939746554997555,96.950060253445
74,-1.077,0.047225041165788184,96.95277495883421
75,1.903,0.0,96.95548534640774
76,4.881,2.041808705864753,96.95819129413525
77,7.859,2.039107319085389,96.96089268091461
78,10.835,1.036410613430391,96.96358938656961
79,13.810,1.0337187081525485,96.96628129184745
80,16.784,2.031031721583659,96.96896827841634
81,19.757,0.02834977113687387,96.97165022886313
82,22.728,3.025672973309227,96.97432702669077
83,25.699,0.0,96.97699855631605
84,28.668,1.0203352969329984,96.979664703067
85,31.636,0.017674646819330064,96.98232535318067
86,34.603,0.015019606199501823,96.9849803938005
87,37.569,1.0123702870259308,96.98762971297407
88,40.534,1.009726800349398,96.9902731996506
89,43.497,2.0070892563214926,96.99291074367851
90,46.460,1.0044577641969425,96.99554223580306
91,49.421,0.0,96.99816756766387
92,52.381,0.0,97.00078663179258
93,55.340,0.0,97.00339932161032
94,58.297,1.9939944685746127,97.00600553142539
95,61.254,1.9913948435692532,97.00860515643075
96,64.209,0.9888019072983099,97.01119809270169
97,67.164,0.9862157628066512,97.01378423719335
98,70.117,0.9836365122616826,97.01636348773832
99,73.069,1.9810642569558183,97.01893574304418
100,76.020,0.0,97.02150090269114
101,78.969,1.9759411328703749,97.02405886712963
102,81.918,0.9733904623222571,97.02660953767774
103,84.865,2.970847183480984,97.02915281651902
104,87.811,1.9683113933001692,97.03168860669983
105,90.757,0.0,97.03421681212713
106,93.700,2.9632626624341327,97.03673733756587
107,96.643,1.960749911363294,97.0392500886367
108,99.585,0.9582450281864681,97.04175497181353
109,102.525,2.9557481055789623,97.04425189442104
110,105.465,0.9532592353676819,97.04674076463232
111,108.403,1.9507785085335456,97.04922149146645
112,111.340,0.9483060152139444,97.05169398478606
113,114.276,0.9458418447051145,97.05415815529489
114,117.211,2.9433860854645673,97.05661391453543
115,120.144,0.9409388251135624,97.05906117488644
116,123.077,2.9385001504394666,97.06149984956053
117,126.008,0.9360701473981834,97.06392985260182
118,128.938,1.933648901116598,97.0663510988834
119,131.868,0.0,97.06876350410501
120,134.795,1.9288330152094488,97.07116698479055
121,137.722,0.9264385417142904,97.07356145828571
122,140.648,1.9240531572445008,97.0759468427555
123,143.572,0.0,97.0783230571819
124,146.496,0.9193099786386512,97.08069002136135
125,149.418,0.9169523440975951,97.0830476559024
126,152.339,1.914604117776733,97.08539588222327
127,155.259,1.9122653774505949,97.0877346225494
128,158.178,0.0,97.09006379991106
129,161.096,1.907616661859052,97.09238333814095
130,164.012,0.9053068381282969,97.0946931618717
131,166.928,0.0,97.09699319653356
132,169.842,0.0,97.09928336835188
133,172.755,0.0,97.10156360434472
134,175.667,0.8961661676795103,97.10383383232049
135,178.578,0.0,97.10609398087543
136,181.488,1.8916560206087638,97.10834397939124
137,184.397,0.0,97.11058375803269
138,187.304,0.0,97.11281324774515
139,190.211,0.0,97.11503238025216
140,193.116,0.8827589119469224,97.11724108805308
141,196.020,1.880560695579419,97.11943930442058
142,198.923,0.0,97.12162696339828
143,201.825,0.0,97.12380399979834
144,204.726,2.8740296508010346,97.12597034919897
145,207.625,1.8718740520579331,97.12812594794207
146,210.524,0.8697292668692285,97.13027073313077
147,213.421,1.8675953573729203,97.13240464262708
148,216.318,0.0,97.13452761504936
149,219.213,1.8633604102300012,97.13663958977
150,222.107,1.8612594930870614,97.13874050691294
151,225.000,1.8591696926487487,97.14083030735125
152,227.891,2.8570910672952294,97.14290893270477
153,230.782,1.8550236746624051,97.1449763253376
154,233.672,0.0,97.14703242835576
155,236.560,0.8509228143953038,97.1490771856047
156,239.447,1.848889458333062,97.15111054166694
157,242.333,0.8468675581403744,97.15313244185963
158,245.218,1.8448571677679269,97.15514283223207
159,248.102,0.0,97.15714165956341
160,250.985,0.8408711286398898,97.15912887136011
161,253.867,1.8388955841463996,97.1611044158536
162,256.748,0.8369317580021942,97.1630682419978
163,259.627,1.8349797005332533,97.16502029946675
164,262.505,2.8330394613478376,97.16696053865216
165,265.383,1.8311110893389895,97.16888891066101
166,268.259,0.8291946326869066,97.1708053673131
167,271.134,0.8272901388613718,97.17270986113863
168,274.008,0.0,97.17460234537585
169,276.880,0.8235172260314982,97.1764827739685
170,279.752,1.8216488984364219,97.17835110156358
171,282.623,2.8197927164912926,97.18020728350871
172,285.492,0.0,97.18205127584991
173,288.360,1.8161169646709396,97.18388303532906
174,291.228,1.8142974806185066,97.1857025193815
175,294.094,2.812490313866377,97.18750968613362
176,296.959,1.8106955055995542,97.18930449440045
177,299.823,0.8089130963167577,97.19108690368324
178,302.685,1.807143125833008,97.19285687416699
179,305.547,1.8053856332818867,97.19461436671811
180,308.408,0.8036406571180663,97.19635934288193
181,311.267,1.801908235119683,97.19809176488032
182,314.126,0.8001884043907666,97.19981159560923
183,316.983,0.0,97.20151879863633
184,319.839,1.7967866618014767,97.20321333819852
185,322.694,1.7951048208004323,97.20489517919957
186,325.548,0.793435712792359,97.20656428720764
187,328.401,1.7917793715470651,97.20822062845293
188,331.253,2.7901358301748047,97.2098641698252
189,334.103,0.7885051211286367,97.21149487887136
190,336.953,0.0,97.21311272379309
191,339.801,0.0,97.21471767344434
192,342.649,1.7836903026709905,97.21630969732901
193,345.495,1.7821112344015404,97.21788876559846
194,348.340,1.780545150950914,97.21945484904909
195,351.184,1.778992080880073,97.22100791911993
196,354.027,1.7774520521097372,97.22254794789026
197,356.869,0.7759250919228577,97.22407490807714
198,359.709,0.774411226967004,97.225588773033
199,362.549,0.0,97.2270895167432
200,365.388,1.7714228861763104,97.22857711382369
201,368.225,1.7699484604815297,97.23005153951847
202,371.061,1.768487230302739,97.23151276969726
203,373.897,3.7670392191469517,97.23296078085305
204,376.731,0.7656044499003372,97.23439555009966
205,379.564,0.7641829448306083,97.23581705516939
206,382.396,0.0,97.23722527441049
207,385.227,0.7613798132151715,97.23862018678483
208,388.057,2.7599982281345774,97.24000177186542
209,390.885,2.758629990165943,97.24137000983406
210,393.713,1.7572751185211786,97.24272488147882
211,396.539,0.7559336318082899,97.24406636819171
212,399.365,0.0,97.24539445196622
213,402.189,0.753290884605093,97.2467091153949
214,405.012,0.751989658333045,97.24801034166696
215,407.835,0.7507018854342249,97.24929811456578
216,410.656,0.0,97.25057241846658
217,413.476,2.7481667616660275,97.25183323833397
218,416.295,0.7469194402805073,97.25308055971949
219,419.112,0.7456856312407609,97.25431436875924
220,421.929,0.7444653478285659,97.25553465217143
221,424.745,0.7432586027460246,97.25674139725398
222,427.559,1.742065408117952,97.25793459188205
223,430.373,1.7408857754943199,97.25911422450568
224,433.185,2.7397197158526296,97.26028028414737
225,435.996,0.7385672396003997,97.2614327603996
226,438.807,0.7374283565775386,97.26257164342246
227,441.616,0.7363030760588032,97.2636969239412
228,444.424,1.7351914067561864,97.26480859324381
229,447.231,1.7340933568213188,97.26590664317868
230,450.037,1.7330089338479695,97.26699106615203
231,452.842,0.0,97.26806185512561
232,455.645,0.7308809963857783,97.26911900361422
233,458.448,0.729837494316655,97.27016250568334
234,461.250,0.0,97.27119235594668
235,464.050,1.7277914504363139,97.27220854956369
236,466.849,2.7267889177627183,97.27321108223728
237,469.648,0.7258000497886883,97.27419995021131
238,472.445,0.7248248497318457,97.27517515026815
239,475.241,0.7238633202736509,97.27613667972635
240,478.036,2.7229154635618755,97.27708453643812
241,480.830,0.7219812812130328,97.27801871878697
242,483.623,0.7210607743147364,97.27893922568526
243,486.415,0.0,97.27984605657183
244,489.206,2.7192607885905034,97.2807392114095
245,491.996,3.718381309317323,97.28161869068268
246,494.784,1.7175155046049753,97.28248449539502
247,497.572,4.716663372933112,97.28333662706689
248,500.358,6.715824912267024,97.28417508773298
249,503.144,9.715000120060068,97.28499987993993
250,505.928,13.71418899325613,97.28581100674387
251,508.712,13.713391528291993,97.286608471708
252,511.494,13.7126077210998,97.2873922789002
253,514.275,8.711837567109484,97.28816243289052
254,517.055,2.711081061251093,97.2889189387489
255,519.834,1.7103381979573697,97.28966180204263
256,522.612,2.70960897116602,97.29039102883398
257,525.389,1.7088933743222015,97.2911066256778
258,528.165,0.708191400380997,97.291808599619
259,530.940,0.7075030418097015,97.2924969581903
260,533.713,0.70682829059038,97.29317170940962
261,536.486,2.706167138222199,97.2938328617778
262,539.257,0.0,97.29448042427612
263,542.028,1.7048855936361207,97.29511440636388
264,544.797,1.7042651820240167,97.29573481797598
265,547.566,0.7036583304794561,97.29634166952054
266,550.333,0.7030650281235893,97.29693497187641
267,553.099,0.0,97.29751473639078
268,555.864,1.701919025123189,97.29808097487681
269,558.629,1.7013663003888695,97.29863369961113
270,561.392,0.7008270766685598,97.29917292333144
271,564.154,1.7003013407658614,97.29969865923414
272,566.915,0.6997890790281645,97.30021092097184
273,569.674,1.6992902773490215,97.30070972265098
274,572.433,0.6988049211705771,97.30119507882942
275,575.191,0.6983329954860267,97.30166700451397
276,577.948,0.6978744848419893,97.30212551515801
277,580.703,0.6974293733409382,97.30257062665906
278,583.458,1.6969976446436306,97.30300235535637
279,586.211,0.0,97.30342071802845
280,588.964,0.6961742681092744,97.30382573189073
281,591.715,1.6957825854069455,97.30421741459305
282,594.466,0.6954042157826734,97.30459578421733
283,597.215,0.6950391407249299,97.30496085927507
284,599.963,0.6946873412950225,97.30531265870498
285,602.710,0.694348798129468,97.30565120187053
286,605.457,1.6940234914424508,97.30597650855755
287,608.202,0.0,97.30628859897182
288,610.946,0.0,97.30658749373659
289,613.689,1.6931267861097865,97.30687321389021
290,616.431,1.6928542191162705,97.30714578088373
291,619.172,1.6925947834215833,97.30740521657842
292,621.911,2.692348456756619,97.30765154324338
293,624.650,0.0,97.30788478355312
294,627.388,1.6918950394148595,97.30810496058514
295,630.125,0.0,97.3083120978175
296,632.860,0.6914937808735857,97.30850621912641
297,635.595,0.6913126512161938,97.3086873487838
298,638.328,0.6911444885451061,97.3088555114549
299,641.061,0.69098926780417,97.30901073219583
300,643.792,0.0,97.30915303645115
301,646.523,1.690717549948502,97.3092824500515
302,649.252,1.6906010007888739,97.30939899921113
303,651.980,0.690497289474564,97.30950271052544
304,654.708,1.690406389031324,97.30959361096868
305,657.434,1.6903282721086015,97.3096717278914
306,660.159,1.6902629109818719,97.30973708901813
307,662.883,1.6902102775550958,97.3097897224449
308,665.606,0.0,97.30982965663685
309,668.328,1.6901430795742414,97.30985692042576
310,671.049,1.690128456992312,97.30987154300769
311,673.769,0.0,97.30987355394053
312,676.488,0.6901370168584151,97.30986298314158
313,679.206,1.6901601391148375,97.30983986088516
314,681.923,0.6901957821998792,97.30980421780012
315,684.639,0.0,97.30975608486749
316,687.354,0.6903045065820095,97.30969549341799
317,690.067,0.6903775248702857,97.30962247512971
318,692.780,0.6904629379743881,97.30953706202561
319,695.492,0.6905607135289245,97.30943928647108
320,698.202,1.6906708188284227,97.30932918117158
321,700.912,1.6907932208297751,97.30920677917022
322,703.621,1.6909278861546966,97.3090721138453
323,706.328,1.6910747810921123,97.30892521890789
324,709.035,0.0,97.30876612839945
325,711.740,0.6914051233106306,97.30859487668937
326,714.444,0.6915885015274341,97.30841149847257
327,717.148,1.6917839712329368,97.30821602876706
328,719.850,1.691991497088452,97.30800850291155
329,722.552,0.0,97.30778895656299
330,725.252,0.6924425743058009,97.3075574256942
331,727.951,0.6926860534086074,97.30731394659139
332,730.649,0.0,97.30705855585178
333,733.347,0.0,97.3067912903812
334,736.043,0.0,97.30651218739156
335,738.738,0.693778715601411,97.30622128439859
336,741.432,1.6940813807807018,97.3059186192193
337,744.125,2.694395770030411,97.30560422996959
338,746.817,0.694721844938158,97.30527815506184
339,749.508,0.6950595667975108,97.30494043320249
340,752.198,1.6954088966103882,97.30459110338961
341,754.887,1.6957697950895039,97.3042302049105
342,757.575,0.6961422226607965,97.3038577773392
343,760.262,1.696526139465817,97.30347386053418
344,762.948,1.6969215053641449,97.30307849463586
345,765.633,1.6973282799358742,97.30267172006413
346,768.317,1.6977464224839593,97.30225357751604
347,770.999,1.6981758920366872,97.30182410796331
348,773.681,0.6986166473500504,97.30138335264995
349,776.362,2.699068646910206,97.3009313530898
350,779.042,1.6995318489358908,97.30046815106411
351,781.720,0.7000062113808241,97.29999378861918
352,784.398,0.0,97.29950830806384
353,787.075,0.7009882480328713,97.29901175196713
354,789.751,0.0,97.29850416315581
355,792.425,0.7020144152880192,97.29798558471198
356,795.099,2.702543940029372,97.29745605997063
357,797.771,2.7030843674827736,97.29691563251723
358,800.443,0.0,97.2963643461853
359,803.114,0.7041977549459659,97.29580224505403
360,805.783,0.7047706265541649,97.29522937344584
361,808.452,0.7053542240761317,97.29464577592387
362,811.119,1.705948502710271,97.29405149728973
363,813.786,0.7065534174190589,97.29344658258094
364,816.451,0.7071689229314444,97.29283107706856
365,819.116,1.707794973745223,97.29220502625478
366,821.779,1.7084315241295371,97.29156847587046
367,824.442,0.0,97.29092147187278
368,827.103,0.7097359395572909,97.29026406044271
369,829.763,0.0,97.28959628798272
370,832.423,1.7110817988857576,97.28891820111424
371,835.081,0.7117701533246787,97.28822984667532
372,837.739,0.7124687282818201,97.28753127171818
373,840.395,0.7131774764932288,97.28682252350677
374,843.050,1.713896350485598,97.2861036495144
375,845.705,0.7146253025787388,97.28537469742126
376,848.358,1.7153642848879542,97.28463571511205
377,851.010,1.716113249326483,97.28388675067352
378,853.662,1.7168721476079298,97.28312785239207
379,856.312,1.7176409312486527,97.28235906875135
380,858.961,0.7184195515702214,97.28158044842978
381,861.610,1.7192079597018193,97.28079204029818
382,864.257,1.7200061065826446,97.27999389341736
383,866.903,1.7208139429643836,97.27918605703562
384,869.549,1.7216314194135833,97.27836858058642
385,872.193,1.722458486314082,97.27754151368592
386,874.836,0.7232950938694387,97.27670490613056
387,877.478,1.7241411921053924,97.27585880789461
388,880.120,0.0,97.27500326912784
389,882.760,0.7258616598470411,97.27413834015296
390,885.399,0.0,97.27326407146336
391,888.037,1.7276194862794512,97.27238051372055
392,890.675,1.7285122822481753,97.27148771775182
393,893.311,0.7294142654522062,97.2705857345478
394,895.946,0.0,97.26967461526002
395,898.580,0.0,97.26875441119851
396,901.214,1.732174826170592,97.26782517382941
397,903.846,2.7331130452275687,97.26688695477243
398,906.477,2.7340601942014047,97.2659398057986
399,909.107,0.0,97.26498377882771
400,911.737,1.735981074074033,97.26401892592597
401,914.365,0.7369547006964723,97.26304529930353
402,916.992,0.7379370486878685,97.26206295131213
403,919.618,1.7389280655574026,97.2610719344426
404,922.244,1.7399276986775192,97.26007230132248
405,924.868,0.7409358952863414,97.25906410471366
406,927.491,0.0,97.2580473975098
407,930.113,0.7429777672659128,97.25702223273409
408,932.735,2.744011336463302,97.2559886635367
409,935.355,0.74505325680758,97.25494674319242
410,937.974,2.7461034749017728,97.25389652509823
411,940.592,2.7471619372291656,97.25283806277083
412,943.210,0.748228590155648,97.25177140984435
413,945.826,0.7493033799322433,97.25069662006776
414,948.441,0.7503862526974387,97.24961374730256
415,951.056,1.751477154479673,97.24852284552033
416,953.669,2.7525760311996663,97.24742396880033
417,956.281,2.7536828286729644,97.24631717132704
418,958.893,4.754797492612269,97.24520250738773
419,961.503,1.7559199686298683,97.24408003137013
420,964.112,2.7570502022400802,97.24294979775992
421,966.721,0.7581881388616836,97.24181186113832
422,969.328,2.759333723820319,97.24066627617968
423,971.935,1.7604869023508911,97.23951309764911
424,974.540,0.7616476196000264,97.23835238039997
425,977.144,1.7628158206284752,97.23718417937152
426,979.748,1.7639914504135135,97.23600854958649
427,982.350,0.7651744538514436,97.23482554614856
428,984.952,1.7663647757598824,97.23363522424012
429,987.552,0.767562360880305,97.2324376391197
430,990.152,1.768767153880404,97.2312328461196
431,992.750,1.7699790993565045,97.2300209006435
432,995.348,0.0,97.22880185816395
433,997.944,1.7724242257799148,97.22757577422009
434,1000.540,0.0,97.22634270441507
435,1003.134,0.7748972955862428,97.22510270441376
436,1005.728,0.0,97.22385582994025
437,1008.321,1.7773978632245502,97.22260213677545
438,1010.912,0.0,97.22134168075469
439,1013.503,0.0,97.2200745177653
440,1016.092,0.7811992962558776,97.21880070374412
441,1018.681,0.7824797053248034,97.2175202946752
442,1021.269,1.783766653412755,97.21623334658725
443,1023.856,0.7850600844486877,97.21493991555131
444,1026.441,0.7863599423216954,97.2136400576783
445,1029.026,2.7876661708833836,97.21233382911662
446,1031.610,0.0,97.21102128604966
447,1034.193,2.7902975153065483,97.20970248469345
448,1036.775,0.7916225187057364,97.20837748129426
449,1039.355,0.0,97.20704633212605
450,1041.935,0.7942909065117618,97.20570909348824
451,1044.514,0.0,97.20436582170308
452,1047.092,0.7969834268865839,97.20301657311342
453,1049.669,1.7983385959198586,97.20166140408014
454,1052.245,1.7996996290201537,97.20030037097985
455,1054.820,0.0,97.19893353020237
456,1057.394,0.8024390618516293,97.19756093814837
457,1059.967,0.0,97.19618265122693
458,1062.539,2.8052012741468815,97.19479872585312
459,1065.110,0.8065907815544193,97.19340921844558
460,1067.681,1.8079858145759005,97.1920141854241
461,1070.250,0.8093863167928106,97.19061368320719
462,1072.818,0.8107922317903302,97.18920776820967
463,1075.385,2.8122035031597505,97.18779649684025
464,1077.951,1.8136200745008892,97.18637992549911
465,1080.517,0.0,97.1849581105755
466,1083.081,0.0,97.18353110844521
467,1085.644,0.0,97.18209897546835
468,1088.207,1.819338232013294,97.1806617679867
469,1090.768,2.820780457678481,97.17921954232152
470,1093.329,1.8222276452291055,97.1777723547709
471,1095.888,0.8236797383924994,97.1763202616075
472,1098.447,2.825136680923876,97.17486331907612
473,1101.004,0.8265984166088316,97.17340158339117
474,1103.561,0.0,97.17193511073437
475,1106.116,0.0,97.17046395725224
476,1108.671,1.8310118209462445,97.16898817905376
477,1111.225,1.8324921677921537,97.16750783220785
478,1113.777,0.8339770272589249,97.16602297274108
479,1116.329,0.0,97.1645336566351
480,1118.880,1.8369600601756417,97.16303993982436
481,1121.430,0.0,97.16154187819357
482,1123.979,0.0,97.16003952757539
483,1126.527,0.8414670562521138,97.15853294374789
484,1129.074,0.8429778175677569,97.15702218243224
485,1131.620,0.8444927007097647,97.15550729929024
486,1134.165,1.8460116500781538,97.15398834992185
487,1136.709,0.8475346101371173,97.15246538986288
488,1139.252,0.8490615254175111,97.15093847458249
489,1141.794,0.8505923405192277,97.14940765948077
490,1144.335,2.85212700011364,97.14787299988636
491,1146.875,2.8536654489460176,97.14633455105398
492,1149.415,0.8552076318378994,97.1447923681621
493,1151.953,1.856753493689638,97.14324650631036
494,1154.490,0.8583029794826587,97.14169702051734
495,1157.027,0.8598560342820178,97.14014396571798
496,1159.562,0.8614126032387617,97.13858739676124
497,1162.097,0.0,97.13702736840769
498,1164.630,1.8645360646729898,97.13546393532701
499,1167.163,1.8661028479043296,97.13389715209567
500,1169.695,1.8676729268055539,97.13232707319445
501,1172.225,0.0,97.13075375300599
502,1174.755,0.8708227541875146,97.12917724581249
503,1177.284,1.8724023942068726,97.12759760579313
504,1179.812,2.8739851129782323,97.12601488702177
505,1182.338,2.8755708565355462,97.12442914346445
506,1184.864,0.877159571022915,97.12284042897709
507,1187.389,2.8787512026971314,97.12124879730287
508,1189.913,1.8803456979299824,97.11965430207002
509,1192.436,1.8819430032107363,97.11805699678926
510,1194.959,0.0,97.11645693485143
511,1197.480,0.0,97.11485416952506
512,1200.000,0.0,97.11324875395397
513,1202.519,1.8883592588451705,97.11164074115483
514,1205.038,0.0,97.1100301840147
515,1207.555,0.891582864711296,97.1084171352887
516,1210.071,0.8931983524024645,97.10680164759754
517,1212.587,0.8948162265749602,97.10518377342504
518,1215.101,0.0,97.10356356511583
519,1217.615,0.0,97.10194107487284
520,1220.128,1.8996836452450623,97.10031635475494
521,1222.639,1.901310543325593,97.0986894566744
522,1225.150,2.9029395676053156,97.09706043239468
523,1227.660,2.9045706664722246,97.09542933352778
524,1230.169,1.9062037884680336,97.09379621153197
525,1232.677,0.907838882290676,97.09216111770932
526,1235.184,0.9094758967967209,97.09052410320328
527,1237.690,0.0,97.08888521899624
528,1240.195,0.9127554840928127,97.08724451590719
529,1242.699,1.9143979554108341,97.08560204458917
530,1245.202,1.9160421444730389,97.08395785552696
531,1247.704,0.9176880009653843,97.08231199903462
532,1250.206,0.0,97.08066452525304
533,1252.706,1.9209845158524104,97.07901548414759
534,1255.206,1.92263507449438,97.07736492550562
535,1257.704,2.9242871010659144,97.07571289893409
536,1260.202,0.9259405461428543,97.07405945385715
537,1262.698,0.9275953604863361,97.07240463951366
538,1265.194,0.0,97.07074850495488
539,1267.689,0.0,97.06909109904193
540,1270.183,0.9325675295565645,97.06743247044344
541,1272.676,0.9342273323668735,97.06577266763313
542,1275.168,0.9358882611126802,97.06411173888732
543,1277.659,0.9375502677173841,97.06244973228262
544,1280.149,0.0,97.06078669569342
545,1282.638,1.9408773232105005,97.0591226767895
546,1285.126,0.9425422769663783,97.05745772303362
547,1287.613,1.9442081183209154,97.05579188167908
548,1290.100,1.9458748002327013,97.0541251997673
549,1292.585,0.9475422758745964,97.0524577241254
550,1295.070,1.9492104986361625,97.05078950136384
551,1297.553,1.9508794221261354,97.04912057787386
552,1300.036,0.0,97.04745099982522
553,1302.517,1.9542191868363545,97.04578081316365
554,1304.998,0.0,97.04411006360851
555,1307.478,2.9575612033496554,97.04243879665034
556,1309.957,0.9592329424515498,97.04076705754845
557,1312.435,0.9609051086715255,97.03909489132847
558,1314.912,0.0,97.03742234277996
559,1317.388,0.9642505435460293,97.03574945645397
560,1319.863,0.0,97.03407627666064
561,1322.337,3.96759715253323,97.03240284746677
562,1324.811,1.9692707873066126,97.03072921269339
563,1327.283,1.970944584086638,97.02905541591336
564,1329.755,2.9726184995511034,97.0273815004489
565,1332.225,0.9742924906307451,97.02570750936925
566,1334.695,2.975966514511825,97.02403348548818
567,1337.163,0.0,97.0223594713616
568,1339.631,0.0,97.02068550928512
569,1342.098,1.9809883587083448,97.01901164129166
570,1344.564,0.9826620908509938,97.017337909149
571,1347.029,1.9843356456426164,97.01566435435738
572,1349.493,1.986008981852919,97.01399101814708
573,1351.956,1.987682058524058,97.01231794147594
574,1354.418,2.989354834972943,97.01064516502706
575,1356.880,0.9910272707937509,97.00897272920625
576,1359.340,0.0,97.0073006741397
577,1361.800,0.9943709603284816,97.00562903967152
578,1364.258,1.9960421346386994,97.0039578653613
579,1366.716,1.997712809518248,97.00228719048175
580,1369.172,1.9993829459837542,97.00061705401625
581,1371.628,1.0010525053436226,96.99894749465638
582,1374.083,2.002721449200422,96.99727855079958
583,1376.537,0.0,96.99561026054667
584,1378.990,2.006057338300522,96.99394266169948
585,1381.442,0.007724208241626229,96.99227579175837
586,1383.893,1.0093903120801428,96.99060968791986
587,1386.344,0.011055612925815694,96.98894438707418
588,1388.793,2.0127200741971194,96.98727992580288
589,1391.241,2.014383659623647,96.98561634037635
590,1393.689,0.016046333248539213,96.98395366675146
591,1396.135,2.017708059430859,96.98229194056914
592,1398.581,1.0193688028481205,96.98063119715188
593,1401.026,1.0210285284986043,96.9789714715014
594,1403.470,1.0226872017037891,96.97731279829621
595,1405.913,3.0243447881108523,96.97565521188915
596,1408.355,0.02600125369501427,96.97399874630499
597,1410.796,2.0276565647619833,96.97234343523802
598,1413.236,1.029310687950371,96.97068931204963
599,1415.675,2.0309635902341228,96.96903640976588
600,1418.114,2.032615238924933,96.96738476107507
601,1420.551,2.03426560167469,96.96573439832531
602,1422.988,0.0359146464778064,96.9640853535222
603,1425.423,2.037562341673791,96.96243765832621
604,1427.858,0.03920865594952261,96.96079134405048
605,1430.292,2.040853558341766,96.95914644165823
606,1432.725,2.042497018239544,96.95750298176046
607,1435.157,1.044139005386583,96.95586099461342
608,1437.588,2.0457794898836994,96.9542205101163
609,1440.018,0.04741844219130087,96.9525815578087
610,1442.447,0.04905583313168904,96.95094416686831
611,1444.876,0.050691633891574384,96.94930836610843
612,1447.303,2.052325816024478,96.94767418397552
613,1449.730,3.0539583514531046,96.9460416485469
614,1452.156,1.0555892124718298,96.94441078752817
615,1454.580,3.057218371749073,96.94278162825093
616,1457.004,3.058845802329728,96.94115419767027
617,1459.427,1.0604714776376198,96.93952852236238
618,1461.849,2.0620953714778523,96.93790462852215
619,1464.270,1.0637174580393207,96.93628254196068
620,1466.690,2.065337711897044,96.93466228810296
621,1469.110,3.066956108014651,96.93304389198535
622,1471.528,1.0685726217467533,96.93142737825325
623,1473.946,0.07018722884140516,96.9298127711586
624,1476.362,2.0717999054425036,96.9282000945575
625,1478.778,1.073410628092219,96.92658937190778
626,1481.193,1.075019373733383,96.92498062626662
627,1483.607,0.07662611971196043,96.92337388028804
628,1486.020,1.0782308437794654,96.92176915622053
629,1488.432,0.07983352409530653,96.9201664759047
630,1490.843,1.0814341392293016,96.9185658607707
631,1493.253,2.0830326681640514,96.91696733183595
632,1495.663,1.0846290902973692,96.91537090970263
633,1498.071,0.0862233854447112,96.91377661455529
634,1500.479,0.08781553384154961,96.91218446615845
635,1502.886,0.08940551614588799,96.91059448385411
636,1505.292,1.0909933134405776,96.90900668655942
637,1507.697,1.0925789072358043,96.9074210927642
638,1510.101,1.0941622794714903,96.90583772052851
639,1512.504,3.0957434125197096,96.90425658748029
640,1514.906,1.097322289187133,96.90267771081287
641,1517.307,1.0988988927173864,96.90110110728261
642,1519.708,3.100473206793552,96.89952679320645
643,1522.107,1.1020452155405565,96.89795478445944
644,1524.506,1.103614903527557,96.89638509647244
645,1526.904,2.1051822557704156,96.89481774422958
646,1529.301,1.106747257734085,96.89325274226591
647,1531.697,2.10830989533504,96.89169010466496
648,1534.092,0.10987015494370667,96.8901298450563
649,1536.486,0.1114280233868783,96.88857197661312
650,1538.879,0.11298348795011748,96.88701651204988
651,1541.272,0.0,96.88546346361981
652,1543.663,2.1160871568875166,96.88391284311248
653,1546.054,2.1176353381485313,96.88236466185147
654,1548.444,2.119181069308169,96.88081893069183
655,1550.832,1.1207243399822318,96.87927566001777
656,1553.220,0.12226514025981317,96.87773485974019
657,1555.607,0.0,96.87619653929423
658,1557.994,0.12533929236309405,96.8746607076369
659,1560.379,0.1268726267553717,96.87312737324463
660,1562.763,2.128403455889128,96.87159654411087
661,1565.147,2.1299317722563416,96.87006822774366
662,1567.529,0.0,96.86854243116316
663,1569.911,0.13298083910063951,96.86701916089936
664,1572.292,1.1345015770105107,96.86549842298949
665,1574.672,2.136019777024245,96.86398022297575
666,1577.051,1.1375354340972166,96.86246456590278
667,1579.429,1.1390485436846802,96.86095145631532
668,1581.807,2.1405591017442873,96.85944089825571
669,1584.183,2.1420671047384445,96.85793289526156
670,1586.559,1.1435725496367866,96.85642745036321
671,1588.933,0.0,96.8549245660815
672,1591.307,1.1465757555749292,96.85342424442507
673,1593.680,2.14807351311174,96.85192648688826
674,1596.052,1.1495687055515873,96.85043129444841
675,1598.423,0.15106133243638453,96.84893866756362
676,1600.794,0.0,96.84744860617023
677,1603.163,0.15403889031952644,96.84596110968047
678,1605.531,0.15552382302000467,96.84447617698
679,1607.899,0.1570061935745457,96.84299380642545
680,1610.266,0.15848600415787928,96.84151399584212
681,1612.632,2.15996325747858,96.84003674252142
682,1614.997,1.1614379567814836,96.83856204321852
683,1617.361,1.162910105850031,96.83708989414997
684,1619.724,0.0,96.83562029099117
685,1622.086,0.16584677112594193,96.83415322887406
686,1624.448,0.16731129761539876,96.8326887023846
687,1626.808,1.1687732944395322,96.83122670556047
688,1629.168,1.1702327681115037,96.8297672318885
689,1631.527,2.1716897256976324,96.82831027430237
690,1633.885,0.17314417481983924,96.82685582518016
691,1636.242,0.1745961236581195,96.82540387634188
692,1638.598,1.1760455809528878,96.82395441904711
693,1640.954,2.1774925560074507,96.82250744399255
694,1643.308,1.1789370586904084,96.82106294130959
695,1645.662,0.1803790994380705,96.81962090056193
696,1648.014,2.181818689256886,96.81818131074311
697,1650.366,0.18325583972587367,96.81674416027413
698,1652.717,2.184690562999009,96.81530943700099
699,1655.067,1.1861228718076973,96.8138771281923
700,1657.417,0.18755277946313242,96.81244722053687
701,1659.765,2.1889802998587555,96.81101970014124
702,1662.112,1.1904054474726848,96.80959455252732
703,1664.459,1.1918282373701174,96.80817176262988
704,1666.805,0.0,96.80675131479427
705,1669.150,0.19466680722617014,96.80533319277383
706,1671.494,0.19608262027236378,96.80391737972764
707,1673.837,1.197496141782068,96.80250385821793
708,1676.179,0.1989073897921685,96.80109261020783
709,1678.520,1.200316382941196,96.7996836170588
710,1680.861,0.2017231404717137,96.79827685952829
711,1683.201,1.203127682232676,96.79687231776732
712,1685.539,2.2045300286819867,96.79546997131801
713,1687.877,1.2059302008887727,96.79406979911123
714,1690.214,0.20732822053589928,96.7926717794641
715,1692.551,0.20872410992235757,96.79127589007764
716,1694.886,1.2101178919656803,96.78988210803432
717,1697.220,2.2115095902044004,96.7884904097956
718,1699.554,2.212899228800424,96.78710077119958
719,1701.887,2.214286832541461,96.78571316745854
720,1704.219,2.2156724268434687,96.78432757315653
721,1706.550,1.2170560377530677,96.78294396224693
722,1708.880,1.2184376919499158,96.78156230805008
723,1711.209,0.21981741674922262,96.78018258325078
724,1713.537,2.2211952401040804,96.77880475989592
725,1715.865,1.2225711906079084,96.77742880939209
726,1718.192,1.2239452974969112,96.77605470250309
727,1720.518,0.0,96.77468240934753
728,1722.843,0.22668810060355327,96.77331189939645
729,1725.167,2.2280568585291434,96.77194314147086
730,1727.490,0.22942389626068405,96.77057610373932
731,1729.812,1.2307892462844592,96.76921075371554
732,1732.134,0.23215294174406154,96.76784705825594
733,1734.455,2.23351501644278,96.76648498355722
734,1736.774,0.23487550484600206,96.765124495154
735,1739.093,0.23623444208368483,96.76376555791632
736,1741.411,0.0,96.76240813604726
737,1743.729,1.2389478069194695,96.76105219308053
738,1746.045,1.240302308121997,96.759697691878
739,1748.361,1.24165540537264,96.75834459462736
740,1750.675,1.2430071371603901,96.75699286283961
741,1752.989,2.2443575426533044,96.7556424573467
742,1755.302,2.2457066617009076,96.75429333829909
743,1757.614,2.2470545348366784,96.75294546516332
744,1759.925,2.2484012032803804,96.75159879671962
745,1762.236,1.2497467089405632,96.75025329105944
746,1764.545,1.251091094416907,96.7489089055831
747,1766.854,0.2524344030027521,96.74756559699725
748,1769.162,2.2537766786873874,96.74622332131261
749,1771.469,2.255117966158579,96.74488203384142
750,1773.775,0.2564583108049163,96.74354168919508
751,1776.080,0.0,96.74220224128172
752,1778.385,0.2591363566962457,96.74086364330375
753,1780.688,2.2604741522445266,96.73952584775547
754,1782.991,0.0,96.73818880642067
755,1785.293,0.26314752962986176,96.73685247037014
756,1787.594,1.2644832100406944,96.7355167899593
757,1789.894,2.2658182851741913,96.73418171482581
758,1792.193,0.26715280611294645,96.73284719388705
759,1794.492,0.2684868246621903,96.73151317533781
760,1796.789,1.2698203933522194,96.73017960664778
761,1799.086,1.2711535654408124,96.72884643455919
762,1801.382,1.27248639491566,96.72751360508434
763,1803.677,1.2738189364967383,96.72618106350326
764,1805.971,0.2751512456388383,96.72484875436116
765,1808.265,0.0,96.72351662146615
766,1810.557,0.27781539211328266,96.72218460788672
767,1812.849,1.2791473440506564,96.72085265594934
768,1815.140,2.2804792927639,96.7195207072361
769,1817.430,0.28181129741780353,96.7181887025822
770,1819.719,3.2831434179264107,96.71685658207359
771,1822.007,1.2844757149554908,96.71552428504451
772,1824.295,2.285808249924898,96.7141917500751
773,1826.581,0.287141085011001,96.712858914989
774,1828.867,1.2884742831491565,96.71152571685084
775,1831.152,1.2898079080360674,96.71019209196393
776,1833.436,0.291142024132256,96.70885797586774
777,1835.719,2.2924766966644228,96.70752330333558
778,1838.002,0.2938119916279476,96.70618800837205
779,1840.283,1.2951479757892201,96.70485202421078
780,1842.564,0.29648471668814125,96.70351528331186
781,1844.844,0.0,96.7021777173595
782,1847.123,1.2991607427403835,96.70083925725962
783,1849.401,0.0,96.69949983313735
784,1851.678,0.30184062566527814,96.69815937433472
785,1853.955,0.0,96.69681780940813
786,1856.231,1.3045249338739922,96.69547506612601
787,1858.506,1.3058689285336555,96.69413107146634
788,1860.780,0.307214248385705,96.6927857516143
789,1863.053,2.30856096804024,96.69143903195976
790,1865.325,0.30990916290505766,96.69009083709494
791,1867.597,2.3112589091880267,96.68874109081197
792,1869.867,1.312610283899616,96.68738971610038
793,1872.137,1.3139633648551552,96.68603663514484
794,1874.406,2.315318230677363,96.68468176932264
795,1876.674,1.3166749607987924,96.68332503920121
796,1878.941,3.318033635464147,96.68196636453585
797,1881.208,1.319394335732781,96.68060566426722
798,1883.473,0.32075714348111717,96.67924285651888
799,1885.738,0.3221221414049893,96.67787785859501
800,1888.002,0.3234894130222017,96.6765105869778
801,1890.265,0.32485904267478816,96.67514095732521
802,1892.528,0.0,96.67376888446842
803,1894.789,2.3276057175905436,96.67239428240946
804,1897.050,1.3289829356811822,96.67101706431882
805,1899.310,2.330362857467037,96.66963714253296
806,1901.569,0.33174557144805306,96.66825442855195
807,1903.827,1.3331311669629855,96.66686883303701
808,1906.084,0.3345197341918862,96.66548026580811
809,1908.340,0.3359113641584628,96.66408863584154
810,1910.596,1.3373061487325089,96.66269385126749
811,1912.851,0.0,96.66129581936764
812,1915.105,0.34010555342726434,96.65989444657274
813,1917.358,2.3415103615398465,96.65848963846015
814,1919.610,0.3429187002485179,96.65708129975148
815,1921.862,1.3443306656898812,96.65566933431012
816,1924.113,1.3457463548611628,96.65425364513884
817,1926.362,2.347165865622614,96.65283413437739
818,1928.611,2.348589296699984,96.65141070330002
819,1930.860,0.3500167476868796,96.64998325231312
820,1933.107,1.351448319047222,96.64855168095278
821,1935.353,1.352884112117664,96.64711588788234
822,1937.599,2.3543242291099773,96.64567577089002
823,1939.844,0.3557687731135246,96.64423122688648
824,1942.088,1.3572178480976476,96.64278215190235
825,1944.331,2.3586715589141107,96.64132844108589
826,1946.574,2.360130011299489,96.63986998870051
827,1948.815,1.3615933118776127,96.63840668812239
828,1951.056,1.3630615681619815,96.63693843183802
829,1953.296,2.3645348885581825,96.63546511144182
830,1955.535,2.3660133823663188,96.63398661763368
831,1957.773,0.0,96.63250284021657
832,1960.011,0.36898633190590147,96.6310136680941
833,1962.248,1.3704810107318934,96.6295189892681
834,1964.483,0.3719813091637718,96.62801869083623
835,1966.718,0.0,96.6265126589895
836,1968.953,1.3749992209900768,96.62500077900992
837,1971.186,1.3765170647319849,96.62348293526802
838,1973.418,2.3780409887795457,96.62195901122045
839,1975.650,0.37957111059240844,96.62042888940759
840,1977.881,0.3811075485489255,96.61889245145107
841,1980.111,0.3826504219485969,96.6173495780514
842,1982.340,0.38419985101447196,96.61580014898553
843,1984.569,0.3857559568956077,96.61424404310439
844,1986.797,0.38731886166941365,96.61268113833059
845,1989.023,1.3888886883441671,96.61111131165583
846,1991.249,0.3904655608613723,96.60953443913863
847,1993.474,1.3920496040981902,96.60795039590181
848,1995.699,0.39364094386988313,96.60635905613012
849,1997.922,1.3952397069321876,96.60476029306781
850,2000.145,0.3968460209838156,96.60315397901618
851,2002.367,0.3984600146687569,96.60153998533124
852,2004.588,0.0,96.59991818242116
853,2006.808,1.4017115602560182,96.59828843974398
854,2009.028,1.403349374194903,96.5966506258051
855,2011.246,0.40499539184511946,96.59500460815488
856,2013.464,2.4066497466137236,96.59335025338628
857,2015.681,1.4083125728676578,96.59168742713234
858,2017.898,0.4099840059361668,96.59001599406383
859,2020.113,0.0,96.58833581788681
860,2022.328,1.4133532386597807,96.58664676134022
861,2024.541,2.4150513138066003,96.5849486861934
862,2026.754,0.4167585467562418,96.58324145324376
863,2028.966,0.4184750776856987,96.5815249223143
864,2031.178,1.4202010477488045,96.5797989522512
865,2033.388,1.4219365990785917,96.57806340092141
866,2035.598,1.4236818747897644,96.57631812521024
867,2037.807,1.4254370189811283,96.57456298101887
868,2040.015,0.4272021767379499,96.57279782326205
869,2042.222,2.4289774941344433,96.57102250586556
870,2044.429,0.4307631182361433,96.56923688176386
871,2046.634,0.0,96.56744080289765
872,2048.839,0.4343658797885581,96.56563412021144
873,2051.043,0.43618331634884555,96.56381668365115
874,2053.247,2.4380116578383166,96.56198834216168
875,2055.449,1.4398510563155327,96.56014894368447
876,2057.651,0.44170166484491347,96.55829833515509
877,2059.851,1.4435636374991532,96.55643636250085
878,2062.052,0.44543712936163615,96.55456287063836
879,2064.251,2.447322296528938,96.55267770347106
880,2066.449,1.4492192961130996,96.5507807038869
881,2068.647,0.0,96.54887171375582
882,2070.844,0.45304942607262433,96.54695057392738
883,2073.040,0.4549828757716625,96.54501712422834
884,2075.235,1.4569287965397706,96.54307120346023
885,2077.429,1.4588873506030637,96.54111264939694
886,2079.623,1.4608587012177452,96.53914129878225
887,2081.815,0.4628430126724936,96.5371569873275
888,2084.007,1.4648404502909216,96.53515954970908
889,2086.199,2.466851180433949,96.53314881956605
890,2088.389,1.4688753705022606,96.53112462949774
891,2090.579,2.4709131889387095,96.52908681106129
892,2092.767,1.4729648052307596,96.52703519476924
893,2094.955,0.47503038991288804,96.52496961008711
894,2097.143,1.477110114569001,96.522889885431
895,2099.329,0.47920415183483556,96.52079584816516
896,2101.514,3.481312675400474,96.51868732459953
897,2103.699,0.4834358600126336,96.51656413998737
898,2105.883,2.4855738814771655,96.51442611852283
899,2108.066,2.487726916661501,96.5122730833385
900,2110.249,0.48989514349698027,96.51010485650302
901,2112.430,1.4920787409813556,96.50792125901864
902,2114.611,1.494277889181177,96.50572211081882
903,2116.791,0.0,96.5035072307658
904,2118.970,2.498723563351831,96.50127643664817
905,2121.149,2.5009704548215694,96.49902954517843
906,2123.326,2.5032336280093688,96.49676637199063
907,2125.503,0.5055132683620798,96.49448673163792
908,2127.679,0.5078095624099319,96.49219043759007
909,2129.854,0.5101226977688356,96.48987730223116
910,2132.029,1.5124528631428973,96.4875471368571
911,2134.202,0.5148002483268357,96.48519975167316
912,2136.375,1.5171650442083546,96.48283495579165
913,2138.547,1.5195474427705875,96.48045255722941
914,2140.718,0.0,96.47805236290549
915,2142.889,1.5243658213613998,96.4756341786386
916,2145.058,1.526802190855193,96.4731978091448
917,2147.227,2.5292569419649737,96.47074305803503
918,2149.395,2.5317302721873176,96.46826972781268
919,2151.563,2.5342223801287815,96.46577761987122
920,2153.729,1.5367334655083056,96.4632665344917
921,2155.895,0.0,96.4607362708404
922,2158.060,1.5418133730336052,96.4581866269664
923,2160.224,1.5443826002009047,96.4556173997991
924,2162.387,1.5469716148541295,96.45302838514587
925,2164.550,0.5495806223103727,96.45041937768963
926,2166.711,0.0,96.44779017098632
927,2168.872,1.5548594425373636,96.44514055746264
928,2171.033,0.0,96.44247032841352
929,2173.192,2.5602207260002956,96.4397792739997
930,2175.351,0.5629328167545964,96.4370671832454
931,2177.508,0.0,96.43433384403578
932,2179.665,0.5684209568854044,96.4315790431146
933,2181.822,0.5711974339182291,96.42880256608177
934,2183.977,2.5739958026090335,96.42600419739097
935,2186.132,1.5768162796528742,96.42318372034713
936,2188.285,1.579659082895887,96.42034091710411
937,2190.439,1.5825244313377311,96.41747556866227
938,2192.591,1.5854125451340337,96.41458745486597
939,2194.742,0.588323645598777,96.41167635440122
940,2196.893,1.5912579552067427,96.40874204479326
941,2199.043,1.5942156975958852,96.40578430240411
942,2201.192,0.5971970975698468,96.40280290243015
943,2203.341,0.0,96.39979761889971
944,2205.488,0.6032317753293341,96.39676822467067
945,2207.635,2.6062855085720287,96.39371449142797
946,2209.781,1.6093638103187118,96.39063618968129
947,2211.926,0.6124669112374477,96.38753308876255
948,2214.071,0.0,96.38440495682352
949,2216.214,0.0,96.38125156083339
950,2218.357,1.6219273334236561,96.37807266657634
951,2220.499,1.625131961350803,96.3748680386492
952,2222.641,0.6283625595411451,96.37163744045885
953,2224.781,1.6316193657799687,96.36838063422003
954,2226.921,0.0,96.3650973809527
955,2229.060,0.0,96.3617874404798
956,2231.198,0.0,96.35845057142471
957,2233.336,0.6449134687911453,96.35508653120885
958,2235.472,0.6483049239506613,96.35169507604934
959,2237.608,0.0,96.34827596095646
960,2239.743,1.6551710602686995,96.3448289397313
961,2241.878,1.658646235036656,96.34135376496334
962,2244.011,0.6621498119719718,96.33785018802803
963,2246.144,1.6656820409156978,96.3343179590843
964,2248.276,1.669243172927736,96.33075682707226
965,2250.407,2.6728334602893398,96.32716653971066
966,2252.538,1.6764531565054455,96.32354684349455
967,2254.667,1.6801025163071728,96.31989748369283
968,2256.796,1.683781795654184,96.31621820434582
969,2258.924,1.6874912517371428,96.31250874826286
970,2261.052,0.691231142980115,96.30876885701988
971,2263.178,2.695001729043014,96.30499827095699
972,2265.304,0.6988032708239871,96.30119672917601
973,2267.429,1.7026360304618748,96.29736396953813
974,2269.553,0.0,96.29349972866143
975,2271.677,0.7103962580815448,96.28960374191846
976,2273.800,2.7143242565661296,96.28567574343387
977,2275.921,1.7182845339180801,96.28171546608192
978,2278.043,0.7222773585158677,96.27772264148413
979,2280.163,2.7263029999931945,96.2736970000068
980,2282.283,1.7303617292413946,96.2696382707586
981,2284.401,1.7344538184117937,96.2655461815882
982,2286.520,0.0,96.26142045908179
983,2288.637,0.7427391714393252,96.25726082856067
984,2290.753,0.7469329859211484,96.25306701407885
985,2292.869,1.7511612615793695,96.24883873842063
986,2294.984,0.0,96.24457572309817
987,2297.098,0.0,96.24027768834902
988,2299.212,1.7640556468661828,96.23594435313382
989,2301.325,0.7684245648662511,96.23157543513375
990,2303.437,0.7728293492517935,96.2271706507482
991,2305.548,0.0,96.2227297150923
992,2307.658,0.7817476580055001,96.2182523419945
993,2309.768,0.0,96.2137382439942
994,2311.877,0.7908128676607333,96.20918713233927
995,2313.985,0.0,96.20459871698364
996,2316.092,0.0,96.19997270658492
997,2318.199,0.8046911914980655,96.19530880850193
998,2320.304,0.8093932712076963,96.1906067287923
999,2322.409,1.8141338277899166,96.18586617221008
1000,2324.514,0.8189131577967572,96.18108684220324
1001,2326.617,2.8237315590886567,96.17626844091134
1002,2328.720,0.8285893308369481,96.17141066916305
1003,2330.822,1.8334867735262605,96.16651322647374
1004,2332.923,2.8384241889569353,96.16157581104306
1005,2335.024,0.843401880247427,96.15659811975257
1006,2337.123,2.848420151836777,96.15157984816322
1007,2339.222,0.8534793094869855,96.14652069051301
1008,2341.320,0.8585796602854572,96.14142033971454
1009,2343.418,0.0,96.1362784873526
1010,2345.514,1.868905176318279,96.13109482368172
1011,2347.610,0.8741309623762135,96.12586903762379
1012,2349.705,1.8793991832343693,96.12060081676563
1013,2351.800,0.8847101526434784,96.11528984735652
1014,2353.893,1.8900641856941576,96.10993581430584
1015,2355.986,0.8954615988193382,96.10453840118066
1016,2358.078,1.9009027097967532,96.09909729020325
1017,2360.170,0.9063878377513106,96.09361216224869
1018,2362.260,1.9119173031575087,96.08808269684249
1019,2364.350,1.9174914278419095,96.08250857215809
1020,2366.439,0.9231105349854545,96.07688946501455
1021,2368.527,1.9287749491260087,96.07122505087399
1022,2370.615,0.0,96.0655150038393
1023,2372.702,0.9402410033483903,96.05975899665161
