# kind,background_subtracted
# version_label,v1_04
# poly_order,5
# iterations_run,5
pixel_index,raman_shift_cm-1,intensity,background_intensity
0,-224.846,0.8956365195502514,97.10436348044975
1,-221.778,0.8898144324066379,97.11018556759336
2,-218.712,0.8840127962949254,97.11598720370507
3,-215.647,0.8782315934051326,97.12176840659487
4,-212.583,0.8724708057850137,97.12752919421499
5,-209.521,0.8667304153406405,97.13326958465936
6,-206.460,0.8610104038368718,97.13898959616313
7,-203.399,0.0,97.14468924710204
8,-200.340,0.0,97.15036855599193
9,-197.283,0.0,97.15602754148823
10,-194.226,0.0,97.16166622238534
11,-191.171,1.832715382383853,97.16728461761615
12,-188.116,1.8271172537484972,97.1728827462515
13,-185.064,1.8215393725003821,97.17846062749962
14,-182.012,0.8159817192944132,97.18401828070559
15,-178.961,0.8104442746491998,97.1895557253508
16,-175.912,0.8049270189475521,97.19507298105245
17,-172.864,1.7994299324370502,97.20057006756295
18,-169.817,1.7939529952305975,97.2060470047694
19,-166.771,1.7884961873068903,97.21150381269311
20,-163.726,1.7830594885110571,97.21694051148894
21,-160.683,0.7776428785551133,97.22235712144489
22,-157.641,0.7722463370185295,97.22775366298147
23,-154.600,0.7668698433488004,97.2331301566512
24,-151.560,0.7615133768619557,97.23848662313804
25,-148.521,0.0,97.24382308325691
26,-145.484,0.7508604420468998,97.2491395579531
27,-142.447,0.7455639316982712,97.25443606830173
28,-139.412,0.7402873644927723,97.25971263550723
29,-136.379,0.7350307190972245,97.26496928090278
30,-133.346,0.729793974050196,97.2702060259498
31,-130.314,0.7245771077625847,97.27542289223742
32,-127.284,0.0,97.28061990148187
33,-124.255,0.0,97.285797075526
34,-121.227,0.0,97.29095443633874
35,-118.200,0.7039079939854673,97.29609200601453
36,-115.175,0.6987901932271825,97.30120980677282
37,-112.150,0.6936921390425397,97.30630786095746
38,-109.127,0.6886138089637228,97.31138619103628
39,-106.105,0.6835551803996083,97.31644481960039
40,-103.084,0.6785162306361769,97.32148376936382
41,-100.065,0.6734969368371679,97.32650306316283
42,-97.046,0.6684972760445476,97.33150272395545
43,-94.029,0.6635172251790777,97.33648277482092
44,-91.013,0.6585567610408702,97.34144323895913
45,-87.998,0.6536158603098698,97.34638413969013
46,-84.984,0.648694499546437,97.35130550045356
47,-81.972,0.6437926551919162,97.35620734480808
48,-78.960,0.6389103035690908,97.36108969643091
49,-75.950,0.6340474208827942,97.3659525791172
50,-72.941,0.629203983220421,97.37079601677958
51,-69.933,0.0,97.3756200334475
52,-66.927,0.0,97.38042465326686
53,-63.921,0.6147900995007234,97.38520990049928
54,-60.917,0.6100242004782643,97.38997579952174
55,-57.914,0.605277625174125,97.39472237482588
56,-54.912,0.6005503489824093,97.39944965101759
57,-51.911,0.5958423471835772,97.40415765281642
58,-48.912,0.5911535949450126,97.40884640505499
59,-45.913,0.0,97.41351593267852
60,-42.916,0.0,97.4181662607443
61,-39.920,0.0,97.42279741442107
62,-36.925,0.0,97.42740941898856
63,-33.931,0.5679977001630903,97.43200229983691
64,-30.939,1.5634239175338678,97.43657608246613
65,-27.947,1.5588692075144053,97.4411307924856
66,-24.957,1.5543335443865374,97.44566645561346
67,-21.968,0.5498169023238688,97.45018309767613
68,-18.980,0.545319255392215,97.45468074460778
69,-15.993,0.0,97.45915942244972
70,-13.008,0.0,97.46361915734992
71,-10.023,0.5319400244375458,97.46805997556245
72,-7.040,0.5275180965530382,97.47248190344696
73,-4.058,0.5231150325319049,97.4768849674681
74,-1.077,0.5187308058049922,97.48126919419501
75,1.903,0.5143653896992078,97.48563461030079
76,4.881,0.0,97.48998124256194
77,7.859,0.0,97.49430911785781
78,10.835,0.0,97.49861826317009
79,13.810,0.497091294417757,97.50290870558224
80,16.784,1.4928195277209824,97.50718047227902
81,19.757,1.4885664094541653,97.51143359054583
82,22.728,1.4843319122317098,97.51566808776829
83,25.699,0.48011600856840175,97.5198839914316
84,28.668,0.0,97.5240813291201
85,31.636,0.0,97.52826012851665
86,34.603,0.0,97.53242041740211
87,37.569,0.4634377763451596,97.53656222365484
88,40.534,0.45931442474987705,97.54068557525012
89,43.497,0.45520949974037705,97.54479050025962
90,46.460,0.45112297314913974,97.54887702685086
91,49.421,0.447054816713333,97.55294518328667
92,52.381,0.44300500207535265,97.55699499792465
93,55.340,0.43897350078334796,97.56102649921665
94,58.297,0.43496028429180456,97.5650397157082
95,61.254,0.43096532396201326,97.56903467603799
96,64.209,0.0,97.5730114089373
97,67.164,0.0,97.57696994322956
98,70.117,0.0,97.58091030782963
99,73.069,0.0,97.58483253174344
100,76.020,0.41126335593263263,97.58873664406737
101,78.969,1.4073773260123232,97.59262267398768
102,81.918,0.4035093492199735,97.59649065078003
103,84.865,0.39965939619106905,97.60034060380893
104,87.811,0.3958274374728177,97.60417256252718
105,90.757,0.39201344352467515,97.60798655647532
106,93.700,0.3882173847188426,97.61178261528116
107,96.643,0.38443923134089175,97.61556076865911
108,99.585,1.3806789535902197,97.61932104640978
109,102.525,0.37693652158063173,97.62306347841937
110,105.465,0.3732119053408667,97.62678809465913
111,108.403,1.3695050748151516,97.63049492518485
112,111.340,1.3658159998637132,97.63418400013629
113,114.276,0.3621446502633603,97.63785534973664
114,117.211,0.3584909957079958,97.641509004292
115,120.144,1.354855005809128,97.64514499419087
116,123.077,0.35123665009648164,97.64876334990352
117,126.008,0.34763589801848127,97.65236410198152
118,128.938,0.0,97.65594728105721
119,131.868,0.0,97.65951291784312
120,134.795,0.0,97.66306104313144
121,137.722,1.3334083122065294,97.66659168779347
122,140.648,0.0,97.67010488277913
123,143.572,1.3263993408836257,97.67360065911637
124,146.496,1.3229209520893335,97.67707904791067
125,149.418,1.3194599196555572,97.68054008034444
126,152.339,0.0,97.68398378767654
127,155.259,0.31258979875828174,97.68741020124172
128,158.178,0.3091806475499226,97.69081935245008
129,161.096,0.30578872721349626,97.6942112727865
130,164.012,0.30241400618980663,97.6975859938102
131,166.928,0.29905645284596005,97.70094354715404
132,169.842,0.29571603547584857,97.70428396452415
133,172.755,0.29239272230071833,97.70760727769928
134,175.667,0.2890864814697238,97.71091351853028
135,178.578,0.28579728106042523,97.71420271893957
136,181.488,1.2825250890793427,97.71747491092066
137,184.397,1.2792698734625247,97.72073012653748
138,187.304,1.2760316020760598,97.72396839792394
139,190.211,1.2728102427166164,97.72718975728338
140,193.116,0.2696057631119686,97.73039423688803
141,196.020,0.2664181309216076,97.73358186907839
142,198.923,1.2632473137371818,97.73675268626282
143,201.825,1.2600932790830939,97.7399067209169
144,204.726,1.2569559944170408,97.74304400558296
145,207.625,1.2538354271305394,97.74616457286946
146,210.524,1.250731544549467,97.74926845545053
147,213.421,0.24764431393458608,97.75235568606541
148,216.318,1.2445737024821284,97.75542629751787
149,219.213,1.2415196773242911,97.75848032267571
150,222.107,1.2384822055297917,97.76151779447021
151,225.000,1.2354612541044219,97.76453874589558
152,227.891,1.232456789991545,97.76754321000845
153,230.782,1.2294687800726933,97.7705312199273
154,233.672,1.2264971911680504,97.77350280883195
155,236.560,1.2235419900370488,97.77645800996295
156,239.447,1.2206031433788525,97.77939685662115
157,242.333,0.21768061783294002,97.78231938216706
158,245.218,0.2147743799796018,97.7852256200204
159,248.102,0.2118843963405368,97.78811560365946
160,250.985,0.2090106333793358,97.79098936662066
161,253.867,0.20615305750204982,97.79384694249795
162,256.748,1.2033116350577586,97.79668836494224
163,259.627,1.2004863323390111,97.79951366766099
164,262.505,1.1976771155824792,97.80232288441752
165,265.383,1.1948839509694267,97.80511604903057
166,268.259,1.192106804626306,97.8078931953737
167,271.134,1.1893456426251987,97.8106543573748
168,274.008,1.186600430984484,97.81339956901552
169,276.880,0.18387113566926416,97.81612886433074
170,279.752,0.18115772259197627,97.81884227740802
171,282.623,1.1784601576129177,97.82153984238708
172,285.492,1.1757784065407435,97.82422159345926
173,288.360,1.1731124351330635,97.82688756486694
174,291.228,1.1704622090969536,97.82953779090305
175,294.094,1.167827694089496,97.8321723059105
176,296.959,1.1652088557183191,97.83479114428168
177,299.823,2.1626056595421375,97.83739434045786
178,302.685,2.160018071071306,97.8399819289287
179,305.547,1.1574460557683466,97.84255394423165
180,308.408,0.1548895790484579,97.84511042095154
181,311.267,0.15234860628011404,97.84765139371989
182,314.126,0.1498231027855752,97.85017689721442
183,316.983,0.1473130338413995,97.8526869661586
184,319.839,0.14481836467905396,97.85518163532095
185,322.694,0.14233906048536937,97.85766093951463
186,325.548,0.13987508640313706,97.86012491359686
187,328.401,0.1374264075316347,97.86257359246837
188,331.253,0.13499298892716638,97.86500701107283
189,334.103,0.1325747956035741,97.86742520439643
190,336.953,1.1301717925328205,97.86982820746718
191,339.801,0.1277839446455289,97.87221605535447
192,342.649,0.12541121683146628,97.87458878316853
193,345.495,1.1230535739401262,97.87694642605987
194,348.340,1.1207109807813112,97.87928901921869
195,351.184,1.118383402125545,97.88161659787446
196,354.027,1.1160708027047548,97.88392919729525
197,356.869,1.1137731472127257,97.88622685278727
198,359.709,1.111490400305641,97.88850959969436
199,362.549,1.1092225266026787,97.89077747339732
200,365.388,1.106969490686481,97.89303050931352
201,368.225,0.10473125710373665,97.89526874289626
202,371.061,0.10250779036573476,97.89749220963427
203,373.897,0.10029905494886293,97.89970094505114
204,376.731,0.09810501529514681,97.90189498470485
205,379.564,0.09592563581281865,97.90407436418718
206,382.396,1.0937608808768715,97.90623911912313
207,385.227,1.0916107148295424,97.90838928517046
208,388.057,1.0894751019808808,97.91052489801912
209,390.885,1.0873540066093028,97.9126459933907
210,393.713,1.0852473929621311,97.91475260703787
211,396.539,1.0831552252560925,97.91684477474391
212,399.365,0.08107746767788626,97.91892253232211
213,402.189,0.07901408438475244,97.92098591561525
214,405.012,0.07696503950494105,97.92303496049506
215,407.835,0.0,97.92506970286166
216,410.656,0.07290982135693014,97.92709017864307
217,413.476,0.07090357620538157,97.92909642379462
218,416.295,0.0,97.93108847429845
219,419.112,0.06693363383706696,97.93306636616293
220,421.929,1.0649698645778471,97.93503013542215
221,424.745,0.06302018186462988,97.93697981813537
222,427.559,0.061084549613497074,97.9389154503865
223,430.373,0.05916293171647169,97.94083706828353
224,433.185,0.05725529204202928,97.94274470795797
225,435.996,0.055361594435581196,97.94463840556442
226,438.807,0.05348180272011405,97.94651819727989
227,441.616,0.05161588069665868,97.94838411930334
228,444.424,0.0497637921448586,97.95023620785514
229,447.231,0.04792550082349578,97.9520744991765
230,450.037,0.04610097047103068,97.95389902952897
231,452.842,1.0442901648061564,97.95570983519384
232,455.645,1.0424930475283247,97.95750695247168
233,458.448,1.0407095823182715,97.95929041768173
234,461.250,1.038939732838628,97.96106026716137
235,464.050,1.0371834627343475,97.96281653726565
236,466.849,1.035440735633344,97.96455926436666
237,469.648,1.0337115151469618,97.96628848485304
238,472.445,1.0319957648705582,97.96800423512944
239,475.241,1.0302934483840431,97.96970655161596
240,478.036,1.028604529252405,97.9713954707476
241,480.830,1.0269289710262086,97.97307102897379
242,483.623,1.0252667372422195,97.97473326275778
243,486.415,1.0236177914239022,97.9763822085761
244,489.206,1.0219820970819455,97.97801790291805
245,491.996,1.0203596177148029,97.9796403822852
246,494.784,2.0187503168092604,97.98124968319074
247,497.572,4.017154157840949,97.98284584215905
248,500.358,6.015571104274912,97.98442889572509
249,503.144,7.014001119566132,97.98599888043387
250,505.928,13.012444167160012,97.98755583283999
251,508.712,13.010900210493048,97.98909978950695
252,511.494,13.00936921299322,97.99063078700678
253,514.275,7.007851138080667,97.99214886191933
254,517.055,3.006345949168079,97.99365405083192
255,519.834,2.00485360966141,97.99514639033859
256,522.612,1.0033740829602493,97.99662591703975
257,525.389,1.0019073324584724,97.99809266754153
258,528.165,1.0004533215447395,97.99954667845526
259,530.940,0.999012013603064,98.00098798639694
260,533.713,0.9975833720132812,98.00241662798672
261,536.486,0.9961673601516736,98.00383263984833
262,539.257,0.9947639413914686,98.00523605860853
263,542.028,0.9933730791033639,98.00662692089664
264,544.797,0.9919947366561104,98.00800526334389
265,547.566,0.9906288774169809,98.00937112258302
266,550.333,0.9892754647524242,98.01072453524758
267,553.099,0.9879344620284769,98.01206553797152
268,555.864,0.9866058326113887,98.01339416738861
269,558.629,0.9852895398681341,98.01471046013187
270,561.392,0.9839855471669381,98.01601445283306
271,564.154,0.9826938178778448,98.01730618212216
272,566.915,0.0,98.01858568462676
273,569.674,0.0,98.01985299697161
274,572.433,0.9788918442219909,98.02110815577801
275,575.191,0.0,98.0223511976633
276,577.948,0.0,98.02358215924033
277,580.703,0.0,98.02480107711692
278,583.458,0.0,98.02600798789526
279,586.211,0.0,98.02720292817146
280,588.964,0.0,98.02838593453495
281,591.715,0.0,98.02955704356799
282,594.466,0.0,98.03071629184504
283,597.215,0.96813628406764,98.03186371593236
284,599.963,0.9670006476126787,98.03299935238732
285,602.710,0.9658767622420328,98.03412323775797
286,605.457,0.9647645914175342,98.03523540858247
287,608.202,0.9636640986115168,98.03633590138848
288,610.946,0.962575247307214,98.03742475269279
289,613.689,0.9614980009994412,98.03850199900056
290,616.431,0.0,98.03956767680498
291,619.172,0.0,98.0406218225866
292,621.911,0.0,98.04166447281284
293,624.650,0.0,98.04269566393745
294,627.388,0.0,98.04371543239998
295,630.125,0.0,98.0447238146252
296,632.860,0.9542791529773922,98.04572084702261
297,635.595,0.9532934340141423,98.04670656598586
298,638.328,0.0,98.04768100789222
299,641.061,0.0,98.04864420910211
300,643.792,0.0,98.0495962059584
301,646.523,0.0,98.05053703478605
302,649.252,0.0,98.05146673189144
303,651.980,0.9476146664380991,98.0523853335619
304,654.708,0.9467071239348286,98.05329287606517
305,657.434,0.9458106043511805,98.05418939564882
306,660.159,0.9449250714602897,98.05507492853971
307,662.883,0.9440504890564938,98.0559495109435
308,665.606,0.9431868209559013,98.0568131790441
309,668.328,0.9423340309969461,98.05766596900305
310,671.049,0.9414920830408846,98.05850791695912
311,673.769,0.0,98.05933905902764
312,676.488,0.9398405686999922,98.06015943130001
313,679.206,0.9390309301567896,98.06096906984321
314,681.923,0.9382319893008173,98.06176801069918
315,684.639,0.937443710115673,98.06255628988433
316,687.354,0.9366660566110312,98.06333394338897
317,690.067,0.0,98.0641010071768
318,692.780,0.0,98.06485751718436
319,695.492,0.0,98.06560350932047
320,698.202,0.0,98.06633901946573
321,700.912,0.0,98.06706408347195
322,703.621,0.0,98.0677787371616
323,706.328,0.0,98.06848301632732
324,709.035,0.9308230432686884,98.06917695673131
325,711.740,0.0,98.06986059410488
326,714.444,0.9294660358521725,98.07053396414783
327,717.148,0.0,98.07119710252795
328,719.850,0.9281499551195651,98.07185004488043
329,722.552,0.927507173192538,98.07249282680746
330,725.252,0.926874516122524,98.07312548387748
331,727.951,0.0,98.07374805162483
332,730.649,0.9256394344509005,98.0743605655491
333,733.347,0.9250369388853699,98.07496306111463
334,736.043,0.0,98.07555557374997
335,738.738,0.9238618611526732,98.07613813884733
336,741.432,0.9232892082379749,98.07671079176203
337,744.125,0.9227264321879858,98.07727356781201
338,746.817,0.9221734977227669,98.07782650227723
339,749.508,0.9216303696008339,98.07836963039917
340,752.198,0.9210970126197395,98.07890298738026
341,754.887,0.9205733916166281,98.07942660838337
342,757.575,0.9200594714687469,98.07994052853125
343,760.262,0.919555217093972,98.08044478290603
344,762.948,0.9190605934514195,98.08093940654858
345,765.633,0.9185755655418859,98.08142443445811
346,768.317,0.9181000984084591,98.08189990159154
347,770.999,0.0,98.08236584286294
348,773.681,0.0,98.0828222931431
349,776.362,0.0,98.08326928725884
350,779.042,0.0,98.08370685999265
351,781.720,0.0,98.08413504608194
352,784.398,0.0,98.08455388021869
353,787.075,0.0,98.08496339704884
354,789.751,0.0,98.08536363117167
355,792.425,0.0,98.08575461713941
356,795.099,0.9138636105434017,98.0861363894566
357,797.771,0.9134910174204549,98.08650898257955
358,800.443,0.9131275690841676,98.08687243091583
359,803.114,0.9127732311762173,98.08722676882378
360,805.783,1.9124279693881618,98.08757203061184
361,808.452,1.912091749461851,98.08790825053815
362,811.119,0.9117645371901091,98.08823546280989
363,813.786,0.0,98.08855370158285
364,816.451,0.0,98.08886300096081
365,819.116,0.0,98.08916339499503
366,821.779,0.0,98.08945491768371
367,824.442,0.0,98.08973760297145
368,827.103,0.0,98.09001148474873
369,829.763,0.0,98.09027659685131
370,832.423,0.0,98.09053297305977
371,835.081,0.0,98.09078064709888
372,837.739,0.9089803473628137,98.09101965263719
373,840.395,0.9087499767136649,98.09125002328634
374,843.050,0.908528207399371,98.09147179260063
375,845.705,0.9083150059235834,98.09168499407642
376,848.358,0.9081103388483598,98.09188966115164
377,851.010,0.9079141727947899,98.09208582720521
378,853.662,0.9077264744434785,98.09227352555652
379,856.312,0.0,98.09245278946486
380,858.961,0.0,98.09262365212894
381,861.610,0.0,98.0927861466863
382,864.257,0.0,98.09294030621278
383,866.903,0.0,98.093086163722
384,869.549,0.0,98.0932237521648
385,872.193,0.0,98.09335310442872
386,874.836,0.0,98.09347425333742
387,877.478,0.0,98.09358723165019
388,880.120,0.0,98.09369207206139
389,882.760,0.0,98.0937888071999
390,885.399,0.9061225303714195,98.09387746962858
391,888.037,0.0,98.09395809184379
392,890.675,0.0,98.09403070627474
393,893.311,0.9059046547169771,98.09409534528302
394,895.946,0.9058479588378958,98.0941520411621
395,898.580,0.0,98.09420082613671
396,901.214,0.9057582676376796,98.09424173236232
397,903.846,0.9057252080753813,98.09427479192462
398,906.477,0.0,98.094300036839
399,909.107,0.90568250095005,98.09431749904995
400,911.737,0.9056727895694365,98.09432721043056
401,914.365,0.9056707972179936,98.094329202782
402,916.992,0.9056764921670464,98.09432350783295
403,919.618,0.9056898427609639,98.09431015723904
404,922.244,0.9057108174176562,98.09428918258234
405,924.868,0.9057393846291575,98.09426061537084
406,927.491,0.9057755129621228,98.09422448703788
407,930.113,0.9058191710583969,98.0941808289416
408,932.735,0.9058703276355402,98.09412967236446
409,935.355,0.9059289514873967,98.0940710485126
410,937.974,0.9059950114845918,98.09400498851541
411,940.592,0.9060684765751006,98.0939315234249
412,943.210,0.9061493157847735,98.09385068421523
413,945.826,0.9062374982178767,98.09376250178212
414,948.441,0.9063329930576316,98.09366700694237
415,951.056,1.9064357695667837,98.09356423043322
416,953.669,0.0,98.09345420291191
417,956.281,0.0,98.0933369549551
418,958.893,0.0,98.09321251705835
419,961.503,0.9069190803644887,98.09308091963551
420,964.112,0.9070578069817117,98.09294219301829
421,966.721,0.9072036325443804,98.09279636745562
422,969.328,0.9073565268868151,98.09264347311318
423,971.935,0.9075164599271517,98.09248354007285
424,974.540,0.9076834016678816,98.09231659833212
425,977.144,0.9078573221964064,98.0921426778036
426,979.748,0.9080381916855345,98.09196180831447
427,982.350,0.9082259803940644,98.09177401960594
428,984.952,0.9084206586673105,98.09157934133269
429,987.552,0.0,98.09137780306239
430,990.152,0.0,98.09116943427506
431,992.750,0.0,98.09095426436262
432,995.348,0.0,98.09073232262833
433,997.944,0.0,98.09050363828622
434,1000.540,0.0,98.09026824046059
435,1003.134,0.9099738418145904,98.09002615818541
436,1005.728,0.9102225795961374,98.08977742040386
437,1008.321,0.9104779440322375,98.08952205596776
438,1010.912,0.9107399063630055,98.089260093637
439,1013.503,0.9110084379210122,98.08899156207899
440,1016.092,0.9112835101317955,98.0887164898682
441,1018.681,0.9115650945144012,98.0884349054856
442,1021.269,0.911853162681993,98.088146837318
443,1023.856,0.9121476863422942,98.0878523136577
444,1026.441,0.9124486372981977,98.0875513627018
445,1029.026,0.9127559874482642,98.08724401255174
446,1031.610,0.9130697087873045,98.0869302912127
447,1034.193,0.9133897734068768,98.08661022659312
448,1036.775,0.9137161534958267,98.08628384650417
449,1039.355,0.0,98.08595117865913
450,1041.935,0.0,98.08561225067291
451,1044.514,0.0,98.0852670900615
452,1047.092,0.0,98.08491572424143
453,1049.669,0.0,98.08455818052923
454,1052.245,0.0,98.08419448614089
455,1054.820,0.0,98.0838246681913
456,1057.394,0.0,98.08344875369377
457,1059.967,0.9169332304405913,98.08306676955941
458,1062.539,0.91732125740333,98.08267874259667
459,1065.110,0.9177153004892773,98.08228469951072
460,1067.681,0.9181153330970204,98.08188466690298
461,1070.250,0.9185213287294403,98.08147867127056
462,1072.818,0.9189332609943222,98.08106673900568
463,1075.385,0.919351103604825,98.08064889639518
464,1077.951,0.0,98.08022516961998
465,1080.517,0.0,98.07979558475452
466,1083.081,0.0,98.0793601677662
467,1085.644,0.0,98.07891894451487
468,1088.207,0.0,98.07847194075232
469,1090.768,0.9219808178783353,98.07801918212166
470,1093.329,0.9224393058431133,98.07756069415689
471,1095.888,0.9229034977177832,98.07709650228222
472,1098.447,0.9233733681883507,98.07662663181165
473,1101.004,0.0,98.07615110794839
474,1103.561,0.0,98.07566995578432
475,1106.116,0.0,98.07518320029942
476,1108.671,0.0,98.07469086636131
477,1111.225,0.9258070212754035,98.0741929787246
478,1113.777,0.9263104379695477,98.07368956203045
479,1116.329,0.9268193591940133,98.07318064080599
480,1118.880,0.9273337605362428,98.07266623946376
481,1121.430,0.0,98.07214638230121
482,1123.979,0.0,98.07162109350016
483,1126.527,0.0,98.07109039712617
484,1129.074,0.0,98.07055431712817
485,1131.620,0.9299871226622543,98.07001287733775
486,1134.165,0.9305338985312801,98.06946610146872
487,1136.709,0.0,98.06891401311655
488,1139.252,0.0,98.06835663575784
489,1141.794,0.0,98.06779399274973
490,1144.335,0.0,98.06722610732939
491,1146.875,0.9333469973864652,98.06665300261353
492,1149.415,0.9339252984021869,98.06607470159781
493,1151.953,0.9345087728437278,98.06549122715627
494,1154.490,1.9350973979591544,98.06490260204085
495,1157.027,1.9356911511191726,98.06430884888083
496,1159.562,0.9362900098177107,98.06370999018229
497,1162.097,0.9368939516724311,98.06310604832757
498,1164.630,0.0,98.06249704557472
499,1167.163,0.0,98.06188300405698
500,1169.695,0.0,98.06126394578222
501,1172.225,0.0,98.06063989263242
502,1174.755,0.0,98.06001086636313
503,1177.284,0.0,98.05937688860288
504,1179.812,0.9412620191472456,98.05873798085275
505,1182.338,0.0,98.05809416448571
506,1184.864,0.9425545392538623,98.05744546074614
507,1187.389,0.0,98.05679189074931
508,1189.913,0.0,98.05613347548078
509,1192.436,0.0,98.05547023579592
510,1194.959,0.9451978075806551,98.05480219241934
511,1197.480,0.9458706340556375,98.05412936594436
512,1200.000,0.9465482231675537,98.05345177683245
513,1202.519,0.947230554587307,98.0527694454127
514,1205.038,0.9479176081186722,98.05208239188133
515,1207.555,0.9486093636989494,98.05139063630105
516,1210.071,0.9493058013993618,98.05069419860064
517,1212.587,0.9500069014257093,98.04999309857429
518,1215.101,0.9507126441188376,98.04928735588116
519,1217.615,0.9514230099552208,98.04857699004478
520,1220.128,0.9521379795474729,98.04786202045253
521,1222.639,0.9528575336449023,98.0471424663551
522,1225.150,0.9535816531340373,98.04641834686596
523,1227.660,0.9543103190391804,98.04568968096082
524,1230.169,0.9550435125229484,98.04495648747705
525,1232.677,0.9557812148867981,98.0442187851132
526,1235.184,0.9565234075715949,98.0434765924284
527,1237.690,0.9572700721580958,98.0427299278419
528,1240.195,0.9580211903675462,98.04197880963245
529,1242.699,0.9587767440621917,98.04122325593781
530,1245.202,0.9595367152458323,98.04046328475417
531,1247.704,0.9603010860643479,98.03969891393565
532,1250.206,0.9610698388062389,98.03893016119376
533,1252.706,0.9618429559031654,98.03815704409683
534,1255.206,0.9626204199305022,98.0373795800695
535,1257.704,0.9634022136078784,98.03659778639212
536,1260.202,0.9641883197996748,98.03581168020033
537,1262.698,0.9649787215156067,98.0350212784844
538,1265.194,0.965773401911278,98.03422659808872
539,1267.689,0.9665723442886502,98.03342765571135
540,1270.183,0.9673755320966677,98.03262446790333
541,1272.676,0.9681829489317266,98.03181705106827
542,1275.168,0.9689945785382577,98.03100542146174
543,1277.659,0.9698104048092375,98.03018959519076
544,1280.149,0.9706304117867433,98.02936958821326
545,1282.638,0.9714545836625206,98.02854541633748
546,1285.126,1.972282904778453,98.02771709522155
547,1287.613,1.9731153596271582,98.02688464037284
548,1290.100,1.973951932852529,98.02604806714747
549,1292.585,0.9747926092502297,98.02520739074977
550,1295.070,0.9756373737682651,98.02436262623173
551,1297.553,0.9764862115075346,98.02351378849247
552,1300.036,0.9773391077223152,98.02266089227768
553,1302.517,0.9781960478209015,98.0218039521791
554,1304.998,0.9790570173660029,98.020942982634
555,1307.478,0.9799220020754404,98.02007799792456
556,1309.957,0.9807909878225445,98.01920901217746
557,1312.435,0.9816639606368085,98.01833603936319
558,1314.912,0.9825409067043438,98.01745909329566
559,1317.388,0.9834218123684622,98.01657818763154
560,1319.863,1.9843066641302443,98.01569333586976
561,1322.337,1.9851954486489802,98.01480455135102
562,1324.811,1.9860881527428091,98.01391184725719
563,1327.283,1.9869847633892164,98.01301523661078
564,1329.755,0.9878852677255736,98.01211473227443
565,1332.225,0.9887896530496789,98.01121034695032
566,1334.695,0.0,98.01030209317969
567,1337.163,0.0,98.00938998334226
568,1339.631,0.0,98.0084740296557
569,1342.098,1.992445755824889,98.00755424417511
570,1344.564,1.99336936120757,98.00663063879243
571,1347.029,1.9942967747640523,98.00570322523595
572,1349.493,2.9952279849302386,98.00477201506976
573,1351.956,1.9961629803068064,98.0038370196932
574,1354.418,1.9971017496596772,98.00289825034032
575,1356.880,2.998044281920656,98.00195571807934
576,1359.340,1.9989905661878424,98.00100943381216
577,1361.800,1.9999405917263147,98.00005940827369
578,1364.258,2.0008943479685257,97.99910565203147
579,1366.716,2.001851824514958,97.99814817548504
580,1369.172,2.0028130111345916,97.99718698886541
581,1371.628,2.003777897765488,97.99622210223451
582,1374.083,2.0047464745153007,97.9952535254847
583,1376.537,2.0057187316618155,97.99428126833818
584,1378.990,1.006694659653519,97.99330534034648
585,1381.442,1.0076742491100958,97.9923257508899
586,1383.893,1.008657490823012,97.99134250917699
587,1386.344,1.009644375756011,97.99035562424399
588,1388.793,0.0106348950457118,97.98936510495429
589,1391.241,0.011629040002048896,97.98837095999795
590,1393.689,0.012626802108954394,97.98737319789105
591,1396.135,0.013628173024741841,97.98637182697526
592,1398.581,0.014633144582788304,97.98536685541721
593,1401.026,0.015641708791946485,97.98435829120805
594,1403.470,0.016653857837198416,97.9833461421628
595,1405.913,1.017669584080096,97.9823304159199
596,1408.355,0.018688880059386292,97.98131111994061
597,1410.796,0.019711738491494657,97.9802882615085
598,1413.236,1.0207381522710648,97.97926184772894
599,1415.675,1.0217681144715414,97.97823188552846
600,1418.114,1.0228016183456674,97.97719838165433
601,1420.551,1.0238386573260527,97.97616134267395
602,1422.988,1.0248792250256713,97.97512077497433
603,1425.423,1.025923315238444,97.97407668476156
604,1427.858,1.0269709219397924,97.97302907806021
605,1430.292,1.0280220392870945,97.9719779607129
606,1432.725,1.0290766616203229,97.97092333837968
607,1435.157,1.030134783462529,97.96986521653747
608,1437.588,0.031196399520382556,97.96880360047962
609,1440.018,0.032261504684726106,97.96773849531527
610,1442.447,0.033330094031114754,97.96666990596889
611,1444.876,0.03440216282037056,97.96559783717963
612,1447.303,1.0354777064990657,97.96452229350093
613,1449.730,1.0365567207001192,97.96344327929988
614,1452.156,2.037639201243337,97.96236079875666
615,1454.580,2.0387251441358814,97.96127485586412
616,1457.004,2.0398145455729235,97.96018545442708
617,1459.427,1.040907401938071,97.95909259806193
618,1461.849,1.0420037098039643,97.95799629019604
619,1464.270,0.04310346593284464,97.95689653406716
620,1466.690,0.044206667277009615,97.95579333272299
621,1469.110,0.045313310979423704,97.95468668902058
622,1471.528,0.04642339437423004,97.95357660562577
623,1473.946,0.04753691498730461,97.9524630850127
624,1476.362,0.04865387053678205,97.95134612946322
625,1478.778,0.04977425893359566,97.9502257410664
626,1481.193,0.05089807828201742,97.94910192171798
627,1483.607,0.0520253268801838,97.94797467311982
628,1486.020,1.0531560032206926,97.94684399677931
629,1488.432,0.05429010599108608,97.94570989400891
630,1490.843,1.055427634074377,97.94457236592562
631,1493.253,1.056568586549659,97.94343141345034
632,1495.663,1.0577129626925768,97.94228703730742
633,1498.071,1.0588607619759074,97.94113923802409
634,1500.479,1.0600119840700728,97.93998801592993
635,1502.886,0.061166628843707826,97.93883337115629
636,1505.292,0.06232469636418614,97.93767530363581
637,1507.697,0.06348618689811758,97.93651381310188
638,1510.101,0.06465110091198767,97.93534889908801
639,1512.504,1.0658194390725981,97.9341805609274
640,1514.906,1.0669912022476638,97.93300879775234
641,1517.307,1.0681663915063098,97.93183360849369
642,1519.708,1.0693450081196687,97.93065499188033
643,1522.107,1.0705270535613494,97.92947294643865
644,1524.506,0.07171252950806206,97.92828747049194
645,1526.904,0.0729014378400592,97.92709856215994
646,1529.301,0.07409378064177474,97.92590621935823
647,1531.697,0.0,97.92471043979775
648,1534.092,0.0,97.92351122098418
649,1536.486,0.0,97.92230856021752
650,1538.879,0.0,97.92110245459139
651,1541.272,0.0,97.91989290099266
652,1543.663,0.08132010389920197,97.9186798961008
653,1546.054,0.0,97.91746343638735
654,1548.444,0.0,97.91624351811544
655,1550.832,0.08497986266084467,97.91502013733916
656,1553.220,0.0862067100968602,97.91379328990314
657,1555.607,0.08743702855811364,97.91256297144189
658,1557.994,0.08867082262068493,97.91132917737932
659,1560.379,1.0899080970717705,97.91009190292823
660,1562.763,1.0911488569103085,97.90885114308969
661,1565.147,1.0923931073474336,97.90760689265257
662,1567.529,1.093640853807031,97.90635914619297
663,1569.911,1.0948921019263196,97.90510789807368
664,1572.292,1.0961468575563629,97.90385314244364
665,1574.672,1.0974051267625669,97.90259487323743
666,1577.051,0.09866691582530507,97.9013330841747
667,1579.429,0.09993223124040185,97.9000677687596
668,1581.807,0.10120107971965808,97.89879892028034
669,1584.183,0.1024734681914623,97.89752653180854
670,1586.559,0.10374940380124542,97.89625059619875
671,1588.933,0.10502889391207759,97.89497110608792
672,1591.307,0.1063119461051798,97.89368805389482
673,1593.680,0.10759856818047808,97.89240143181952
674,1596.052,0.10888876815714355,97.89111123184286
675,1598.423,0.11018255427411816,97.88981744572588
676,1600.794,0.111479934990669,97.88852006500933
677,1603.163,0.112780918986914,97.88721908101309
678,1605.531,0.11408551516436205,97.88591448483564
679,1607.899,0.11539373264648134,97.88460626735352
680,1610.266,0.1167055807791968,97.8832944192208
681,1612.632,0.1180210691314727,97.88197893086853
682,1614.997,0.11934020749578167,97.88065979250422
683,1617.361,0.12066300588875833,97.87933699411124
684,1619.724,1.1219894745515973,97.8780105254484
685,1622.086,1.1233196239507492,97.87668037604925
686,1624.448,0.12465346477830508,97.8753465352217
687,1626.808,0.12599100795266338,97.87400899204734
688,1629.168,0.12733226461897118,97.87266773538103
689,1631.527,0.12867724614974918,97.87132275385025
690,1633.885,0.0,97.86997403585464
691,1636.242,0.0,97.86862156956542
692,1638.598,0.0,97.86726534292482
693,1640.954,0.13409465635433548,97.86590534364566
694,1643.308,0.13545844078934977,97.86454155921065
695,1645.662,0.13682602312802317,97.86317397687198
696,1648.014,0.13819741634929983,97.8618025836507
697,1650.366,0.13957263366376083,97.86042736633624
698,1652.717,0.1409516885141926,97.85904831148581
699,1655.067,0.14233459457608433,97.85766540542392
700,1657.417,0.14372136575819638,97.8562786342418
701,1659.765,0.14511201620312875,97.85488798379687
702,1662.112,0.0,97.85349343971221
703,1664.459,0.0,97.85209498737602
704,1666.805,0.0,97.85069261194106
705,1669.150,0.0,97.84928629832413
706,1671.494,0.0,97.84787603120552
707,1673.837,0.15353820497151105,97.84646179502849
708,1676.179,0.15495642600129145,97.84504357399871
709,1678.520,0.1563786479162843,97.84362135208372
710,1680.861,0.15780488698760564,97.8421951130124
711,1683.201,1.1592351597255686,97.84076484027443
712,1685.539,0.16066948288023752,97.83933051711976
713,1687.877,0.1621078734419683,97.83789212655803
714,1690.214,0.16355034864190543,97.8364496513581
715,1692.551,0.1649969259525932,97.8350030740474
716,1694.886,0.16644762308844463,97.83355237691156
717,1697.220,0.1679024580063384,97.83209754199366
718,1699.554,0.16936144890610194,97.8306385510939
719,1701.887,1.1708246142311083,97.82917538576889
720,1704.219,1.1722919726687735,97.82770802733123
721,1706.550,1.1737635431511109,97.82623645684889
722,1708.880,1.1752393448552994,97.8247606551447
723,1711.209,1.1767193972041525,97.82328060279585
724,1713.537,0.17820371986672967,97.82179628013327
725,1715.865,0.1796923327588189,97.82030766724118
726,1718.192,1.1811852560435483,97.81881474395645
727,1720.518,1.1826825101318263,97.81731748986817
728,1722.843,1.1841841156829815,97.81581588431702
729,1725.167,1.1856900936052455,97.81430990639475
730,1727.490,0.18720046505626442,97.81279953494374
731,1729.812,0.1887152514437389,97.81128474855626
732,1732.134,0.19023447442587837,97.80976552557412
733,1734.455,0.19175815591192702,97.80824184408807
734,1736.774,0.19328631806280328,97.8067136819372
735,1739.093,0.19481898329154035,97.80518101670846
736,1741.411,0.19635617426385465,97.80364382573615
737,1743.729,0.19789791389872846,97.80210208610127
738,1746.045,0.19944422536886464,97.80055577463114
739,1748.361,0.20099513210134035,97.79900486789866
740,1750.675,0.20255065777800496,97.797449342222
741,1752.989,0.2041108263361764,97.79588917366382
742,1755.302,0.20567566196903897,97.79432433803096
743,1757.614,0.20724518912625456,97.79275481087375
744,1759.925,0.20881943251453094,97.79118056748547
745,1762.236,0.21039841709809082,97.78960158290191
746,1764.545,0.2119821680992402,97.78801783190076
747,1766.854,0.21357071099890845,97.78642928900109
748,1769.162,0.21516407153723094,97.78483592846277
749,1771.469,0.21676227571398954,97.78323772428601
750,1773.775,1.2183653497892664,97.78163465021073
751,1776.080,0.21997332028387007,97.78002667971613
752,1778.385,0.22158621397998957,97.77841378602001
753,1780.688,0.0,97.77679594207837
754,1782.991,0.22482687941523238,97.77517312058477
755,1785.293,0.22645470603016804,97.77354529396983
756,1787.594,0.22808756559928156,97.77191243440072
757,1789.894,0.22972548621945066,97.77027451378055
758,1792.193,0.23136849625210232,97.7686315037479
759,1794.492,0.23301662432378123,97.76698337567622
760,1796.789,0.23466989932664717,97.76533010067335
761,1799.086,0.23632835041907185,97.76367164958093
762,1801.382,0.2379920070261221,97.76200799297388
763,1803.677,0.2396608988401141,97.76033910115989
764,1805.971,0.24133505582119597,97.7586649441788
765,1808.265,0.243014508197831,97.75698549180217
766,1810.557,1.2446992864673518,97.75530071353265
767,1812.849,1.246389421396529,97.75361057860347
768,1815.140,1.248084944022068,97.75191505597793
769,1817.430,1.2497858856511925,97.75021411434881
770,1819.719,1.2514922778621411,97.74850772213786
771,1822.007,0.25320415250475037,97.74679584749525
772,1824.295,1.2549215417009378,97.74507845829906
773,1826.581,0.2566444778453132,97.74335552215469
774,1828.867,0.25837299360564714,97.74162700639435
775,1831.152,0.2601071219234541,97.73989287807655
776,1833.436,0.26184689601453215,97.73815310398547
777,1835.719,0.26359234936948894,97.73640765063051
778,1838.002,0.2653435157542532,97.73465648424575
779,1840.283,0.0,97.7328995707893
780,1842.564,0.0,97.73113687594292
781,1844.844,0.2706316348886446,97.72936836511136
782,1847.123,0.27240599657814357,97.72759400342186
783,1849.401,0.27418624427639315,97.7258137557236
784,1851.678,1.2759724134127737,97.72402758658723
785,1853.955,0.2777645396958235,97.72223546030418
786,1856.231,1.2795626591137221,97.72043734088628
787,1858.506,0.2813668079348446,97.71863319206516
788,1860.780,1.2831770227083723,97.71682297729163
789,1863.053,1.2849933402647054,97.7150066597353
790,1865.325,1.286815797716116,97.71318420228388
791,1867.597,1.2886444324572182,97.71135556754278
792,1869.867,1.290479282165549,97.70952071783445
793,1872.137,1.2923203848020677,97.70767961519793
794,1874.406,1.2941677786117367,97.70583222138826
795,1876.674,1.2960215021240344,97.70397849787597
796,1878.941,1.2978815941534947,97.7021184058465
797,1881.208,1.299748093800261,97.70025190619974
798,1883.473,0.3016210404506552,97.69837895954934
799,1885.738,0.3035004737776035,97.6964995262224
800,1888.002,0.3053864337413188,97.69461356625868
801,1890.265,0.30727896058975546,97.69272103941024
802,1892.528,0.30917809485914916,97.69082190514085
803,1894.789,1.3110838773746138,97.68891612262539
804,1897.050,1.3129963492506107,97.68700365074939
805,1899.310,1.3149155518915308,97.68508444810847
806,1901.569,0.3168415269922349,97.68315847300777
807,1903.827,0.31877431653855126,97.68122568346145
808,1906.084,0.32071396280788633,97.67928603719211
809,1908.340,0.32266050836969384,97.6773394916303
810,1910.596,0.32461399608605745,97.67538600391394
811,1912.851,0.32657446911221655,97.67342553088778
812,1915.105,0.32854197089709203,97.67145802910291
813,1917.358,0.33051654518385476,97.66948345481615
814,1919.610,0.3324982360104656,97.66750176398953
815,1921.862,0.33448708771015845,97.66551291228984
816,1924.113,0.33648314491206577,97.66351685508793
817,1926.362,0.3384864525416873,97.66151354745831
818,1928.611,0.3404970558214586,97.65950294417854
819,1930.860,0.3425150002712769,97.65748499972872
820,1933.107,1.3445403317090836,97.65545966829092
821,1935.353,1.3465730962513618,97.65342690374864
822,1937.599,1.348613340313662,97.65138665968634
823,1939.844,0.35066111061118477,97.64933888938882
824,1942.088,0.35271645415930664,97.6472835458407
825,1944.331,0.35477941827409154,97.64522058172591
826,1946.574,0.0,97.64314994942713
827,1948.815,0.3589283989747827,97.64107160102522
828,1951.056,0.3610145117012422,97.63898548829876
829,1953.296,0.3631084372765798,97.63689156272342
830,1955.535,0.3652102245285107,97.63478977547149
831,1957.773,0.36731992258870605,97.6326800774113
832,1960.011,0.3694375808933188,97.63056241910668
833,1962.248,0.3715632491835237,97.62843675081648
834,1964.483,0.37369697750608566,97.62630302249391
835,1966.718,0.3758388162138431,97.62416118378616
836,1968.953,0.3779888159662903,97.62201118403371
837,1971.186,0.38014702773011777,97.61985297226988
838,1973.418,1.3823135027797235,97.61768649722028
839,1975.650,0.38448829269779594,97.6155117073022
840,1977.881,1.3866714493757826,97.61332855062422
841,1980.111,0.3888630250145013,97.6111369749855
842,1982.340,1.3910630721246662,97.60893692787533
843,1984.569,1.3932716435273846,97.60672835647262
844,1986.797,1.3954887923547261,97.60451120764527
845,1989.023,0.3977145720503046,97.6022854279497
846,1991.249,0.3999490363697049,97.6000509636303
847,1993.474,0.4021922393811366,97.59780776061886
848,1995.699,0.404444235465931,97.59555576453407
849,1997.922,0.4067050793190674,97.59329492068093
850,2000.145,0.4089748259496986,97.5910251740503
851,2002.367,0.41125353068177617,97.58874646931822
852,2004.588,0.413541249154477,97.58645875084552
853,2006.808,0.4158380373227999,97.5841619626772
854,2009.028,0.41814395145812,97.58185604854188
855,2011.246,0.4204590481487003,97.5795409518513
856,2013.464,0.42278338430024576,97.57721661569975
857,2015.681,0.42511701713642935,97.57488298286357
858,2017.898,0.42746000419943186,97.57253999580057
859,2020.113,0.4298124033504962,97.5701875966495
860,2022.328,0.4321742727704674,97.56782572722953
861,2024.541,1.4345456709603042,97.5654543290397
862,2026.754,0.43692665674166165,97.56307334325834
863,2028.966,1.4393172892573745,97.56068271074263
864,2031.178,1.441717627972082,97.55828237202792
865,2033.388,1.4441277326726691,97.55587226732733
866,2035.598,1.4465476634688486,97.55345233653115
867,2037.807,1.4489774807937437,97.55102251920626
868,2040.015,0.45141724540435746,97.54858275459564
869,2042.222,0.45386701838215515,97.54613298161784
870,2044.429,0.4563268611335758,97.54367313886642
871,2046.634,0.4587968353906149,97.54120316460939
872,2048.839,0.4612770032112934,97.5387229967887
873,2051.043,1.4637674269802972,97.5362325730197
874,2053.247,1.4662681694094033,97.5337318305906
875,2055.449,1.4687792935381196,97.53122070646188
876,2057.651,1.4713008627341537,97.52869913726585
877,2059.851,0.0,97.526167059306
878,2062.052,0.0,97.52362440855659
879,2064.251,0.0,97.52107112066194
880,2066.449,0.0,97.51850713093607
881,2068.647,0.0,97.51593237436201
882,2070.844,0.4866532144086335,97.51334678559137
883,2073.040,0.4892497010562664,97.51075029894373
884,2075.235,0.49185715159384813,97.50814284840615
885,2077.429,0.4944756323673971,97.5055243676326
886,2079.623,0.4971052100565885,97.50289478994341
887,2081.815,0.49974595167522295,97.50025404832478
888,2084.007,0.502397924571838,97.49760207542816
889,2086.199,0.5050611964301623,97.49493880356984
890,2088.389,0.5077358352697701,97.49226416473023
891,2090.579,0.5104219094464781,97.48957809055352
892,2092.767,0.5131194876530429,97.48688051234696
893,2094.955,0.5158286389195581,97.48417136108044
894,2097.143,0.0,97.4814505673859
895,2099.329,0.5212819384431668,97.47871806155683
896,2101.514,0.0,97.47597377354768
897,2103.699,0.0,97.47321763297332
898,2105.883,0.0,97.47044956910857
899,2108.066,0.0,97.46766951088757
900,2110.249,0.0,97.46487738690332
901,2112.430,1.5379268745928982,97.4620731254071
902,2114.611,1.5407433456920927,97.45925665430791
903,2116.791,1.5435720988280224,97.45642790117198
904,2118.970,1.5464132067778138,97.45358679322219
905,2121.149,1.5492667426624394,97.45073325733756
906,2123.326,0.5521327799472857,97.44786722005271
907,2125.503,0.5550113924427222,97.44498860755728
908,2127.679,0.5579026543045842,97.44209734569542
909,2129.854,0.5608066400347411,97.43919335996526
910,2132.029,0.0,97.43627657551838
911,2134.202,0.5666530828408156,97.43334691715918
912,2136.375,0.5695956906554898,97.43040430934451
913,2138.547,0.5725513238170521,97.42744867618295
914,2140.718,0.5755200585656297,97.42447994143437
915,2142.889,1.57850197149061,97.42149802850939
916,2145.058,1.58149713953118,97.41850286046882
917,2147.227,1.5845056399768964,97.4154943600231
918,2149.395,0.5875275504681952,97.4124724495318
919,2151.563,0.5905629489969328,97.40943705100307
920,2153.729,0.5936119139069262,97.40638808609307
921,2155.895,0.5966745238945208,97.40332547610548
922,2158.060,0.599750858009088,97.40024914199091
923,2160.224,1.6028409956535938,97.3971590043464
924,2162.387,1.6059450165851246,97.39405498341488
925,2164.550,1.6090630009154268,97.39093699908457
926,2166.711,1.6121950291114473,97.38780497088855
927,2168.872,1.6153411819959018,97.3846588180041
928,2171.033,1.6185015407477579,97.38149845925224
929,2173.192,0.6216761869028176,97.37832381309718
930,2175.351,1.6248652023542576,97.37513479764574
931,2177.508,0.6280686693531266,97.37193133064687
932,2179.665,0.6312866705089277,97.36871332949107
933,2181.822,0.634519288790159,97.36548071120984
934,2183.977,0.0,97.36223339247518
935,2186.132,0.0,97.35897128959901
936,2188.285,0.0,97.35569431853268
937,2190.439,0.0,97.3524023948664
938,2192.591,0.6509045661713202,97.34909543382868
939,2194.742,0.6542266497141895,97.34577335028581
940,2196.893,0.657563941258644,97.34243605874136
941,2199.043,0.0,97.33908347333555
942,2201.192,0.0,97.33571550784481
943,2203.341,0.0,97.33233207568117
944,2205.488,0.6710669101082374,97.32893308989176
945,2207.635,0.6744815368417676,97.32551846315823
946,2209.781,0.6779118922037242,97.32208810779628
947,2211.926,0.0,97.31864193575502
948,2214.071,0.0,97.31517985861653
949,2216.214,0.0,97.31170178759527
950,2218.357,0.0,97.30820763353752
951,2220.499,0.6953026930790998,97.3046973069209
952,2222.641,0.698829282146221,97.30117071785378
953,2224.781,0.7023722239252237,97.29762777607478
954,2226.921,0.7059316090478234,97.29406839095218
955,2229.060,0.7095075285165819,97.29049247148342
956,2231.198,0.7131000737054194,97.28689992629458
957,2233.336,0.716709336360239,97.28329066363976
958,2235.472,0.7203354085993681,97.27966459140063
959,2237.608,0.7239783829141686,97.27602161708583
960,2239.743,0.0,97.27236164783046
961,2241.878,0.0,97.26868459039557
962,2244.011,0.0,97.26499035116748
963,2246.144,0.0,97.26127883615746
964,2248.276,0.7424500489989896,97.25754995100101
965,2250.407,0.7461963990426028,97.2538036009574
966,2252.538,0.7499603090908948,97.2500396909091
967,2254.667,0.7537418746387061,97.2462581253613
968,2256.796,0.757541191558758,97.24245880844124
969,2258.924,0.7613583561021358,97.23864164389786
970,2261.052,0.0,97.2348065351011
971,2263.178,0.7690466149585831,97.23095338504142
972,2265.304,0.7729179036707592,97.22708209632924
973,2267.429,0.0,97.22319257119447
974,2269.553,0.0,97.21928471148588
975,2271.677,0.0,97.2153584186706
976,2273.800,0.0,97.2114135938336
977,2275.921,0.0,97.20745013767711
978,2278.043,0.7965320494798931,97.2034679505201
979,2280.163,0.8005330677022329,97.19946693229777
980,2282.283,0.804553017439062,97.19544698256094
981,2284.401,0.8085919995244097,97.19140800047559
982,2286.520,0.8126501151777603,97.18734988482224
983,2288.637,0.8167274660044939,97.1832725339955
984,2290.753,0.82082415399654,97.17917584600346
985,2292.869,0.8249402815328466,97.17505971846715
986,2294.984,0.8290759513799344,97.17092404862007
987,2297.098,0.8332312666924224,97.16676873330758
988,2299.212,0.837406331013625,97.16259366898637
989,2301.325,0.8416012482760351,97.15839875172396
990,2303.437,0.8458161228018497,97.15418387719815
991,2305.548,0.8500510593035671,97.14994894069643
992,2307.658,0.8543061628844981,97.1456938371155
993,2309.768,0.8585815390393208,97.14141846096068
994,2311.877,0.0,97.13712270634542
995,2313.985,0.0,97.13280646699076
996,2316.092,0.0,97.12846963622472
997,2318.199,0.8758878930181453,97.12411210698185
998,2320.304,0.880266228197371,97.11973377180263
999,2322.409,0.8846654771670615,97.11533452283294
1000,2324.514,1.8890857481764556,97.11091425182354
1001,2326.617,1.893527149870451,97.10647285012955
1002,2328.720,0.8979897912901578,97.10201020870984
1003,2330.822,1.9024737818734394,97.09752621812656
1004,2332.923,1.906979231455466,97.09302076854453
1005,2335.024,1.9115062502691842,97.08849374973082
1006,2337.123,1.9160549489459555,97.08394505105404
1007,2339.222,1.9206254385160264,97.07937456148397
1008,2341.320,0.0,97.0747821695909
1009,2343.418,0.0,97.07016776354517
1010,2345.514,0.0,97.06553123111655
1011,2347.610,0.0,97.06087245967377
1012,2349.705,0.0,97.05619133618399
1013,2351.800,0.9485122527878502,97.05148774721215
1014,2353.893,0.9532384210794334,97.04676157892057
1015,2355.986,0.9579872829316685,97.04201271706833
1016,2358.078,0.9627589529892759,97.03724104701072
1017,2360.170,0.9675535463012039,97.0324464536988
1018,2362.260,0.9723711783212963,97.0276288216787
1019,2364.350,0.0,97.02278803509122
1020,2366.439,0.9820760223287408,97.01792397767126
1021,2368.527,0.0,97.0130365327472
1022,2370.615,0.0,97.00812558324044
1023,2372.702,0.0,97.0031910116649
