# kind,background_subtracted
# version_label,v1_05
# poly_order,5
# iterations_run,5
pixel_index,raman_shift_cm-1,intensity,background_intensity
0,-224.846,0.9661249522461617,97.03387504775384
1,-221.778,0.9522235271068098,97.04777647289319
2,-218.712,0.9384286532194182,97.06157134678058
3,-215.647,0.9247396582214833,97.07526034177852
4,-212.583,0.9111558725387425,97.08884412746126
5,-209.521,0.8976766293796885,97.10232337062031
6,-206.460,0.8843012647301549,97.11569873526985
7,-203.399,0.0,97.12897088265211
8,-200.340,0.8578595287570465,97.14214047124295
9,-197.283,0.844791843242831,97.15520815675717
10,-194.226,0.831825407845983,97.16817459215402
11,-191.171,0.8189595723573717,97.18104042764263
12,-188.116,0.8061936893125079,97.19380631068749
13,-185.064,0.7935271139861868,97.20647288601381
14,-182.012,0.0,97.21904079561304
15,-178.961,0.0,97.23151067874831
16,-175.912,0.7561168280402057,97.2438831719598
17,-172.864,0.0,97.25615890907028
18,-169.817,0.0,97.26833852119049
19,-166.771,0.7195773632753912,97.28042263672461
20,-163.726,0.7075881186243294,97.29241188137567
21,-160.683,0.0,97.30430687815108
22,-157.641,0.68389175263205,97.31610824736795
23,-154.600,1.6721833933413563,97.32781660665864
24,-151.560,1.6605674290238426,97.33943257097616
25,-148.521,1.649043247400428,97.35095675259957
26,-145.484,1.6376102388604608,97.36238976113954
27,-142.447,1.6262677964563323,97.37373220354367
28,-139.412,1.615015315898006,97.384984684102
29,-136.379,1.603852195547546,97.39614780445245
30,-133.346,1.5927778364137453,97.40722216358625
31,-130.314,1.581791642146598,97.4182083578534
32,-127.284,1.5708930190319137,97.42910698096809
33,-124.255,0.5600813759858596,97.43991862401414
34,-121.227,1.5493561245495044,97.4506438754505
35,-118.200,1.5387166788834037,97.4612833211166
36,-115.175,1.5281624557620859,97.47183754423791
37,-112.150,0.5176928745687235,97.48230712543128
38,-109.127,0.5073073572895765,97.49269264271042
39,-106.105,0.4970053285086067,97.5029946714914
40,-103.084,0.4867862154020344,97.51321378459797
41,-100.065,0.47664944773286777,97.52335055226713
42,-97.046,0.4665944578455026,97.5334055421545
43,-94.029,0.4566206806602082,97.54337931933979
44,-91.013,0.4467275536677562,97.55327244633224
45,-87.998,0.436914516923963,97.56308548307604
46,-84.984,0.42718101304417644,97.57281898695582
47,-81.972,0.4175264871979181,97.58247351280208
48,-78.960,0.40795038710342624,97.59204961289657
49,-75.950,0.39845216302214226,97.60154783697786
50,-72.941,0.38903126775336716,97.61096873224663
51,-69.933,0.37968715662873365,97.62031284337127
52,-66.927,0.0,97.6295807124932
53,-63.921,0.0,97.63877287923238
54,-60.917,0.0,97.64788988069272
55,-57.914,1.3430677485324338,97.65693225146757
56,-54.912,1.3340994763549077,97.66590052364509
57,-51.911,1.3252047731862149,97.67479522681379
58,-48.912,1.3163831119321259,97.68361688806787
59,-45.913,0.3076339679872575,97.69236603201274
60,-42.916,0.0,97.70104318077045
61,-39.920,0.0,97.7096488539851
62,-36.925,0.2818164311716771,97.71818356882832
63,-33.931,0.27335215999532636,97.72664784000467
64,-30.939,1.2649578202428415,97.73504217975716
65,-27.947,2.2566329021273788,97.74336709787262
66,-24.957,2.248376898312827,97.75162310168717
67,-21.968,1.2401893039083234,97.75981069609168
68,-18.980,1.2320696164628373,97.76793038353716
69,-15.993,0.22401733595968665,97.77598266404031
70,-13.008,0.21603196481115106,97.78396803518885
71,-10.023,0.2081130078530009,97.791886992147
72,-7.040,0.0,97.79974002766097
73,-4.058,0.0,97.80752763206434
74,-1.077,0.0,97.81525029328354
75,1.903,0.17709150315671707,97.82290849684328
76,4.881,0.0,97.83050272587204
77,7.859,0.1619665388926137,97.83803346110739
78,10.835,0.15449881909840713,97.84550118090159
79,13.810,1.1470936387730433,97.85290636122696
80,16.784,1.1397505243187567,97.86024947568124
81,19.757,1.132469004506774,97.86753099549323
82,22.728,1.1252486104719566,97.87475138952804
83,25.699,0.11808887570734328,97.88191112429266
84,28.668,0.11098933605866534,97.88901066394133
85,31.636,0.10394952971894611,97.89605047028105
86,34.603,0.0969689972230583,97.90303100277694
87,37.569,0.0900472814422244,97.90995271855778
88,40.534,0.08318392757865922,97.91681607242134
89,43.497,0.0,97.92362151683996
90,46.460,0.06963049803411536,97.93036950196588
91,49.421,0.06293952436324446,97.93706047563676
92,52.381,0.0,97.94369488338101
93,55.340,0.0,97.95027316842342
94,58.297,0.04320422830959103,97.95679577169041
95,61.254,0.03673686818437716,97.96326313181562
96,64.209,0.030324314854723866,97.96967568514528
97,67.164,0.023966134256369287,97.97603386574363
98,70.117,0.017661894601559425,97.98233810539844
99,73.069,0.011411166373562764,97.98858883362644
100,76.020,0.005213522321341202,97.99478647767866
101,78.969,0.0,98.00093146254603
102,81.918,0.9929757890352704,98.00702421096473
103,84.865,1.9869348565783724,98.01306514342163
104,87.811,1.9809453218402382,98.01905467815976
105,90.757,0.9750067688162432,98.02499323118376
106,93.700,0.9691187837347002,98.0308812162653
107,96.643,0.963280955051431,98.03671904494857
108,99.585,0.957492873444366,98.04250712655563
109,102.525,0.9517541318080305,98.04824586819197
110,105.465,0.9460643252481162,98.05393567475188
111,108.403,0.9404230510761096,98.05957694892389
112,111.340,0.9348299088037209,98.06517009119628
113,114.276,0.9292845001375838,98.07071549986242
114,117.211,0.0,98.07621357102633
115,120.144,0.0,98.08166469860802
116,123.077,0.0,98.08706927434903
117,126.008,0.0,98.09242768781779
118,128.938,0.0,98.0977403264151
119,131.868,0.8969924246204215,98.10300757537958
120,134.795,0.891770182206912,98.10822981779309
121,137.722,0.8865925654137783,98.11340743458622
122,140.648,0.8814591954563156,98.11854080454368
123,143.572,0.8763696956902294,98.12363030430977
124,146.496,0.8713236916061646,98.12867630839384
125,149.418,0.8663208108243339,98.13367918917567
126,152.339,0.8613606830889893,98.13863931691101
127,155.259,0.8564429402630651,98.14355705973693
128,158.178,0.8515672163226498,98.14843278367735
129,161.096,0.8467331473515998,98.1532668526484
130,164.012,0.8419403715360829,98.15805962846392
131,166.928,0.8371885291591212,98.16281147084088
132,169.842,0.8324772625951624,98.16752273740484
133,172.755,0.8278062163046087,98.17219378369539
134,175.667,0.8231750368284168,98.17682496317158
135,178.578,0.8185833727826264,98.18141662721737
136,181.488,0.8140308748529321,98.18596912514707
137,184.397,0.8095171957891836,98.19048280421082
138,187.304,0.8050419904000421,98.19495800959996
139,190.211,0.8006049155474386,98.19939508445256
140,193.116,0.0,98.2037943698588
141,196.020,0.0,98.20815620486644
142,198.923,0.0,98.21248092648624
143,201.825,0.0,98.21676886969746
144,204.726,0.0,98.22102036745324
145,207.625,0.7747642493139324,98.22523575068607
146,210.524,0.7705846516867609,98.22941534831324
147,213.421,0.766440512757697,98.2335594872423
148,216.318,0.7623315076235571,98.23766849237644
149,219.213,0.7582573133799997,98.24174268662
150,222.107,0.754217609116111,98.24578239088389
151,225.000,0.7502120759089621,98.24978792409104
152,227.891,0.7462403968181945,98.2537596031818
153,230.782,0.7423022568805351,98.25769774311946
154,233.672,0.7383973431043387,98.26160265689566
155,236.560,0.7345253444642168,98.26547465553578
156,239.447,0.7306859518955235,98.26931404810448
157,242.333,0.7268788582889414,98.27312114171106
158,245.218,0.7231037584850242,98.27689624151498
159,248.102,0.7193603492687828,98.28063965073122
160,250.985,0.715648329364214,98.28435167063579
161,253.867,0.0,98.28803260057116
162,256.748,0.7083172620483253,98.29168273795167
163,259.627,0.7046976217309577,98.29530237826904
164,262.505,0.7011081849022816,98.29889181509772
165,265.383,0.6975486598995957,98.3024513401004
166,268.259,0.6940187569665142,98.30598124303349
167,271.134,0.690518188247566,98.30948181175243
168,274.008,0.6870466677827096,98.31295333221729
169,276.880,0.6836039115018906,98.31639608849811
170,279.752,0.6801896372196268,98.31981036278037
171,282.623,0.6768035646295516,98.32319643537045
172,285.492,0.6734454152989287,98.32655458470107
173,288.360,0.6701149126633084,98.32988508733669
174,291.228,0.6668117820209432,98.33318821797906
175,294.094,0.6635357505274868,98.33646424947251
176,296.959,0.6602865471904664,98.33971345280953
177,299.823,0.6570639028638254,98.34293609713617
178,302.685,0.6538675502425662,98.34613244975743
179,305.547,0.6506972238572075,98.34930277614279
180,308.408,0.6475526600683992,98.3524473399316
181,311.267,0.6444335970614787,98.35556640293852
182,314.126,0.6413397748410006,98.358660225159
183,316.983,0.6382709352252931,98.3617290647747
184,319.839,0.6352268218410444,98.36477317815896
185,322.694,0.6322071801178311,98.36779281988217
186,325.548,0.6292117572827038,98.3707882427173
187,328.401,0.6262403023546881,98.37375969764531
188,331.253,0.6232925661393978,98.3767074338606
189,334.103,0.6203683012235928,98.37963169877641
190,336.953,0.6174672619696508,98.38253273803035
191,339.801,0.6145892045102386,98.38541079548976
192,342.649,0.6117338867427975,98.3882661132572
193,345.495,0.6089010683241156,98.39109893167588
194,348.340,0.6060905106648988,98.3939094893351
195,351.184,0.6033019769242713,98.39669802307573
196,354.027,0.600535232004404,98.3994647679956
197,356.869,0.5977900425450713,98.40220995745493
198,359.709,0.5950661769181096,98.40493382308189
199,362.549,0.5923634052221018,98.4076365947779
200,365.388,0.5896814992768213,98.41031850072318
201,368.225,0.58702023261786,98.41297976738214
202,371.061,0.5843793804911996,98.4156206195088
203,373.897,0.5817587198476559,98.41824128015234
204,376.731,0.5791580293375773,98.42084197066242
205,379.564,0.5765770893053173,98.42342291069468
206,382.396,0.5740156817837772,98.42598431821622
207,385.227,0.5714735904890205,98.42852640951098
208,388.057,0.5689506008148157,98.43104939918518
209,390.885,0.5664464998271512,98.43355350017285
210,393.713,0.5639610762588205,98.43603892374118
211,396.539,0.0,98.438505879496
212,399.365,0.0,98.44095457538727
213,402.189,0.5566147822855925,98.44338521771441
214,405.012,0.5542019888681722,98.44579801113183
215,407.835,0.551806841345595,98.4481931586544
216,410.656,0.5494291383371888,98.45057086166281
217,413.476,0.5470686800909448,98.45293131990906
218,416.295,0.5447252684781034,98.4552747315219
219,419.112,0.5423987069877398,98.45760129301226
220,421.929,0.5400888007212785,98.45991119927872
221,424.745,0.5377953563870506,98.46220464361295
222,427.559,0.5355181822949078,98.46448181770509
223,430.373,0.5332570883506946,98.4667429116493
224,433.185,0.5310118860508624,98.46898811394914
225,435.996,0.528782388477012,98.47121761152299
226,438.807,0.5265684102904373,98.47343158970956
227,441.616,0.5243697677266965,98.4756302322733
228,444.424,0.0,98.47781372140983
229,447.231,0.0,98.4799822377514
230,450.037,0.0,98.48213596037235
231,452.842,0.0,98.4842750667945
232,455.645,0.0,98.48639973299268
233,458.448,0.0,98.48851013340008
234,461.250,0.0,98.49060644091377
235,464.050,0.5073111730999216,98.49268882690008
236,466.849,1.505242538799905,98.4947574612001
237,469.648,1.5031874878649063,98.4968125121351
238,472.445,1.5011458534880688,98.49885414651193
239,475.241,1.4991174703714307,98.50088252962857
240,478.036,1.4971021747205242,98.50289782527948
241,480.830,0.49509980423894717,98.50490019576105
242,483.623,1.4931101981228778,98.50688980187712
243,486.415,1.4911331970556745,98.50886680294433
244,489.206,1.4891686432024045,98.5108313567976
245,491.996,1.487216380204373,98.51278361979563
246,494.784,2.485276253173751,98.51472374682625
247,497.572,3.483348108688091,98.51665189131191
248,500.358,7.481431794784868,98.51856820521513
249,503.144,7.479527160956053,98.52047283904395
250,505.928,11.477634058142698,98.5223659418573
251,508.712,11.475752338729407,98.52424766127059
252,511.494,11.473881856539009,98.52611814346099
253,514.275,7.472022466826999,98.527977533173
254,517.055,2.4701740262761973,98.5298259737238
255,519.834,1.4683363929912332,98.53166360700877
256,522.612,1.4665094264931327,98.53349057350687
257,525.389,0.46469298771384615,98.53530701228615
258,528.165,0.46288693899084876,98.53711306100915
259,530.940,0.46109114406165475,98.53890885593835
260,533.713,0.45930546805841743,98.54069453194158
261,536.486,0.45752977750245805,98.54247022249754
262,539.257,0.4557639402987803,98.54423605970122
263,542.028,0.45400782573071297,98.54599217426929
264,544.797,0.4522613044544386,98.54773869554556
265,547.566,0.4505242484934797,98.54947575150652
266,550.333,0.4487965312333415,98.55120346876666
267,553.099,0.4470780274160546,98.55292197258395
268,555.864,0.4453686131346899,98.55463138686531
269,558.629,0.4436681658279156,98.55633183417208
270,561.392,0.4419765642746256,98.55802343572537
271,564.154,0.4402936885884259,98.55970631141157
272,566.915,0.43861942021219136,98.56138057978781
273,569.674,0.43695364191268027,98.56304635808732
274,572.433,0.4352962377749918,98.56470376222501
275,575.191,0.4336470931972656,98.56635290680273
276,577.948,0.43200609488508235,98.56799390511492
277,580.703,0.0,98.56962686915388
278,583.458,0.428748090384687,98.57125190961531
279,586.211,0.0,98.57286913590374
280,588.964,0.0,98.57447865613793
281,591.715,0.0,98.57608057715636
282,594.466,0.0,98.57767500452267
283,597.215,0.0,98.5792620425311
284,599.963,0.0,98.58084179421188
285,602.710,0.0,98.58241436133677
286,605.457,0.0,98.58397984442445
287,608.202,0.4144616572540656,98.58553834274593
288,610.946,0.41291004566991774,98.58708995433008
289,613.689,0.41136522403100173,98.588634775969
290,616.431,0.4098270967765245,98.59017290322348
291,619.172,0.40829556957153557,98.59170443042846
292,621.911,0.40677054930148415,98.59322945069852
293,624.650,0.4052519440668334,98.59474805593317
294,627.388,0.4037396631775181,98.59626033682248
295,630.125,0.4022336171475871,98.59776638285241
296,632.860,1.4007337176897323,98.59926628231027
297,635.595,1.3992398777098174,98.60076012229018
298,638.328,0.3977520113014492,98.60224798869855
299,641.061,0.396270033740592,98.60372996625941
300,643.792,0.3947938614799966,98.60520613852
301,646.523,0.3933234121439,98.6066765878561
302,649.252,0.3918586045224828,98.60814139547752
303,651.980,1.3903993585664693,98.60960064143353
304,654.708,1.388945595381628,98.61105440461837
305,657.434,0.3874972372234424,98.61250276277656
306,660.159,0.0,98.61394579250845
307,662.883,0.3846164307243498,98.61538356927565
308,665.606,0.38318383259354505,98.61681616740645
309,668.328,0.38175633989874314,98.61824366010126
310,671.049,0.3803338805619205,98.61966611943808
311,673.769,0.3789163836220979,98.6210836163779
312,676.488,0.37750377922978373,98.62249622077022
313,679.206,0.3760959986415884,98.62390400135841
314,681.923,1.3746929742147955,98.6253070257852
315,684.639,1.3732946394018626,98.62670536059814
316,687.354,1.371900928745049,98.62809907125495
317,690.067,0.3705117778708882,98.62948822212911
318,692.780,0.3691271234848159,98.63087287651518
319,695.492,0.3677469033656706,98.63225309663433
320,698.202,0.36637105636033596,98.63362894363966
321,700.912,0.3649995223781559,98.63500047762184
322,703.621,0.3636322423856626,98.63636775761434
323,706.328,0.36226915840094875,98.63773084159905
324,709.035,0.3609102134884097,98.63908978651159
325,711.740,0.35955535175314424,98.64044464824686
326,714.444,0.3582045183355973,98.6417954816644
327,717.148,0.0,98.6431423405939
328,719.850,0.0,98.64448527784057
329,722.552,1.3541756548093105,98.64582434519069
330,725.252,1.3528404065830557,98.64715959341694
331,727.951,0.35150892771608255,98.64849107228392
332,730.649,1.3501811694464578,98.64981883055354
333,733.347,0.3488570840094667,98.65114291599053
334,736.043,0.34753662463216983,98.65246337536783
335,738.738,0.34621974552794654,98.65378025447205
336,741.432,0.34490640189109456,98.6550935981089
337,744.125,0.34359654989131627,98.65640345010868
338,746.817,0.3422901466683328,98.65770985333167
339,749.508,0.3409871503264128,98.65901284967359
340,752.198,0.33968751992894397,98.66031248007106
341,754.887,0.338391215492976,98.66160878450702
342,757.575,0.33709819798377794,98.66290180201622
343,760.262,0.33580842930939525,98.6641915706906
344,762.948,0.33452187231523567,98.66547812768476
345,765.633,0.0,98.66676150922143
346,768.317,0.0,98.66804175059687
347,770.999,0.0,98.66931888618636
348,773.681,0.0,98.6705929494496
349,776.362,0.0,98.67186397293618
350,779.042,0.3268680117089957,98.673131988291
351,781.720,0.3256029737402031,98.6743970262598
352,784.398,0.324340883305581,98.67565911669442
353,787.075,0.32308171144154585,98.67691828855845
354,789.751,0.3218254300674488,98.67817456993255
355,792.425,0.3205720119800759,98.67942798801992
356,795.099,0.31932143084821973,98.68067856915178
357,797.771,0.318073661207265,98.68192633879274
358,800.443,0.0,98.68317132154631
359,803.114,0.3155864588396611,98.68441354116034
360,805.783,0.31434697946761503,98.68565302053238
361,808.452,0.31311021828470587,98.6868897817153
362,811.119,0.3118761540775097,98.68812384592249
363,813.786,0.3106447664664671,98.68935523353353
364,816.451,0.30941603590048317,98.69058396409952
365,819.116,0.30818994365147034,98.69181005634853
366,821.779,0.3069664718089484,98.69303352819105
367,824.442,0.3057456032745307,98.69425439672547
368,827.103,0.30452732175652386,98.69547267824348
369,829.763,0.0,98.6966883882355
370,832.423,0.0,98.69790154139622
371,835.081,0.0,98.69911215162993
372,837.739,0.0,98.700320232056
373,840.395,0.2984742049856237,98.70152579501438
374,843.050,0.2972711479290666,98.70272885207093
375,845.705,0.29607058597699165,98.70392941402301
376,848.358,0.294872509095228,98.70512749090477
377,851.010,0.29367690800724233,98.70632309199276
378,853.662,0.292483774188824,98.70751622581118
379,856.312,0.2912930998625143,98.70870690013749
380,858.961,0.2901048779922206,98.70989512200778
381,861.610,0.2889191022777595,98.71108089772224
382,864.257,0.2877357671494565,98.71226423285054
383,866.903,0.28655486776263217,98.71344513223737
384,869.549,0.2853763999922023,98.7146236000078
385,872.193,0.28420036042720653,98.7157996395728
386,874.836,1.283026746365394,98.7169732536346
387,877.478,1.2818555558077946,98.7181444441922
388,880.120,1.2806867874531918,98.71931321254681
389,882.760,1.2795204406927638,98.72047955930724
390,885.399,1.278356515604628,98.72164348439537
391,888.037,1.2771950129483542,98.72280498705165
392,890.675,1.2760359341595375,98.72396406584046
393,893.311,0.274879281344397,98.7251207186556
394,895.946,0.27372505727427665,98.72627494272572
395,898.580,0.27257326538020266,98.7274267346198
396,901.214,0.2714239097475257,98.72857609025247
397,903.846,0.2702769951103221,98.72972300488968
398,906.477,1.2691325268461213,98.73086747315388
399,909.107,1.2679905109703355,98.73200948902966
400,911.737,1.2668509541308595,98.73314904586914
401,914.365,0.2657138636026559,98.73428613639734
402,916.992,0.26457924728224214,98.73542075271776
403,919.618,0.2634471136823322,98.73655288631767
404,922.244,0.26231747192632326,98.73768252807368
405,924.868,0.2611903317428812,98.73880966825712
406,927.491,0.26006570346049784,98.7399342965395
407,930.113,0.2589435980020198,98.74105640199798
408,932.735,0.25782402687926265,98.74217597312074
409,935.355,0.2567070021875111,98.74329299781249
410,937.974,0.25559253660010484,98.7444074633999
411,940.592,0.2544806433629674,98.74551935663703
412,943.210,0.2533713362891916,98.74662866371081
413,945.826,0.2522646297535829,98.74773537024642
414,948.441,1.2511605386872304,98.74883946131277
415,951.056,0.25005907857203624,98.74994092142796
416,953.669,0.2489602654352865,98.75103973456471
417,956.281,0.24786411584422297,98.75213588415578
418,958.893,0.2467706469005435,98.75322935309946
419,961.503,0.2456798762350303,98.75432012376497
420,964.112,0.24459182200207863,98.75540817799792
421,966.721,0.24350650287422582,98.75649349712577
422,969.328,1.2424239380367368,98.75757606196326
423,971.935,0.24134414718214714,98.75865585281785
424,974.540,1.240267150504863,98.75973284949514
425,977.144,1.239192968695619,98.76080703130438
426,979.748,0.23812162293613426,98.76187837706387
427,982.350,0.23705313489362823,98.76294686510637
428,984.952,1.2359875267153484,98.76401247328465
429,987.552,0.23492482102319912,98.7650751789768
430,990.152,0.2338650409082419,98.76613495909176
431,992.750,0.23280820992522422,98.76719179007478
432,995.348,0.23175435208722206,98.76824564791278
433,997.944,0.23070349186015449,98.76929650813985
434,1000.540,0.22965565415728406,98.77034434584272
435,1003.134,0.22861086433387356,98.77138913566613
436,1005.728,1.2275691481816722,98.77243085181833
437,1008.321,1.2265305319235011,98.7734694680765
438,1010.912,1.2254950422077968,98.7745049577922
439,1013.503,0.22446270610316787,98.77553729389683
440,1016.092,0.2234335510929526,98.77656644890705
441,1018.681,0.0,98.77759239493021
442,1021.269,0.0,98.77861510366984
443,1023.856,0.0,98.77963454643105
444,1026.441,0.0,98.78065069412602
445,1029.026,0.2183364827205878,98.78166351727941
446,1031.610,0.21732701396621223,98.78267298603379
447,1034.193,0.21632092984488338,98.78367907015512
448,1036.775,0.21531826096183693,98.78468173903816
449,1039.355,0.2143190382880391,98.78568096171196
450,1041.935,0.0,98.78667670684528
451,1044.514,0.0,98.78766894275199
452,1047.092,0.21134236260341766,98.78865763739658
453,1049.669,0.0,98.78964275839958
454,1052.245,0.0,98.790624273043
455,1054.820,0.20839785172427128,98.79160214827573
456,1057.394,0.20742364928088364,98.79257635071912
457,1059.967,0.20645315332775738,98.79354684667224
458,1062.539,0.20548639788252387,98.79451360211748
459,1065.110,0.2045234172741175,98.79547658272588
460,1067.681,0.2035642461373186,98.79643575386268
461,1070.250,0.20260891940733927,98.79739108059266
462,1072.818,0.20165747231436626,98.79834252768563
463,1075.385,0.20070994037806145,98.79929005962194
464,1077.951,0.19976635940223275,98.80023364059777
465,1080.517,0.1988267654692919,98.80117323453071
466,1083.081,0.1978911949348401,98.80210880506516
467,1085.644,0.19695968442223943,98.80304031557776
468,1088.207,0.1960322708171418,98.80396772918286
469,1090.768,0.1951089912621029,98.8048910087379
470,1093.329,0.19418988315105423,98.80581011684895
471,1095.888,1.1932749841239172,98.80672501587608
472,1098.447,0.19236433206114611,98.80763566793885
473,1101.004,0.19145796507827129,98.80854203492173
474,1103.561,1.1905559215204846,98.80944407847952
475,1106.116,1.1896582399571543,98.81034176004285
476,1108.671,0.18876495917643865,98.81123504082356
477,1111.225,0.18787611817975858,98.81212388182024
478,1113.777,1.1869917561764538,98.81300824382355
479,1116.329,0.1861119125782693,98.81388808742173
480,1118.880,0.18523662699391252,98.81476337300609
481,1121.430,0.18436593922363897,98.81563406077636
482,1123.979,0.0,98.81650011074618
483,1126.527,0.0,98.81736148274855
484,1129.074,0.0,98.81821813644127
485,1131.620,0.0,98.81907003131236
486,1134.165,0.0,98.81991712668555
487,1136.709,0.0,98.82075938172568
488,1139.252,0.0,98.82159675544415
489,1141.794,0.0,98.82242920670437
490,1144.335,0.17674330577274588,98.82325669422725
491,1146.875,0.17592082340344461,98.82407917659656
492,1149.415,0.17510338773560363,98.8248966122644
493,1151.953,1.1742910404432791,98.82570895955672
494,1154.490,1.173483823321348,98.82651617667865
495,1157.027,1.1726817782799799,98.82731822172002
496,1159.562,0.17188494733923676,98.82811505266076
497,1162.097,0.17109337262360214,98.8289066273764
498,1164.630,0.1703070963565665,98.82969290364343
499,1167.163,0.16952616085515615,98.83047383914484
500,1169.695,0.16875060852451895,98.83124939147548
501,1172.225,1.167980481852453,98.83201951814755
502,1174.755,1.1672158234039642,98.83278417659604
503,1177.284,1.1664566758158657,98.83354332418413
504,1179.812,0.16570308179124993,98.83429691820875
505,1182.338,1.1649550840941458,98.83504491590585
506,1184.864,0.16421272554399025,98.83578727445601
507,1187.389,0.16347604901022805,98.83652395098977
508,1189.913,1.1627450974068552,98.83725490259314
509,1192.436,1.1620199136870042,98.837980086313
510,1194.959,1.1613005408374306,98.83869945916257
511,1197.480,1.1605870218731553,98.83941297812684
512,1200.000,1.1598793998319366,98.84012060016806
513,1202.519,1.1591777177689124,98.84082228223109
514,1205.038,1.158482018751073,98.84151798124893
515,1207.555,1.1577923458519024,98.8422076541481
516,1210.071,1.157108742145823,98.84289125785418
517,1212.587,0.15643125070289443,98.8435687492971
518,1215.101,0.15575991458322846,98.84424008541677
519,1217.615,0.15509477683163198,98.84490522316837
520,1220.128,1.154435880472164,98.84556411952784
521,1222.639,2.153783268502636,98.84621673149736
522,1225.150,2.153136983889226,98.84686301611077
523,1227.660,2.1524970695609937,98.847502930439
524,1230.169,3.151863568404437,98.84813643159556
525,1232.677,3.151236523258106,98.8487634767419
526,1235.184,2.1506159769071047,98.8493840230929
527,1237.690,2.150001972077618,98.84999802792238
528,1240.195,2.1493945514315698,98.85060544856843
529,1242.699,2.148793757561066,98.85120624243893
530,1245.202,2.148199632983051,98.85180036701695
531,1247.704,1.1476122201337802,98.85238777986622
532,1250.206,1.147031561363434,98.85296843863657
533,1252.706,1.1464576989306465,98.85354230106935
534,1255.206,1.145890674997048,98.85410932500295
535,1257.704,2.1453305316218803,98.85466946837812
536,1260.202,2.1447773107564956,98.8552226892435
537,1262.698,2.144231054238901,98.8557689457611
538,1265.194,2.1436918037884,98.8563081962116
539,1267.689,2.143159601000036,98.85684039899996
540,1270.183,2.142634487339265,98.85736551266073
541,1272.676,2.1421165041364105,98.85788349586359
542,1275.168,2.1416056925812654,98.85839430741873
543,1277.659,2.141102093717649,98.85889790628235
544,1280.149,2.1406057484379772,98.85939425156202
545,1282.638,2.1401166974777652,98.85988330252223
546,1285.126,2.1396349814102678,98.86036501858973
547,1287.613,2.139160640640924,98.86083935935908
548,1290.100,2.1386937154020416,98.86130628459796
549,1292.585,2.1382342457472276,98.86176575425277
550,1295.070,1.137782271546044,98.86221772845396
551,1297.553,2.137337832478508,98.86266216752149
552,1300.036,2.1369009680296642,98.86309903197034
553,1302.517,0.13647171748417009,98.86352828251583
554,1304.998,0.13605011992076754,98.86394988007923
555,1307.478,2.1356362142069543,98.86436378579305
556,1309.957,2.135230038993427,98.86476996100657
557,1312.435,1.1348316327087389,98.86516836729126
558,1314.912,2.1344410335537845,98.86555896644622
559,1317.388,4.134058279496372,98.86594172050363
560,1319.863,4.13368340826581,98.86631659173419
561,1322.337,4.133316457347405,98.8666835426526
562,1324.811,4.1329574639770925,98.86704253602291
563,1327.283,4.13260646513595,98.86739353486405
564,1329.755,3.132263497544713,98.86773650245529
565,1332.225,3.131928597658444,98.86807140234156
566,1334.695,4.131601801660963,98.86839819833904
567,1337.163,3.131283145459477,98.86871685454052
568,1339.631,3.130972664679149,98.86902733532085
569,1342.098,4.130670394657585,98.86932960534241
570,1344.564,4.13037637043945,98.86962362956055
571,1347.029,4.130090626771008,98.86990937322899
572,1349.493,5.129813198094652,98.87018680190535
573,1351.956,5.129544118543521,98.87045588145648
574,1354.418,5.129283421936009,98.87071657806399
575,1356.880,4.129031141770284,98.87096885822972
576,1359.340,4.128787311218943,98.87121268878106
577,1361.800,4.128551963123513,98.87144803687649
578,1364.258,3.128325129988994,98.871674870011
579,1366.716,3.128106843978429,98.87189315602157
580,1369.172,3.127897136907464,98.87210286309254
581,1371.628,2.1276960402389165,98.87230395976108
582,1374.083,2.1275035850773065,98.8724964149227
583,1376.537,1.127319802163413,98.87268019783659
584,1378.990,1.1271447218688877,98.87285527813111
585,1381.442,1.1269783741907133,98.87302162580929
586,1383.893,1.126820788745846,98.87317921125415
587,1386.344,0.1266719947657009,98.8733280052343
588,1388.793,1.1265320210907674,98.87346797890923
589,1391.241,0.12640089616516548,98.87359910383483
590,1393.689,0.1262786480311462,98.87372135196885
591,1396.135,0.12616530432369188,98.87383469567631
592,1398.581,0.1260608922650448,98.87393910773496
593,1401.026,0.12596543865930698,98.8740345613407
594,1403.470,0.1258789698869549,98.87412103011305
595,1405.913,0.1258015118993967,98.8741984881006
596,1408.355,0.12573309021358625,98.87426690978641
597,1410.796,0.12567372990648096,98.87432627009352
598,1413.236,0.12562345560969845,98.8743765443903
599,1415.675,0.12558229150397437,98.87441770849603
600,1418.114,1.125550261313819,98.87444973868618
601,1420.551,1.1255273883020038,98.874472611698
602,1422.988,1.1255136952641323,98.87448630473587
603,1425.423,1.125509204523226,98.87449079547677
604,1427.858,1.1255139379242252,98.87448606207577
605,1430.292,1.1255279168286023,98.8744720831714
606,1432.725,1.1255511621088914,98.87444883789111
607,1435.157,0.12558369414321646,98.87441630585678
608,1437.588,1.12562553280992,98.87437446719008
609,1440.018,1.1256766974820636,98.87432330251794
610,1442.447,1.1257372070219702,98.87426279297803
611,1444.876,1.1258070797758393,98.87419292022416
612,1447.303,1.1258863335682605,98.87411366643174
613,1449.730,1.1259749856967716,98.87402501430323
614,1452.156,3.1260730529264293,98.87392694707357
615,1454.580,3.126180551484353,98.87381944851565
616,1457.004,3.12629749705431,98.87370250294569
617,1459.427,3.1264239047712294,98.87357609522877
618,1461.849,2.12655978921579,98.87344021078421
619,1464.270,1.1267051644089463,98.87329483559105
620,1466.690,1.1268600438065022,98.8731399561935
621,1469.110,1.1270244402937095,98.87297555970629
622,1471.528,1.1271983661797265,98.87280163382027
623,1473.946,1.127381833192274,98.87261816680773
624,1476.362,1.1275748524721365,98.87242514752786
625,1478.778,1.1277774345676903,98.87222256543231
626,1481.193,1.1279895894295748,98.87201041057043
627,1483.607,1.1282113264051077,98.87178867359489
628,1486.020,1.1284426542329413,98.87155734576706
629,1488.432,1.1286835810375635,98.87131641896244
630,1490.843,1.128934114323883,98.87106588567612
631,1493.253,1.1291942609717864,98.87080573902821
632,1495.663,1.1294640272306822,98.87053597276932
633,1498.071,1.1297434187140425,98.87025658128596
634,1500.479,1.1300324403939896,98.86996755960601
635,1502.886,1.1303310965958389,98.86966890340416
636,1505.292,0.13063939099266975,98.86936060900733
637,1507.697,0.13095732659984094,98.86904267340016
638,1510.101,0.0,98.86871509423042
639,1512.504,0.0,98.86837786981445
640,1514.906,0.0,98.86803099914265
641,1517.307,0.0,98.86767448188482
642,1519.708,0.0,98.86730831839576
643,1522.107,0.0,98.86693250972054
644,1524.506,0.0,98.86654705760012
645,1526.904,0.13384803552337132,98.86615196447663
646,1529.301,0.13425276650106355,98.86574723349894
647,1531.697,0.13466713147201403,98.86533286852799
648,1534.092,0.1350911258576275,98.86490887414237
649,1536.486,0.13552474435634565,98.86447525564365
650,1538.879,1.1359679809381333,98.86403201906187
651,1541.272,1.13642082883905,98.86357917116095
652,1543.663,0.1368832805557929,98.8631167194442
653,1546.054,0.13735532784026816,98.86264467215973
654,1548.444,0.0,98.86216303830587
655,1550.832,0.0,98.86167182763658
656,1553.220,0.0,98.86117105066705
657,1555.607,0.13933928132101414,98.86066071867899
658,1557.994,0.13985915627392842,98.86014084372607
659,1560.379,0.14038856136046718,98.85961143863953
660,1562.763,0.14092748296658897,98.85907251703341
661,1565.147,1.1414759066898483,98.85852409331015
662,1567.529,0.1420338173340383,98.85796618266596
663,1569.911,0.14260119890370504,98.8573988010963
664,1572.292,0.14317803459873346,98.85682196540127
665,1574.672,0.14376430680887609,98.85623569319112
666,1577.051,0.14435999710832448,98.85564000289168
667,1579.429,0.1449650862502665,98.85503491374973
668,1581.807,0.14557955416142931,98.85442044583857
669,1584.183,0.1462033799366509,98.85379662006335
670,1586.559,1.1468365418334514,98.85316345816655
671,1588.933,1.1474790172665053,98.8525209827335
672,1591.307,1.1481307828023404,98.85186921719766
673,1593.680,0.14879181415376763,98.85120818584623
674,1596.052,0.14946208617446644,98.85053791382553
675,1598.423,0.15014157285361307,98.84985842714639
676,1600.794,0.15083024731032424,98.84916975268968
677,1603.163,0.151528081788328,98.84847191821167
678,1605.531,0.1522350476504073,98.84776495234959
679,1607.899,0.15295111537305672,98.84704888462694
680,1610.266,1.1536762545409687,98.84632374545903
681,1612.632,1.154410433841619,98.84558956615838
682,1614.997,1.1551536210598243,98.84484637894018
683,1617.361,1.155905783072285,98.84409421692772
684,1619.724,1.1566668858421423,98.84333311415786
685,1622.086,1.1574368944135927,98.84256310558641
686,1624.448,0.15821577290631694,98.84178422709368
687,1626.808,0.15900348451015134,98.84099651548985
688,1629.168,0.1597999914796162,98.84020000852038
689,1631.527,0.0,98.83939474487156
690,1633.885,0.1614192358241553,98.83858076417584
691,1636.242,0.0,98.8377581070174
692,1638.598,0.16307318506254376,98.83692681493746
693,1640.954,0.16391306956020912,98.83608693043979
694,1643.308,0.16476150300381676,98.83523849699618
695,1645.662,0.16561844094813694,98.83438155905186
696,1648.014,0.16648383796909627,98.8335161620309
697,1650.366,1.167357647658278,98.83264235234172
698,1652.717,1.1682398226175081,98.83176017738249
699,1655.067,1.1691303144534118,98.83086968554659
700,1657.417,1.1700290737719428,98.82997092622806
701,1659.765,0.1709360501729691,98.82906394982703
702,1662.112,0.17185119224481582,98.82814880775518
703,1664.459,0.17277444755880822,98.82722555244119
704,1666.805,0.17370576266390003,98.8262942373361
705,1669.150,0.17464508308110283,98.8253549169189
706,1671.494,0.1755923532981427,98.82440764670186
707,1673.837,0.17654751676398917,98.82345248323601
708,1676.179,0.17751051588342648,98.82248948411657
709,1678.520,1.17848129201154,98.82151870798846
710,1680.861,0.0,98.82054021455161
711,1683.201,1.1804459354334398,98.81955406456656
712,1685.539,1.1814396801402154,98.81856031985978
713,1687.877,1.1824409566708027,98.8175590433292
714,1690.214,0.183449701050435,98.81655029894956
715,1692.551,0.1844658482220325,98.81553415177797
716,1694.886,0.18548933204074558,98.81451066795925
717,1697.220,0.18652008526854047,98.81347991473146
718,1699.554,0.18755803956875639,98.81244196043124
719,1701.887,0.1886031255006202,98.81139687449938
720,1704.219,0.18965527251384628,98.81034472748615
721,1706.550,0.1907144089431796,98.80928559105682
722,1708.880,0.19178046200292442,98.80821953799708
723,1711.209,0.19285335778157275,98.80714664221843
724,1713.537,0.193933021236262,98.80606697876374
725,1715.865,0.19501937618740328,98.8049806238126
726,1718.192,0.19611234531323873,98.80388765468676
727,1720.518,0.19721185014432763,98.80278814985567
728,1722.843,0.19831781105820312,98.8016821889418
729,1725.167,0.1994301472738158,98.80056985272618
730,1727.490,1.2005487768462189,98.79945122315378
731,1729.812,1.2016736166609832,98.79832638333902
732,1732.134,1.2028045824288967,98.7971954175711
733,1734.455,1.2039415886803937,98.7960584113196
734,1736.774,1.2050845487601975,98.7949154512398
735,1739.093,0.2062333748218208,98.79376662517818
736,1741.411,0.20738797782217944,98.79261202217782
737,1743.729,0.0,98.7914517324839
738,1746.045,0.20971415245088565,98.79028584754911
739,1748.361,0.0,98.78911446003912
740,1750.675,0.0,98.78793766383795
741,1752.989,0.0,98.78675555405353
742,1755.302,0.0,98.78556822702305
743,1757.614,0.0,98.78437578031843
744,1759.925,0.21682168724819917,98.7831783127518
745,1762.236,0.21802407561912673,98.78197592438087
746,1764.545,0.21923128348552723,98.78076871651447
747,1766.854,1.22044320828212,98.77955679171788
748,1769.162,1.221659746181615,98.77834025381839
749,1771.469,1.2228807920893416,98.77711920791066
750,1773.775,1.224106239637834,98.77589376036217
751,1776.080,1.2253359811812459,98.77466401881875
752,1778.385,0.22656990779009334,98.7734300922099
753,1780.688,0.2278079092456693,98.77219209075433
754,1782.991,0.22904987403465782,98.77095012596534
755,1785.293,0.23029568934369138,98.76970431065631
756,1787.594,0.23154524105386542,98.76845475894613
757,1789.894,0.23279841373539512,98.7672015862646
758,1792.193,0.23405509064201624,98.76594490935798
759,1794.492,0.23531515370569878,98.7646848462943
760,1796.789,0.23657848353110467,98.7634215164689
761,1799.086,1.2378449593901593,98.76215504060984
762,1801.382,1.239114459216637,98.76088554078336
763,1803.677,1.2403868596007186,98.75961314039928
764,1805.971,1.2416620357834773,98.75833796421652
765,1808.265,0.2429398616515499,98.75706013834845
766,1810.557,0.24422020973156577,98.75577979026843
767,1812.849,0.24550295118483234,98.75449704881517
768,1815.140,0.2467879558017927,98.75321204419821
769,1817.430,0.24807509199658284,98.75192490800342
770,1819.719,0.24936422680170267,98.7506357731983
771,1822.007,0.25065522586241684,98.74934477413758
772,1824.295,0.25194795343142573,98.74805204656857
773,1826.581,0.2532422723633516,98.74675772763665
774,1828.867,0.25453804410935277,98.74546195589065
775,1831.152,0.25583512871162384,98.74416487128838
776,1833.436,1.25713338479801,98.74286661520199
777,1835.719,1.258432669576493,98.7415673304235
778,1838.002,0.25973283882981946,98.74026716117018
779,1840.283,0.2610337469100159,98.73896625308998
780,1842.564,0.2623352467329312,98.73766475326707
781,1844.844,0.0,98.73636281022716
782,1847.123,0.0,98.73506057394303
783,1849.401,0.0,98.73375819583995
784,1851.678,0.2675441711988924,98.73245582880111
785,1853.955,0.26884637282689994,98.7311536271731
786,1856.231,0.27014825322874003,98.72985174677126
787,1858.506,0.27144965511470787,98.72855034488529
788,1860.780,0.27275041971546443,98.72724958028454
789,1863.053,0.2740503867765085,98.72594961322349
790,1865.325,0.2753493945527481,98.72465060544725
791,1867.597,0.27664727980301507,98.72335272019698
792,1869.867,0.27794387778472185,98.72205612221528
793,1872.137,0.279239022248305,98.7207609777517
794,1874.406,0.28053254543185346,98.71946745456815
795,1876.674,0.28182427805562327,98.71817572194438
796,1878.941,0.28311404931667994,98.71688595068332
797,1881.208,0.2844016868833137,98.71559831311669
798,1883.473,0.2856870168896677,98.71431298311033
799,1885.738,0.2869698639303806,98.71303013606962
800,1888.002,1.2882500510549733,98.71174994894503
801,1890.265,0.28952739976253383,98.71047260023747
802,1892.528,0.29080172999621823,98.70919827000378
803,1894.789,0.2920728601378215,98.70792713986218
804,1897.050,0.2933406070023352,98.70665939299766
805,1899.310,0.2946047858325045,98.7053952141675
806,1901.569,0.295865210293357,98.70413478970664
807,1903.827,1.297121692466817,98.70287830753318
808,1906.084,1.2983740428462056,98.7016259571538
809,1908.340,1.2996220703308126,98.70037792966919
810,1910.596,1.3008655822204815,98.69913441777952
811,1912.851,0.302104384210125,98.69789561578988
812,1915.105,0.303338280384267,98.69666171961573
813,1917.358,0.3045670732117287,98.69543292678827
814,1919.610,0.305790563539972,98.69420943646003
815,1921.862,0.3070085505898419,98.69299144941016
816,1924.113,1.3082208319500381,98.69177916804996
817,1926.362,1.3094272035716727,98.69057279642833
818,1928.611,1.3106274597628271,98.68937254023717
819,1930.860,1.3118213931831662,98.68817860681683
820,1933.107,0.3130087948383675,98.68699120516163
821,1935.353,0.0,98.68581054592514
822,1937.599,0.0,98.68463684142581
823,1939.844,0.0,98.68347030565228
824,1942.088,0.0,98.6823111542689
825,1944.331,0.31884039537884235,98.68115960462116
826,1946.574,0.3199841242589372,98.68001587574106
827,1948.815,0.3211198116473355,98.67888018835266
828,1951.056,0.32224723512250364,98.6777527648775
829,1953.296,0.3233661705600497,98.67663382943995
830,1955.535,0.3244763921272096,98.67552360787279
831,1957.773,0.32557767227743284,98.67442232772257
832,1960.011,0.326669781744954,98.67333021825505
833,1962.248,0.32775248953932135,98.67224751046068
834,1964.483,0.32882556293994014,98.67117443706006
835,1966.718,0.32988876749070073,98.6701112325093
836,1968.953,0.3309418669944364,98.66905813300556
837,1971.186,0.33198462350755165,98.66801537649245
838,1973.418,1.3330167973345652,98.66698320266543
839,1975.650,1.3340381470226106,98.66596185297739
840,1977.881,1.3350484293561067,98.6649515706439
841,1980.111,1.3360473993512159,98.66395260064878
842,1982.340,0.33703481025038684,98.66296518974961
843,1984.569,0.33801041351699723,98.661989586483
844,1986.797,0.33897395882988235,98.66102604117012
845,1989.023,0.3399251940778498,98.66007480592215
846,1991.249,0.34086386535425106,98.65913613464575
847,1993.474,0.3417897169515669,98.65821028304843
848,1995.699,0.34270249135595066,98.65729750864405
849,1997.922,0.3436019292417427,98.65639807075826
850,2000.145,0.34448776946612725,98.65551223053387
851,2002.367,0.3453597490635332,98.65464025093647
852,2004.588,0.3462176032403761,98.65378239675962
853,2006.808,0.3470610653694308,98.65293893463057
854,2009.028,0.34788986698457336,98.65211013301543
855,2011.246,0.348703737775125,98.65129626222488
856,2013.464,1.3495024055806368,98.65049759441936
857,2015.681,1.350285596385234,98.64971440361477
858,2017.898,1.351053034312372,98.64894696568763
859,2020.113,1.3518044416191657,98.64819555838083
860,2022.328,0.3525395386912038,98.6474604613088
861,2024.541,0.35325804403686334,98.64674195596314
862,2026.754,0.3539596742820663,98.64604032571793
863,2028.966,0.3546441441646522,98.64535585583535
864,2031.178,0.35531116652910555,98.6446888334709
865,2033.388,0.3559604523209856,98.64403954767901
866,2035.598,0.35659171058155437,98.64340828941845
867,2037.807,0.35720464844227706,98.64279535155772
868,2040.015,1.3577989711194647,98.64220102888054
869,2042.222,1.3583743819087175,98.64162561809128
870,2044.429,0.35893058217956764,98.64106941782043
871,2046.634,0.0,98.64053272862998
872,2048.839,0.0,98.64001585301894
873,2051.043,0.0,98.63951909542874
874,2053.247,0.0,98.63904276224866
875,2055.449,0.36141283817867986,98.63858716182132
876,2057.651,0.36184739555190504,98.6381526044481
877,2059.851,0.3622605976054416,98.63773940239456
878,2062.052,0.36265213010408104,98.63734786989592
879,2064.251,0.36302167683749076,98.63697832316251
880,2066.449,0.363368919614814,98.63663108038519
881,2068.647,0.36369353825926964,98.63630646174073
882,2070.844,0.0,98.63600478939745
883,2073.040,0.0,98.63572638752039
884,2075.235,0.3645284177229513,98.63547158227705
885,2077.429,0.3647592981574519,98.63524070184255
886,2079.623,0.3649659235947098,98.63503407640529
887,2081.815,0.3651479618277307,98.63485203817227
888,2084.007,0.36530507862536865,98.63469492137463
889,2086.199,0.3654369377270541,98.63456306227295
890,2088.389,0.36554320083713776,98.63445679916286
891,2090.579,0.0,98.63437647238038
892,2092.767,0.3656775756926294,98.63432242430737
893,2094.955,0.36570500062296674,98.63429499937703
894,2097.143,0.36570545592071824,98.63429454407928
895,2099.329,0.36567859303373496,98.63432140696627
896,2101.514,0.3656240613422739,98.63437593865773
897,2103.699,0.3655415081535267,98.63445849184647
898,2105.883,0.36543057869609186,98.63456942130391
899,2108.066,0.3652909161146596,98.63470908388534
900,2110.249,0.36512216146449816,98.6348778385355
901,2112.430,0.3649239537060254,98.63507604629397
902,2114.611,1.364695929699323,98.63530407030068
903,2116.791,1.3644377241988082,98.63556227580119
904,2118.970,1.364148969847605,98.6358510301524
905,2121.149,1.3638292971723303,98.63617070282767
906,2123.326,1.3634783345774224,98.63652166542258
907,2125.503,0.3630957083398698,98.63690429166013
908,2127.679,0.3626810426036542,98.63731895739635
909,2129.854,0.36223395937439307,98.6377660406256
910,2132.029,0.36175407851385444,98.63824592148615
911,2134.202,0.36124101773445716,98.63875898226554
912,2136.375,1.3606943925939419,98.63930560740606
913,2138.547,1.3601138164898714,98.63988618351013
914,2140.718,1.3594989006541454,98.64050109934585
915,2142.889,1.3588492541476143,98.64115074585239
916,2145.058,1.3581644838546367,98.64183551614536
917,2147.227,1.35744419447758,98.64255580552242
918,2149.395,1.356687988531462,98.64331201146854
919,2151.563,2.3558954663383957,98.6441045336616
920,2153.729,1.3550662260222879,98.64493377397771
921,2155.895,1.3541998635032115,98.64580013649679
922,2158.060,1.3532959724921625,98.64670402750784
923,2160.224,1.35235414448546,98.64764585551454
924,2162.387,0.35137396875940397,98.6486260312406
925,2164.550,0.35035503236473176,98.64964496763527
926,2166.711,0.3492969201213043,98.6507030798787
927,2168.872,0.348199214612535,98.65180078538746
928,2171.033,0.347061496180018,98.65293850381998
929,2173.192,0.34588334291807143,98.65411665708193
930,2175.351,0.34466433066828017,98.65533566933172
931,2177.508,0.3434040330140675,98.65659596698593
932,2179.665,0.34210202127526657,98.65789797872473
933,2181.822,0.34075786450260637,98.6592421354974
934,2183.977,0.33937112947232606,98.66062887052767
935,2186.132,0.33794138068080315,98.6620586193192
936,2188.285,0.3364681803388976,98.6635318196611
937,2190.439,0.33495108836673637,98.66504891163326
938,2192.591,0.3333896623881287,98.66661033761187
939,2194.742,0.33178345772520856,98.66821654227479
940,2196.893,0.33013202739287806,98.66986797260712
941,2199.043,0.3284349220934928,98.67156507790651
942,2201.192,0.3266916902113195,98.67330830978868
943,2203.341,0.32490187780720703,98.6750981221928
944,2205.488,0.3230650286129304,98.67693497138707
945,2207.635,0.3211806840260323,98.67881931597397
946,2209.781,0.3192483831041102,98.68075161689589
947,2211.926,0.31726766255960115,98.6827323374404
948,2214.071,0.31523805675412575,98.68476194324587
949,2216.214,0.31315909769324435,98.68684090230676
950,2218.357,0.31103031502081535,98.68896968497918
951,2220.499,0.3088512360137514,98.69114876398625
952,2222.641,0.3066213855764204,98.69337861442358
953,2224.781,0.30434028623527354,98.69565971376473
954,2226.921,0.3020074581334029,98.6979925418666
955,2229.060,0.0,98.70037758097496
956,2231.198,0.0,98.70281531572982
957,2233.336,0.0,98.70530623317086
958,2235.472,1.2921491772570448,98.70785082274296
959,2237.608,1.2895504236984436,98.71044957630156
960,2239.743,1.286897011881834,98.71310298811817
961,2241.878,1.2841884451142391,98.71581155488576
962,2244.011,1.2814242242757672,98.71857577572423
963,2246.144,1.2786038478141677,98.72139615218583
964,2248.276,0.27572681173933233,98.72427318826067
965,2250.407,0.2727926096179232,98.72720739038208
966,2252.538,0.2698007325679157,98.73019926743208
967,2254.667,0.2667506692531276,98.73324933074687
968,2256.796,0.26364190587779035,98.73635809412221
969,2258.924,1.2604739261810778,98.73952607381892
970,2261.052,1.2572462114317347,98.74275378856827
971,2263.178,1.2539582404225627,98.74604175957744
972,2265.304,1.250609489464992,98.74939051053501
973,2267.429,1.2471994323836668,98.75280056761633
974,2269.553,1.2437275405109602,98.75627245948904
975,2271.677,1.2401932826815596,98.75980671731844
976,2273.800,1.236596125227024,98.76340387477298
977,2275.921,0.23293553197028416,98.76706446802972
978,2278.043,0.22921096422035703,98.77078903577964
979,2280.163,0.22542188076661773,98.77457811923338
980,2282.283,0.22156773787371264,98.77843226212629
981,2284.401,0.21764798927577544,98.78235201072422
982,2286.520,0.21366208617125437,98.78633791382875
983,2288.637,0.2096094772172563,98.79039052278274
984,2290.753,0.20548960852430298,98.7945103914757
985,2292.869,0.201301923650675,98.79869807634932
986,2294.984,0.19704586359718235,98.80295413640282
987,2297.098,0.19272086680152256,98.80727913319848
988,2299.212,0.1883263691329944,98.811673630867
989,2301.325,0.1838618038869413,98.81613819611306
990,2303.437,0.17932660177939397,98.8206733982206
991,2305.548,0.17472019094157076,98.82527980905843
992,2307.658,0.1700419969144349,98.82995800308557
993,2309.768,0.16529144264332274,98.83470855735668
994,2311.877,0.16046794847237322,98.83953205152763
995,2313.985,0.15557093213921291,98.84442906786079
996,2316.092,0.1505998087693996,98.8494001912306
997,2318.199,0.145553990871079,98.85444600912892
998,2320.304,0.14043288832947098,98.85956711167053
999,2322.409,0.13523590840148358,98.86476409159852
1000,2324.514,0.12996245571018505,98.87003754428981
1001,2326.617,0.12461193223946054,98.87538806776054
1002,2328.720,0.0,98.88081626267154
1003,2330.822,0.0,98.88632273233372
1004,2332.923,0.10809191728637302,98.89190808271363
1005,2335.024,0.10242707756128766,98.89757292243871
1006,2337.123,0.09668213719702123,98.90331786280298
1007,2339.222,0.09085648222773557,98.90914351777226
1008,2341.320,0.08494949601022483,98.91505050398978
1009,2343.418,0.07896055921851541,98.92103944078148
1010,2345.514,0.07288904983838052,98.92711095016162
1011,2347.610,0.06673434316199689,98.933265656838
1012,2349.705,0.06049581178230312,98.9395041882177
1013,2351.800,1.0541728255877985,98.9458271744122
1014,2353.893,1.0477647517568727,98.95223524824313
1015,2355.986,1.041270954752619,98.95872904524738
1016,2358.078,1.034690796317065,98.96530920368293
1017,2360.170,0.028023635466013275,98.97197636453399
1018,2362.260,0.021268828483471225,98.97873117151653
1019,2364.350,0.014425728916222624,98.98557427108378
1020,2366.439,0.007493687568370433,98.99250631243163
1021,2368.527,0.000472052495908315,98.99952794750409
1022,2370.615,0.0,99.00663983099868
1023,2372.702,0.0,99.01384262037197
