# kind,background_subtracted
# version_label,v1_06
# poly_order,5
# iterations_run,7
pixel_index,raman_shift_cm-1,intensity,background_intensity
0,-224.846,0.0,96.26246720063597
1,-221.778,1.7283503355654801,96.27164966443452
2,-218.712,1.7192497205078183,96.28075027949218
3,-215.647,2.7102304063720766,96.28976959362792
4,-212.583,0.7012918478049102,96.29870815219509
5,-209.521,0.6924335019133991,96.3075664980866
6,-206.460,2.6836548282598613,96.31634517174014
7,-203.399,0.6749552888567649,96.32504471114324
8,-200.340,1.6663343481614987,96.3336656518385
9,-197.283,0.6577914730712422,96.34220852692876
10,-194.226,1.649326132917821,96.35067386708218
11,-191.171,3.6409377994625345,96.35906220053747
12,-188.116,2.6326259468909683,96.36737405310903
13,-185.064,1.624390051807893,96.3756099481921
14,-182.012,1.6162295932320347,96.38377040676797
15,-178.961,1.608144052590987,96.39185594740901
16,-175.912,2.6001329137159814,96.39986708628402
17,-172.864,2.592195662836801,96.4078043371632
18,-169.817,0.5843317885765487,96.41566821142345
19,-166.771,1.576540781946548,96.42345921805345
20,-163.726,1.5688221363411543,96.43117786365885
21,-160.683,2.5611753475325685,96.43882465246743
22,-157.641,0.0,96.44640008633426
23,-154.600,2.546095335253142,96.45390466474686
24,-151.560,1.5386611151697025,96.4613388848303
25,-148.521,1.5312967586475281,96.46870324135247
26,-145.484,0.0,96.47599822672919
27,-142.447,0.0,96.4832243310293
28,-139.412,3.509617958020044,96.49038204197996
29,-136.379,1.5025281550283438,96.49747184497166
30,-133.346,0.495505776936497,96.5044942230635
31,-130.314,0.48855034301172395,96.51144965698828
32,-127.284,1.481661374842318,96.51833862515768
33,-124.255,0.474838396332558,96.52516160366744
34,-121.227,0.0,96.53191906630246
35,-118.200,0.4613885154579549,96.53861148454205
36,-115.175,3.4547606724350146,96.54523932756499
37,-112.150,1.4481969377452373,96.55180306225476
38,-109.127,0.44169684679530974,96.55830315320469
39,-106.105,0.4352599372768964,96.5647400627231
40,-103.084,0.0,96.57111425083845
41,-100.065,0.4225738246954762,96.57742617530452
42,-97.046,0.0,96.5836762916056
43,-94.029,0.410134947038415,96.58986505296158
44,-91.013,2.404007089666848,96.59599291033315
45,-87.998,2.3979396875730288,96.60206031242697
46,-84.984,1.3919322942991954,96.6080677057008
47,-81.972,2.38598446563131,96.61401553436869
48,-78.960,1.3800957595938996,96.6199042404061
49,-75.950,1.3742657364448974,96.6257342635551
50,-72.941,0.0,96.63150604132953
51,-69.933,0.36277999097991653,96.63722000902008
52,-66.927,0.35712340030039513,96.6428765996996
53,-63.921,2.3515237557718933,96.6484762442281
54,-60.917,0.34598062874196955,96.65401937125803
55,-57.914,0.0,96.65950640723935
56,-54.912,1.3350622235752496,96.66493777642475
57,-51.911,1.3296860991252117,96.67031390087479
58,-48.912,3.324364799536937,96.67563520046306
59,-45.913,2.3190979071186604,96.68090209288134
60,-42.916,0.0,96.68611499364475
61,-39.920,1.308725683903063,96.69127431609694
62,-36.925,2.303619528584804,96.6963804714152
63,-33.931,2.2985661313843337,96.70143386861567
64,-30.939,3.293565085441557,96.70643491455844
65,-27.947,8.28861598604719,96.71138401395281
66,-24.957,3.2837184306376628,96.71628156936234
67,-21.968,0.27887201878995427,96.72112798121005
68,-18.980,1.2740763522163832,96.72592364778362
69,-15.993,1.2693310347595173,96.73066896524048
70,-13.008,0.2646356723869445,96.73536432761306
71,-10.023,1.2599898731861998,96.7400101268138
72,-7.040,1.2553932473594926,96.74460675264051
73,-4.058,2.2508454072186623,96.74915459278134
74,-1.077,1.24634596717992,96.75365403282008
75,1.903,1.2418945437587894,96.75810545624121
76,4.881,2.237490755564835,96.76250924443517
77,7.859,0.0,96.76686577670341
78,10.835,2.2288245697363607,96.77117543026364
79,13.810,1.224561419745072,96.77543858025493
80,16.784,3.2203444002571047,96.7796555997429
81,19.757,1.2161731402751457,96.78382685972485
82,22.728,2.2120472708650283,96.78795272913497
83,25.699,2.207966425150545,96.79203357484946
84,28.668,0.203930238308331,96.79606976169167
85,31.636,0.0,96.80006165243734
86,34.603,0.19599039218034875,96.80400960781965
87,37.569,0.0,96.80791398653449
88,40.534,1.1882248547544663,96.81177514524553
89,43.497,0.18440656141055456,96.81559343858945
90,46.460,0.18063078081897288,96.81936921918103
91,49.421,0.17689716238163555,96.82310283761836
92,52.381,0.17320535751197497,96.82679464248803
93,55.340,0.16955501962983988,96.83044498037016
94,58.297,2.1659458041562942,96.8340541958437
95,61.254,0.16237736850847284,96.83762263149153
96,64.209,2.15884937209438,96.84115062790562
97,67.164,0.0,96.84463852369218
98,70.117,0.15191334452313754,96.84808665547686
99,73.069,0.14850464209013126,96.85149535790987
100,76.020,1.145135036328881,96.85486496367112
101,78.969,2.1418041965245465,96.85819580347545
102,81.918,0.0,96.86148820607777
103,84.865,1.1352575017218527,96.86474249827815
104,87.811,3.1320409950729413,96.86795900492706
105,90.757,1.1288619510695241,96.87113804893048
106,93.700,1.1257200487448813,96.87427995125512
107,96.643,1.122614969066504,96.8773850309335
108,99.585,1.1195463949308504,96.88045360506915
109,102.525,1.116514011158202,96.8834859888418
110,105.465,1.1135175044875183,96.88648249551248
111,108.403,0.1105565635712793,96.88944343642872
112,111.340,1.107630878970312,96.89236912102969
113,114.276,1.104740143148618,96.89525985685138
114,117.211,2.1018840504682714,96.89811594953173
115,120.144,1.0990622971841901,96.90093770281581
116,123.077,1.096274581439019,96.90372541856098
117,126.008,2.093520603257943,96.90647939674206
118,128.938,2.090800064543558,96.90919993545644
119,131.868,1.0881126690706964,96.9118873309293
120,134.795,2.0854581224812705,96.91454187751873
121,137.722,2.08283613227907,96.91716386772093
122,140.648,1.0802464078246885,96.91975359217531
123,143.572,3.0776886603302955,96.9223113396697
124,146.496,2.0751626028545047,96.9248373971455
125,149.418,2.072667950297202,96.9273320497028
126,152.339,0.07020441939440047,96.9297955806056
127,155.259,1.0677717287130548,96.93222827128695
128,158.178,2.0653695986459297,96.93463040135407
129,161.096,2.062997751406442,96.93700224859356
130,164.012,2.0606559110234883,96.93934408897651
131,166.928,0.05834380333624267,96.94165619666376
132,169.842,2.0560611559890845,96.94393884401092
133,172.755,1.0538076984263967,96.9461923015736
134,175.667,0.05158316188736478,96.94841683811264
135,178.578,1.0493872794009036,96.9506127205991
136,181.488,2.0472197857804133,96.95278021421959
137,184.397,0.04508041761867787,96.95491958238132
138,187.304,1.042968913282678,96.95703108671732
139,190.211,0.04088501290843283,96.95911498709157
140,193.116,3.038828458395855,96.96117154160414
141,196.020,2.036798993403579,96.96320100659642
142,198.923,0.0,96.96520363665618
143,201.825,0.03282031537715113,96.96717968462285
144,204.726,1.0308705984074464,96.96912940159255
145,207.625,1.0289469630766348,96.97105303692337
146,210.524,0.0,96.97295083824042
147,213.421,2.025176948558908,96.97482305144109
148,216.318,3.0233300792998676,96.97666992070013
149,219.213,0.02150831152513888,96.97849168847486
150,222.107,1.0197114044896978,96.9802885955103
151,225.000,1.017939119155642,96.98206088084436
152,227.891,1.0161912181870605,96.98380878181294
153,230.782,1.0144674659448185,96.98553253405518
154,233.672,2.0127676284814555,96.98723237151854
155,236.560,1.0110914735359842,96.98890852646402
156,239.447,2.0094387705287886,96.99056122947121
157,242.333,1.0078092905563523,96.99219070944365
158,245.218,0.006202806386255588,96.99379719361374
159,248.102,2.004619092451847,96.99538090754815
160,250.985,2.0030579248472264,96.99694207515277
161,253.867,0.0,96.99848091867798
162,256.748,1.0000023412762005,96.9999976587238
163,259.627,0.9985074857549563,97.00149251424504
164,262.505,2.9970342974435766,97.00296570255642
165,265.383,2.9955825606621858,97.00441743933781
166,268.259,1.9941520613606798,97.00584793863932
167,271.134,0.9927425871135114,97.00725741288649
168,274.008,1.9913539271145595,97.00864607288544
169,276.880,1.989985872171971,97.01001412782803
170,279.752,0.0,97.01136178529704
171,282.623,0.987310748728703,97.0126892512713
172,285.492,1.98600326986913,97.01399673013087
173,288.360,1.984715575337816,97.01528442466218
174,291.228,1.9834474639367699,97.01655253606323
175,294.094,2.9821987360513162,97.01780126394868
176,296.959,1.980969193644924,97.01903080635508
177,299.823,0.9797586402540048,97.020241359746
178,302.685,1.9785668809828536,97.02143311901715
179,305.547,1.9773937224983484,97.02260627750165
180,308.408,0.9762389730249339,97.02376102697507
181,311.267,1.975102442339363,97.02489755766064
182,314.126,2.9739839417655816,97.02601605823442
183,316.983,0.9728832841695407,97.02711671583046
184,319.839,2.9718002839540816,97.02819971604592
185,322.694,1.9707347570537195,97.02926524294628
186,325.548,0.0,97.03031347907046
187,328.401,0.0,97.03134460543602
188,331.253,2.9676411984557376,97.03235880154426
189,334.103,1.9666437546145659,97.03335624538543
190,336.953,1.965662886556089,97.03433711344391
191,339.801,0.9646984192967096,97.03530158070329
192,342.649,0.9637501793484091,97.03624982065159
193,345.495,1.9628179947136033,97.0371820052864
194,348.340,0.0,97.03809830512004
195,351.184,0.0,97.03899888918475
196,354.027,2.9601160749622153,97.03988392503778
197,356.869,0.9592464212333596,97.04075357876664
198,359.709,0.0,97.04160801499417
199,362.549,0.0,97.04244739688376
200,365.388,0.0,97.04327188614448
201,368.225,0.0,97.04408164303626
202,371.061,2.9551231736249406,97.04487682637506
203,373.897,0.9543424064620183,97.04565759353798
204,376.731,1.9535758995315575,97.04642410046844
205,379.564,1.9528234983186081,97.04717650168139
206,382.396,1.9520850497316076,97.04791495026839
207,385.227,0.9513604020971513,97.04863959790285
208,388.057,1.9506494051549197,97.04935059484508
209,390.885,2.9499519100524196,97.05004808994758
210,393.713,1.949267769339869,97.05073223066013
211,396.539,0.9485968369650806,97.05140316303492
212,399.365,1.9479389682682324,97.05206103173177
213,402.189,0.9472940199767237,97.05270598002328
214,405.012,0.9466618502000728,97.05333814979993
215,407.835,0.9460423184246594,97.05395768157534
216,410.656,0.9454352855086654,97.05456471449133
217,413.476,0.9448406136768455,97.05515938632315
218,416.295,0.9442581665153824,97.05574183348462
219,419.112,0.9436878089667715,97.05631219103323
220,421.929,0.0,97.05687059267542
221,424.745,0.0,97.05741717077164
222,427.559,0.9420479436584515,97.05795205634155
223,430.373,1.9415246209308634,97.05847537906914
224,433.185,0.0,97.05898726730797
225,435.996,0.0,97.05948784808625
226,438.807,0.9400227528879554,97.05997724711204
227,441.616,2.939544411221604,97.0604555887784
228,444.424,0.0,97.06092299616854
229,447.231,0.9386204089389878,97.06137959106101
230,450.037,2.938174506065181,97.06182549393482
231,452.842,1.9377391760253886,97.06226082397461
232,455.645,0.0,97.06268569907584
233,458.448,1.9368997641500698,97.06310023584993
234,461.250,0.9364954503706144,97.06350454962939
235,464.050,0.0,97.06389875447302
236,466.849,1.9357170368289474,97.06428296317105
237,469.648,2.9353427127496587,97.06465728725034
238,472.445,0.9349781630205456,97.06502183697945
239,475.241,2.9346232786260913,97.06537672137391
240,478.036,1.9342779517987196,97.06572204820128
241,480.830,2.933942076013622,97.06605792398638
242,483.623,0.0,97.06638445401641
243,486.415,1.933298257653874,97.06670174234613
244,489.206,1.9329901081969894,97.06700989180301
245,491.996,2.932690996007608,97.06730900399239
246,494.784,3.932400820697339,97.06759917930266
247,497.572,2.932119483089636,97.06788051691036
248,500.358,4.931846885214554,97.06815311478545
249,503.144,8.93158293030369,97.06841706969631
250,505.928,14.931327522784926,97.06867247721507
251,508.712,18.931080568277338,97.06891943172266
252,511.494,13.930841973586013,97.06915802641399
253,514.275,5.930611646696889,97.06938835330311
254,517.055,2.930389496771568,97.06961050322843
255,519.834,1.9301754341422281,97.06982456585777
256,522.612,0.0,97.07003062969362
257,525.389,0.9297712179217683,97.07022878207823
258,528.165,0.9295808908012049,97.0704191091988
259,530.940,0.9293983039073481,97.07060169609265
260,533.713,0.0,97.07077662665236
261,536.486,1.9290560163690742,97.07094398363093
262,539.257,1.9288961513530438,97.07110384864696
263,542.028,0.9287436978102335,97.07125630218977
264,544.797,1.9285985763753786,97.07140142362462
265,547.566,0.0,97.0715392911978
266,550.333,0.9283300179581602,97.07166998204184
267,553.099,0.9282064278193616,97.07179357218064
268,555.864,1.928089863465317,97.07191013653468
269,558.629,3.9279802510739046,97.0720197489261
270,561.392,0.0,97.07212248208391
271,564.154,0.9277815923508399,97.07221840764916
272,566.915,0.0,97.07230759618008
273,569.674,0.0,97.07239011715721
274,572.433,1.9275339610113633,97.07246603898864
275,575.191,1.927464570984938,97.07253542901506
276,577.948,0.0,97.07259835351503
277,580.703,2.9273451222899354,97.07265487771006
278,583.458,0.9272949342301615,97.07270506576984
279,586.211,0.9272510191827195,97.07274898081728
280,588.964,0.0,97.07278668493383
281,591.715,0.0,97.07281823916452
282,594.466,0.0,97.07284370352315
283,597.215,1.9271368630025307,97.07286313699747
284,599.963,1.9271234024456732,97.07287659755433
285,602.710,1.9271158578551848,97.07288414214482
286,605.457,0.0,97.07288582670945
287,608.202,0.0,97.07288170618332
288,610.946,0.9271281654987433,97.07287183450126
289,613.689,0.9271437353970384,97.07285626460296
290,616.431,0.9271649515617781,97.07283504843822
291,619.172,0.0,97.07280823697202
292,621.911,1.9272241198102904,97.07277588018971
293,624.650,1.9272619728978242,97.07273802710218
294,627.388,0.0,97.07269472575102
295,630.125,0.9273539767863355,97.07264602321366
296,632.860,0.9274080343914477,97.07259196560855
297,635.595,0.0,97.0725325981003
298,638.328,0.9275320350951404,97.07246796490486
299,641.061,1.9276018907053185,97.07239810929468
300,643.792,0.9276769263961739,97.07232307360383
301,646.523,0.9277571007667973,97.0722428992332
302,649.252,0.0,97.07215762665568
303,651.980,0.9279327045787653,97.07206729542123
304,654.708,2.928028055837828,97.07197194416217
305,657.434,1.928128389401806,97.0718716105982
306,660.159,0.9282336684583328,97.07176633154167
307,662.883,1.9283438570973317,97.07165614290267
308,665.606,0.9284589203057578,97.07154107969424
309,668.328,1.9285788239625106,97.07142117603749
310,671.049,0.9287035348332182,97.07129646516678
311,673.769,0.9288330205651221,97.07116697943488
312,676.488,1.9289672496818895,97.07103275031811
313,679.206,1.9291061915784695,97.07089380842153
314,681.923,0.0,97.0707501834841
315,684.639,0.92939809561625,97.07060190438375
316,687.354,1.9295510008572876,97.07044899914271
317,690.067,0.9297085050674809,97.07029149493252
318,692.780,0.0,97.07012941807925
319,695.492,0.9300372059313702,97.06996279406863
320,698.202,0.9302083524487443,97.06979164755126
321,700.912,3.9303839976522568,97.06961600234774
322,703.621,0.9305641185461582,97.06943588145384
323,706.328,0.9307486929543813,97.06925130704562
324,709.035,0.0,97.06906230048462
325,711.740,0.0,97.06886888232304
326,714.444,0.9313289276911121,97.06867107230889
327,717.148,2.931531110608887,97.06846888939111
328,719.850,1.931737648275245,97.06826235172475
329,722.552,0.0,97.0680514766762
330,725.252,0.0,97.0678362808282
331,727.951,0.9323832200148416,97.06761677998516
332,730.649,1.9326070108218119,97.06739298917819
333,733.347,0.9328350773296421,97.06716492267036
334,736.043,0.9330674060382051,97.0669325939618
335,738.738,2.933303984205139,97.06669601579486
336,741.432,1.933544799840675,97.06645520015933
337,744.125,0.0,97.06621015829748
338,746.817,0.9340390992906435,97.06596090070936
339,749.508,2.9342925628421312,97.06570743715787
340,752.198,1.934550223326056,97.06544977667394
341,754.887,0.0,97.0651879275617
342,757.575,0.0,97.06492189740362
343,760.262,0.9353483069343014,97.0646516930657
344,762.948,1.9356226792974098,97.06437732070259
345,765.633,0.9359012142372194,97.06409878576278
346,768.317,1.9361839070062246,97.06381609299378
347,770.999,2.936470753552811,97.06352924644719
348,773.681,0.9367617505160126,97.06323824948399
349,776.362,2.9370568952204508,97.06294310477955
350,779.042,0.9373561856710637,97.06264381432894
351,781.720,0.0,97.06234037945198
352,784.398,0.0,97.06203280079846
353,787.075,0.9382789216467557,97.06172107835324
354,789.751,0.0,97.06140521144151
355,792.425,0.9389148012661792,97.06108519873382
356,795.099,0.939238961748643,97.06076103825136
357,797.771,0.0,97.06043272737102
358,800.443,0.0,97.06010026283063
359,803.114,0.0,97.05976364073408
360,805.783,0.9405771434435337,97.05942285655647
361,808.452,0.9409220948507198,97.05907790514928
362,811.119,1.941271219254432,97.05872878074557
363,813.786,1.9416245230349318,97.05837547696507
364,816.451,1.9419820131806063,97.0580179868194
365,819.116,1.9423436972828512,97.05765630271715
366,821.779,2.942709583530828,97.05729041646917
367,824.442,1.9430796807064183,97.05692031929358
368,827.103,1.9434539981789385,97.05654600182106
369,829.763,0.0,97.0561674540999
370,832.423,0.0,97.05578466560124
371,835.081,0.9446023747757977,97.0553976252242
372,837.739,2.944993678698964,97.05500632130104
373,840.395,0.9453892583976966,97.0546107416023
374,843.050,0.9457891266579992,97.054210873342
375,845.705,0.0,97.05380670318277
376,848.358,0.9466017827589752,97.05339821724102
377,851.010,0.9470145989078986,97.0529854010921
378,853.662,0.9474317602245463,97.05256823977545
379,856.312,0.0,97.05214671779979
380,858.961,0.9482791808517845,97.05172081914822
381,861.610,1.9487094727165726,97.05129052728343
382,864.257,1.9491441748471345,97.05085582515287
383,866.903,1.9495833048061542,97.05041669519385
384,869.549,0.0,97.04997311933876
385,872.193,0.0,97.04952507902019
386,874.836,0.9509274448238898,97.04907255517611
387,877.478,3.951384471744973,97.04861552825503
388,880.120,1.951846021778863,97.04815397822114
389,882.760,1.952312115440506,97.0476878845595
390,885.399,0.9527827737188517,97.04721722628115
391,888.037,1.953258018071665,97.04674198192834
392,890.675,0.953737870420369,97.04626212957963
393,893.311,0.9542223531449139,97.04577764685509
394,895.946,0.9547114890785906,97.04528851092141
395,898.580,1.955205301502886,97.04479469849711
396,901.214,0.9557038141423106,97.04429618585769
397,903.846,0.0,97.04379294884076
398,906.477,2.9567150371487827,97.04328496285122
399,909.107,0.9572277971335694,97.04277220286643
400,911.737,0.0,97.04225464344137
401,914.365,1.9582677412862637,97.04173225871374
402,916.992,2.9587949775907703,97.04120502240923
403,919.618,1.959327092153444,97.04067290784656
404,922.244,0.0,97.04013588794274
405,924.868,1.9604060647818358,97.03959393521816
406,927.491,0.9609529781982076,97.03904702180179
407,930.113,0.9615048805636803,97.03849511943632
408,932.735,0.962061800516679,97.03793819948332
409,935.355,1.9626237670715767,97.03737623292842
410,937.974,0.0,97.03680919038644
411,940.592,2.963762957893451,97.03623704210655
412,943.210,0.0,97.03565975797748
413,945.826,0.9649226924673684,97.03507730753263
414,948.441,0.9655103400447729,97.03448965995523
415,951.056,0.0,97.03389678408351
416,953.669,1.9667013515841205,97.03329864841588
417,956.281,1.9673047788839426,97.03269522111606
418,958.893,0.0,97.03208647001824
419,961.503,2.968527637367714,97.03147236263229
420,964.112,1.9691471338511661,97.03085286614883
421,966.721,1.969772052555527,97.03022794744447
422,969.328,0.9704024269130684,97.02959757308693
423,971.935,1.9710382906597772,97.02896170934022
424,974.540,2.971679677830238,97.02832032216976
425,977.144,0.0,97.02767337724761
426,979.748,0.0,97.02702083995756
427,982.350,0.973637324599693,97.0263626754003
428,984.952,0.9743011516013382,97.02569884839866
429,987.552,1.974970676497378,97.02502932350262
430,990.152,0.0,97.02435406499464
431,992.750,0.0,97.02367303689466
432,995.348,0.9770137970346013,97.0229862029654
433,997.944,0.0,97.02229352671742
434,1000.540,0.9784050285856978,97.0215949714143
435,1003.134,1.9791094999221315,97.02089050007787
436,1005.728,1.9798199245067565,97.02018007549324
437,1008.321,0.9805363397858855,97.01946366021411
438,1010.912,0.9812587834322102,97.01874121656779
439,1013.503,0.9819872933395573,97.01801270666044
440,1016.092,0.9827219076177727,97.01727809238223
441,1018.681,1.9834626645875346,97.01653733541247
442,1021.269,0.9842096027752234,97.01579039722478
443,1023.856,0.9849627609077629,97.01503723909224
444,1026.441,1.9857221779074195,97.01427782209258
445,1029.026,0.0,97.0135121071133
446,1031.610,0.0,97.01274005485688
447,1034.193,0.9880383741541436,97.01196162584586
448,1036.775,2.9888232195718984,97.0111767804281
449,1039.355,1.9896145212181438,97.01038547878186
450,1041.935,0.0,97.00958768092099
451,1044.514,0.9912166532999152,97.00878334670008
452,1047.092,0.0,97.00797243581965
453,1049.669,1.9928450921687215,97.00715490783128
454,1052.245,0.9936692778572365,97.00633072214276
455,1054.820,0.0,97.00549983802327
456,1057.394,1.995337785391456,97.00466221460854
457,1059.967,1.9961821890939717,97.00381781090603
458,1062.539,2.997033414200004,97.0029665858
459,1065.110,2.997891501943201,97.0021084980568
460,1067.681,0.0,97.00124350632991
461,1070.250,0.9996284308347754,97.00037156916522
462,1072.818,1.0005073549939425,96.99949264500606
463,1075.385,1.001393307801564,96.99860669219844
464,1077.951,2.002286331003802,96.9977136689962
465,1080.517,0.0031864664338456805,96.99681353356615
466,1083.081,1.004093756006725,96.99590624399328
467,1085.644,0.005008241714179462,96.99499175828582
468,1088.207,2.005929965619501,96.9940700343805
469,1090.768,0.0068589698523453535,96.99314103014765
470,1093.329,0.0,96.99220470339641
471,1095.888,0.008738988120171598,96.99126101187983
472,1098.447,1.0096900866999476,96.99030991330005
473,1101.004,2.01064863468649,96.98935136531351
474,1103.561,0.011614674463970687,96.98838532553603
475,1106.116,1.0125882484519764,96.98741175154802
476,1108.671,2.0135693991003762,96.98643060089962
477,1111.225,0.014558168884107658,96.98544183111589
478,1113.777,0.015554600298074206,96.98444539970193
479,1116.329,1.016558735851973,96.98344126414803
480,1118.880,1.0175706180651076,96.98242938193489
481,1121.430,0.01859028946124397,96.98140971053876
482,1123.979,2.0196177925634657,96.98038220743653
483,1126.527,3.020653169889002,96.979346830111
484,1129.074,1.0216964639440675,96.97830353605593
485,1131.620,0.022747717218692287,96.97725228278131
486,1134.165,1.0238069721816032,96.9761930278184
487,1136.709,1.0248742712749817,96.97512572872502
488,1139.252,1.0259496569094324,96.97405034309057
489,1141.794,0.0,96.97296682854133
490,1144.335,0.02812485725448255,96.97187514274552
491,1146.875,0.029224756581527345,96.97077524341847
492,1149.415,3.0303329116721613,96.96966708832784
493,1151.953,1.0314493647012881,96.96855063529871
494,1154.490,0.03257415778121242,96.96742584221879
495,1157.027,2.0337073329564532,96.96629266704355
496,1159.562,1.0348489321986278,96.96515106780137
497,1162.097,2.0359989974012365,96.96400100259876
498,1164.630,2.0371575703745464,96.96284242962545
499,1167.163,2.038324692840419,96.96167530715958
500,1169.695,2.039500406427152,96.96049959357285
501,1172.225,2.040684752664305,96.9593152473357
502,1174.755,2.041877772977543,96.95812222702246
503,1177.284,1.043079508683519,96.95692049131648
504,1179.812,1.0442900009846454,96.95570999901535
505,1182.338,0.04550929096397738,96.95449070903602
506,1184.864,2.046737419580083,96.95326258041992
507,1187.389,2.047974427661785,96.95202557233821
508,1189.913,3.0492203559031026,96.9507796440969
509,1192.436,0.050475244858048995,96.94952475514195
510,1194.959,1.0517391349354597,96.94826086506454
511,1197.480,0.0530120663938618,96.94698793360614
512,1200.000,1.0542940793362874,96.94570592066371
513,1202.519,1.0555852137051431,96.94441478629486
514,1205.038,0.056885509277023516,96.94311449072298
515,1207.555,2.058195005657552,96.94180499434245
516,1210.071,1.059513742276252,96.94048625772375
517,1212.587,1.0608417583813718,96.93915824161863
518,1215.101,2.062179093034686,96.93782090696531
519,1217.615,1.0635257851063926,96.93647421489361
520,1220.128,1.0648818732699397,96.93511812673006
521,1222.639,2.0662473959968395,96.93375260400316
522,1225.150,0.06762239155153793,96.93237760844846
523,1227.660,2.0690068979862417,96.93099310201376
524,1230.169,0.07040095313574568,96.92959904686425
525,1232.677,2.071804594612317,96.92819540538768
526,1235.184,2.073217859800465,96.92678214019953
527,1237.690,0.0746407858518694,96.92535921414813
528,1240.195,2.0760734096801485,96.92392659031985
529,1242.699,0.0,96.92248423204428
530,1245.202,1.078967897100668,96.92103210289933
531,1247.704,1.0804298332835316,96.91957016671647
532,1250.206,1.081901612414228,96.91809838758577
533,1252.706,1.083383270138782,96.91661672986122
534,1255.206,0.0,96.91512515816574
535,1257.704,2.0863763626035876,96.91362363739641
536,1260.202,0.08788786727032516,96.91211213272967
537,1262.698,1.0894093903736035,96.9105906096264
538,1265.194,0.09094096616293257,96.90905903383707
539,1267.689,1.0924826285929896,96.90751737140701
540,1270.183,2.094034411318532,96.90596558868147
541,1272.676,1.0955963476892094,96.90440365231079
542,1275.168,0.0,96.90283152925562
543,1277.659,1.0987508132079995,96.901249186792
544,1280.149,2.1003434074833933,96.8996565925166
545,1282.638,1.1019462856481823,96.89805371435182
546,1285.126,1.1035594794490606,96.89644052055094
547,1287.613,1.10518302029665,96.89481697970335
548,1290.100,1.106816939260355,96.89318306073964
549,1292.585,1.1084612670631913,96.89153873293681
550,1295.070,0.11011603407662562,96.88988396592337
551,1297.553,1.1117812703154186,96.88821872968458
552,1300.036,1.1134570054324655,96.88654299456753
553,1302.517,1.1151432687136236,96.88485673128638
554,1304.998,2.1168400890726105,96.88315991092739
555,1307.478,3.118547495045732,96.88145250495427
556,1309.957,1.1202655147868654,96.87973448521313
557,1312.435,1.1219941760621452,96.87800582393785
558,1314.912,1.1237335062449603,96.87626649375504
559,1317.388,2.125483532310639,96.87451646768936
560,1319.863,2.127244280831448,96.87275571916855
561,1322.337,2.12901577797129,96.87098422202871
562,1324.811,2.1307980494806174,96.86920195051938
563,1327.283,0.13259112069130197,96.8674088793087
564,1329.755,0.13439501651139096,96.86560498348861
565,1332.225,0.1362097614200053,96.86379023858
566,1334.695,0.0,96.86196462053783
567,1337.163,1.1398718942436403,96.86012810575636
568,1339.631,2.1417193289257597,96.85828067107424
569,1342.098,1.143577706220313,96.85642229377969
570,1344.564,0.14544704838431244,96.85455295161569
571,1347.029,1.1473273772148787,96.85267262278512
572,1349.493,2.149218714044096,96.8507812859559
573,1351.956,2.1511210797338123,96.84887892026619
574,1354.418,1.1530344946705213,96.84696550532948
575,1356.880,2.1549589787601633,96.84504102123984
576,1359.340,1.1568945514229654,96.84310544857703
577,1361.800,0.1588412315883403,96.84115876841166
578,1364.258,0.16079903768965664,96.83920096231034
579,1366.716,1.162767987659123,96.83723201234088
580,1369.172,2.164748098922601,96.8352519010774
581,1371.628,2.1667393883944612,96.83326061160554
582,1374.083,2.168741872472438,96.83125812752756
583,1376.537,1.1707555670324439,96.82924443296756
584,1378.990,1.1727804874234096,96.82721951257659
585,1381.442,2.1748166484621407,96.82518335153786
586,1383.893,0.17686406442814473,96.82313593557186
587,1386.344,0.17892274905850059,96.8210772509415
588,1388.793,0.18099271554264362,96.81900728445736
589,1391.241,2.1830739765172638,96.81692602348274
590,1393.689,0.18516654406111854,96.81483345593888
591,1396.135,0.1872704296898604,96.81272957031014
592,1398.581,3.1893856443509065,96.8106143556491
593,1401.026,0.0,96.80848780158173
594,1403.470,0.19365010168736774,96.80634989831263
595,1405.913,1.1957993633699289,96.80420063663007
596,1408.355,1.1979599920887694,96.80204000791123
597,1410.796,0.20013199587266683,96.79986800412733
598,1413.236,2.202315382151184,96.79768461784882
599,1415.675,2.2045101577495245,96.79548984225048
600,1418.114,0.206716328883374,96.79328367111663
601,1420.551,2.2089339011537135,96.79106609884629
602,1422.988,0.2111628795416891,96.78883712045831
603,1425.423,1.2134032684034537,96.78659673159655
604,1427.858,1.2156550714649654,96.78434492853503
605,1430.292,2.2179182918169005,96.7820817081831
606,1432.725,1.2201929319094234,96.77980706809058
607,1435.157,0.2224789935470568,96.77752100645294
608,1437.588,0.22477647788352328,96.77522352211648
609,1440.018,0.22708538541660062,96.7729146145834
610,1442.447,0.2294057159829208,96.77059428401708
611,1444.876,1.2317374687528542,96.76826253124715
612,1447.303,2.2340806422253223,96.76591935777468
613,1449.730,1.2364352342226255,96.76356476577737
614,1452.156,0.2388012418853407,96.76119875811466
615,1454.580,1.2411786616671066,96.7588213383329
616,1457.004,2.243567489329493,96.7564325106705
617,1459.427,0.24596771993680022,96.7540322800632
618,1461.849,0.24837934785097104,96.75162065214903
619,1464.270,1.2508023667263757,96.74919763327362
620,1466.690,3.253236769504653,96.74676323049535
621,1469.110,2.255682548409581,96.74431745159042
622,1471.528,2.258139694941889,96.74186030505811
623,1473.946,2.2606081998741274,96.73939180012587
624,1476.362,1.2630880532454825,96.73691194675452
625,1478.778,1.2655792443566014,96.7344207556434
626,1481.193,0.26808176176449194,96.73191823823551
627,1483.607,0.27059559327732075,96.72940440672268
628,1486.020,1.2731207259492408,96.72687927405076
629,1488.432,2.2756571460752753,96.72434285392472
630,1490.843,0.2782048391861025,96.7217951608139
631,1493.253,0.0,96.71923620995703
632,1495.663,1.2833339826324561,96.71666601736754
633,1498.071,0.28591540016137174,96.71408459983863
634,1500.479,1.2885080250515557,96.71149197494844
635,1502.886,1.2911118389347536,96.70888816106525
636,1505.292,0.29372682264741456,96.70627317735259
637,1507.697,1.2963529562256042,96.7036470437744
638,1510.101,1.2989902188997462,96.70100978110025
639,1512.504,1.3016385890895492,96.69836141091045
640,1514.906,2.3042980443988057,96.6957019556012
641,1517.307,0.3069685616102191,96.69303143838978
642,1519.708,0.0,96.69034988331971
643,1522.107,0.3123426847341051,96.6876573152659
644,1524.506,0.31504624006024073,96.68495375993976
645,1526.904,0.0,96.68223924389446
646,1529.301,2.32048620546999,96.67951379453001
647,1531.697,0.0,96.67677744009848
648,1534.092,2.325969790290941,96.67403020970906
649,1536.486,1.3287278666666253,96.67127213333337
650,1538.879,3.3314967581895445,96.66850324181046
651,1541.272,1.334276433147906,96.6657235668521
652,1543.663,2.337066858952184,96.66293314104782
653,1546.054,0.3398680021297906,96.66013199787021
654,1548.444,0.34267982832004407,96.65732017167996
655,1550.832,1.345502302268926,96.65449769773107
656,1553.220,1.348335387824008,96.65166461217599
657,1555.607,0.35117904792916477,96.64882095207084
658,1557.994,0.354033244619572,96.64596675538043
659,1560.379,0.0,96.64310206098361
660,1562.763,0.3597730913217134,96.64022690867829
661,1565.147,3.362658660813395,96.6373413391866
662,1567.529,1.3655546058398187,96.63444539416018
663,1569.911,0.0,96.63153911618517
664,1572.292,0.0,96.62862254878748
665,1574.672,0.374304263562081,96.62569573643792
666,1577.051,0.0,96.62275872455736
667,1579.429,0.38018844047812195,96.61981155952188
668,1581.807,1.3831457113320766,96.61685428866792
669,1584.183,1.3861130397024795,96.61388696029752
670,1586.559,1.389090376316645,96.61090962368336
671,1588.933,0.3920776709260281,96.60792232907397
672,1591.307,1.395074872301052,96.60492512769895
673,1593.680,2.3980819282259915,96.60191807177401
674,1596.052,1.401098785493744,96.59890121450626
675,1598.423,0.40412538990076996,96.59587461009923
676,1600.794,1.4071616862418068,96.5928383137582
677,1603.163,1.410207618304824,96.58979238169518
678,1605.531,0.0,96.58673687113418
679,1607.899,1.4163281596836441,96.58367184031636
680,1610.266,1.4194026514948348,96.58059734850517
681,1612.632,1.4224865440085352,96.57751345599146
682,1614.997,0.0,96.57442022409879
683,1617.361,1.4286822848116145,96.57131771518839
684,1619.724,2.4317940073354976,96.5682059926645
685,1622.086,1.43491487902061,96.56508512097939
686,1624.448,0.0,96.56195516563864
687,1626.808,0.4411838067938447,96.55881619320616
688,1629.168,1.4443317286904858,96.55566827130951
689,1631.527,0.44748853135504874,96.55251146864495
690,1633.885,0.0,96.5493458549826
691,1636.242,0.4538284988283152,96.54617150117168
692,1638.598,0.4570115208544365,96.54298847914556
693,1640.954,1.4602031380729699,96.53979686192703
694,1643.308,0.0,96.53659672363337
695,1645.662,0.0,96.53338813948156
696,1648.014,1.469828814206565,96.53017118579344
697,1650.366,1.4730540599991855,96.52694594000081
698,1652.717,0.4762875193492846,96.52371248065072
699,1655.067,1.4795291125895602,96.52047088741044
700,1657.417,1.4827787589271963,96.5172212410728
701,1659.765,1.4860363764387472,96.51396362356125
702,1662.112,1.4893018820649502,96.51069811793505
703,1664.459,0.49257519160561003,96.50742480839439
704,1666.805,0.4958562197143692,96.50414378028563
705,1669.150,0.499144879893592,96.50085512010641
706,1671.494,0.5024410844892486,96.49755891551075
707,1673.837,1.505744744685643,96.49425525531436
708,1676.179,1.5090557705003818,96.49094422949962
709,1678.520,0.0,96.48762592922091
710,1680.861,0.5156995531903448,96.48430044680966
711,1683.201,0.5190321242204874,96.48096787577951
712,1685.539,1.5223716891684518,96.47762831083155
713,1687.877,0.5257181521405982,96.4742818478594
714,1690.214,1.5290714160455963,96.4709285839544
715,1692.551,0.5324313825892233,96.46756861741078
716,1694.886,0.5357979522692204,96.46420204773078
717,1697.220,3.5391710243701198,96.46082897562988
718,1699.554,0.5425504969581141,96.45744950304189
719,1701.887,2.54593626687587,96.45406373312413
720,1704.219,1.5493282297373838,96.45067177026262
721,1706.550,1.5527262799228083,96.44727372007719
722,1708.880,0.5561303105733089,96.44386968942669
723,1711.209,1.5595402135859047,96.4404597864141
724,1713.537,0.5629558796082677,96.43704412039173
725,1715.865,0.5663771980336207,96.43362280196638
726,1718.192,0.5698040569955509,96.43019594300445
727,1720.518,1.5732363433628507,96.42676365663715
728,1722.843,0.5766739427343737,96.42332605726563
729,1725.167,2.5801167394338194,96.41988326056618
730,1727.490,2.5835646165046597,96.41643538349534
731,1729.812,0.5870174557049239,96.41298254429508
732,1732.134,1.5904751375020254,96.40952486249797
733,1734.455,2.593937541067646,96.40606245893235
734,1736.774,0.0,96.40259545572742
735,1739.093,0.6008760236815078,96.39912397631849
736,1741.411,1.6043518545479003,96.3956481454521
737,1743.729,1.6078319108088408,96.39216808919116
738,1746.045,0.6113160650798761,96.38868393492012
739,1748.361,2.6148041886498135,96.38519581135019
740,1750.675,2.618296151475633,96.38170384852437
741,1752.989,0.6217918221772436,96.37820817782276
742,1755.302,0.0,96.3747089319676
743,1757.614,1.6287937549714826,96.37120624502852
744,1759.925,2.6322997475724037,96.3677002524276
745,1762.236,0.0,96.36419109094463
746,1764.545,0.0,96.3606788987222
747,1766.854,1.6428361847290773,96.35716381527092
748,1769.162,0.6463540185254999,96.3536459814745
749,1771.469,1.6498744604050302,96.35012553959497
750,1773.775,0.0,96.34660263327785
751,1776.080,1.6569225924427542,96.34307740755725
752,1778.385,0.0,96.33955000886107
753,1780.688,1.6639794149838423,96.33602058501616
754,1782.991,2.667510714746527,96.33248928525347
755,1785.293,0.6710437397867821,96.32895626021322
756,1787.594,0.674578338049983,96.32542166195002
757,1789.894,1.6781143560618972,96.3218856439381
758,1792.193,1.681651638923583,96.31834836107642
759,1794.492,0.6851900303061882,96.31480996969381
760,1796.789,0.6887293724458061,96.3112706275542
761,1799.086,1.6922695061382882,96.30773049386171
762,1801.382,0.6958102707341283,96.30418972926587
763,1803.677,0.0,96.30064849586671
764,1805.971,0.7028930427800049,96.29710695722
765,1808.265,0.0,96.29356527834231
766,1810.557,0.7099763742837126,96.29002362571629
767,1812.849,0.7135178327042837,96.28648216729572
768,1815.140,2.717058927489248,96.28294107251075
769,1817.430,1.720599487727,96.279400512273
770,1819.719,1.7241393410192245,96.27586065898078
771,1822.007,2.727678313475849,96.27232168652415
772,1824.295,0.7312162297097871,96.26878377029021
773,1826.581,1.7347529128318229,96.26524708716818
774,1828.867,0.7382881844454658,96.26171181555453
775,1831.152,0.74182186464175,96.25817813535825
776,1833.436,0.0,96.25464622800591
777,1835.719,1.7488837235531776,96.25111627644682
778,1838.002,1.7524115348417126,96.24758846515829
779,1840.283,0.7559370198493269,96.24406298015067
780,1842.564,1.759459991027427,96.24054000897257
781,1844.844,0.7629802592839496,96.23701974071605
782,1847.123,0.7664976339783323,96.23350236602167
783,1849.401,0.0,96.22998807708379
784,1851.678,1.7735229323443917,96.22647706765561
785,1853.955,2.7770304669455896,96.22296953305441
786,1856.231,0.780534329833344,96.21946567016666
787,1858.506,1.7840343225468018,96.2159656774532
788,1860.780,0.0,96.21246975495441
789,1863.053,0.0,96.20897810429537
790,1865.325,2.7945090713090366,96.20549092869096
791,1867.597,1.7979915670488822,96.20200843295112
792,1869.867,1.8014691765140896,96.19853082348591
793,1872.137,2.804941691689251,96.19505830831075
794,1874.406,2.8084089029484858,96.19159109705151
795,1876.674,1.8118705990502235,96.18812940094978
796,1878.941,1.8153265671321606,96.18467343286784
797,1881.208,0.8187765927059587,96.18122340729404
798,1883.473,0.0,96.1777795403478
799,1885.738,0.8256579502151595,96.17434204978484
800,1888.002,1.829088844997699,96.1709111550023
801,1890.265,0.0,96.16748707704396
802,1892.528,0.8359299613946689,96.16407003860533
803,1894.789,1.839339735961147,96.16066026403885
804,1897.050,2.8427420206409266,96.15725797935907
805,1899.310,2.8461365877522695,96.15386341224773
806,1901.569,0.849523207940976,96.15047679205902
807,1903.827,0.8529016501753546,96.14709834982465
808,1906.084,2.8562716817409353,96.14372831825906
809,1908.340,1.8596330682353823,96.14036693176462
810,1910.596,1.862985573563364,96.13701442643664
811,1912.851,0.8663289599312805,96.13367104006872
812,1915.105,0.8696629878422186,96.13033701215778
813,1917.358,0.0,96.12701258390925
814,1919.610,0.8763020017577645,96.12369799824224
815,1921.862,1.8796065002052842,96.12039349979472
816,1924.113,1.882900665071375,96.11709933492862
817,1926.362,0.8861842482649251,96.11381575173507
818,1928.611,1.889456999960501,96.1105430000395
819,1930.860,1.8927186685932185,96.10728133140678
820,1933.107,1.8959690008535546,96.10403099914645
821,1935.353,1.8992077416821616,96.10079225831784
822,1937.599,1.9024346342647647,96.09756536573524
823,1939.844,0.9056494200269753,96.09435057997302
824,1942.088,2.9088518386291327,96.09114816137087
825,1944.331,0.9120416279611305,96.08795837203887
826,1946.574,0.9152185241372592,96.08478147586274
827,1948.815,0.9183822614911037,96.0816177385089
828,1951.056,1.9215325725702854,96.07846742742971
829,1953.296,1.9246691881313893,96.07533081186861
830,1955.535,0.9277918371347482,96.07220816286525
831,1957.773,0.0,96.06909975326069
832,1960.011,1.9339941422975073,96.06600585770249
833,1962.248,0.9370732473500141,96.06292675264999
834,1964.483,2.9401372836206434,96.05986271637936
835,1966.718,2.9431859710112036,96.0568140289888
836,1968.953,2.9462190275962854,96.05378097240371
837,1971.186,0.9492361696181746,96.05076383038183
838,1973.418,0.9522371114816082,96.04776288851839
839,1975.650,1.9552215657486727,96.04477843425133
840,1977.881,0.0,96.04181075686637
841,1980.111,0.0,96.03886014750226
842,1982.340,0.0,96.03592689915585
843,1984.569,0.9669886933126577,96.03301130668734
844,1986.797,1.9698863331746281,96.03011366682537
845,1989.023,0.0,96.02723427817219
846,1991.249,0.0,96.02437344120887
847,1993.474,1.9784685416995984,96.0215314583004
848,1995.699,0.0,96.01870863370088
849,1997.922,0.9840947264413415,96.01590527355866
850,2000.145,1.9868783140784387,96.01312168592156
851,2002.367,2.9896418192580967,96.0103581807419
852,2004.588,0.9923849301181917,96.00761506988181
853,2006.808,0.0,96.00489266711831
854,2009.028,0.9978087118515475,96.00219128814845
855,2011.246,1.000488749405477,95.99951125059452
856,2013.464,0.0031471259907789317,95.99685287400922
857,2015.681,2.00578352011928,95.99421647988072
858,2017.898,1.0083976083620456,95.99160239163795
859,2020.113,2.0109890653443188,95.98901093465568
860,2022.328,1.0135575637403207,95.98644243625968
861,2024.541,1.016102774268063,95.98389722573194
862,2026.754,0.018624365684274835,95.98137563431573
863,2028.966,0.0,95.97887799522087
864,2031.178,1.0235953563712172,95.97640464362878
865,2033.388,0.026044083302224408,95.97395591669778
866,2035.598,1.0284678464319086,95.97153215356809
867,2037.807,0.0,95.96913369536709
868,2040.015,3.0332391147855304,95.96676088521447
869,2042.222,1.0355859317726441,95.96441406822736
870,2044.429,0.03790640847451243,95.96209359152549
871,2046.634,2.0402001957636173,95.95979980423638
872,2048.839,1.0424669424994875,95.95753305750051
873,2051.043,1.0447062955235964,95.9552937044764
874,2053.247,2.046917899654133,95.95308210034587
875,2055.449,2.0491013976809143,95.95089860231909
876,2057.651,1.0512564303601266,95.94874356963987
877,2059.851,3.0533826364092675,95.94661736359073
878,2062.052,2.05547965250193,95.94452034749807
879,2064.251,1.0575471132626575,95.94245288673734
880,2066.449,0.059584651261801014,95.9404153487382
881,2068.647,0.06159189701031664,95.93840810298968
882,2070.844,0.06356847895463602,95.93643152104536
883,2073.040,2.065514023471522,95.93448597652848
884,2075.235,2.067428154862853,95.93257184513715
885,2077.429,0.06931049535054967,95.93068950464945
886,2079.623,2.0711606650713037,95.9288393349287
887,2081.815,2.0729782820715315,95.92702171792847
888,2084.007,1.0747629623021453,95.92523703769785
889,2086.199,3.076514319613395,95.9234856803866
890,2088.389,1.078231965749751,95.92176803425025
891,2090.579,1.079915510344705,95.9200844896553
892,2092.767,1.0815645609156093,95.91843543908439
893,2094.955,1.0831787228585767,95.91682127714142
894,2097.143,0.08475759944322192,95.91524240055678
895,2099.329,1.0863007918075738,95.91369920819243
896,2101.514,2.0878078989529314,95.91219210104707
897,2103.699,2.0892785177386344,95.91072148226137
898,2105.883,0.09071224287693269,95.90928775712307
899,2108.066,2.0921086669278566,95.90789133307214
900,2110.249,2.093467380294044,95.90653261970596
901,2112.430,0.0,95.90521202878446
902,2114.611,0.09607002576467494,95.90392997423533
903,2116.791,2.097313127840934,95.90268687215907
904,2118.970,2.098516859165713,95.90148314083429
905,2121.149,2.0996807992772517,95.90031920072275
906,2123.326,1.1008045255254189,95.89919547447458
907,2125.503,3.101887613066509,95.89811238693349
908,2127.679,1.1029296348582136,95.89707036514179
909,2129.854,1.1039301616543753,95.89606983834562
910,2132.029,2.1048887619997885,95.89511123800021
911,2134.202,2.1058050022251535,95.89419499777485
912,2136.375,1.1066784464417907,95.89332155355821
913,2138.547,1.107508656536595,95.8924913434634
914,2140.718,0.0,95.89170480783318
915,2142.889,0.0,95.8909623892451
916,2145.058,0.10973546748331842,95.89026453251668
917,2147.227,1.1103883152894554,95.88961168471054
918,2149.395,1.1109957048604002,95.8890042951396
919,2151.563,2.1115571846278414,95.88844281537216
920,2153.729,3.112072300762847,95.88792769923715
921,2155.895,0.11254059717072096,95.88745940282928
922,2158.060,1.1129616154859008,95.8870383845141
923,2160.224,0.0,95.8866651049333
924,2162.387,2.11365997299022,95.88634002700978
925,2164.550,2.113936384047193,95.8860636159528
926,2166.711,0.0,95.88583633926324
927,2168.872,1.1143413332613932,95.8856586667386
928,2171.033,0.11446892952164944,95.88553107047835
929,2173.192,0.1145459751110991,95.8854540248889
930,2175.351,1.1145719933111025,95.8854280066889
931,2177.508,1.1145465050856558,95.88545349491434
932,2179.665,3.1144690290762753,95.88553097092372
933,2181.822,2.114339081596796,95.8856609184032
934,2183.977,2.1141561766282138,95.88584382337179
935,2186.132,2.113919825813582,95.88608017418642
936,2188.285,2.1136295384527273,95.88637046154727
937,2190.439,1.1132848214972597,95.88671517850274
938,2192.591,0.11288517954527322,95.88711482045473
939,2194.742,1.1124301148362292,95.88756988516377
940,2196.893,2.1119191272458266,95.88808087275417
941,2199.043,2.1113517142808007,95.8886482857192
942,2201.192,3.110727371073807,95.8892726289262
943,2203.341,0.11004559037822048,95.88995440962178
944,2205.488,1.1093058625629908,95.89069413743701
945,2207.635,1.108507675607484,95.89149232439252
946,2209.781,1.1076505150963385,95.89234948490366
947,2211.926,2.106733864214277,95.89326613578572
948,2214.071,1.1057572037409784,95.89424279625902
949,2216.214,0.0,95.89527998795414
950,2218.357,0.10362176508297694,95.89637823491702
951,2220.499,0.10246193638587897,95.89753806361412
952,2222.641,2.1012399970623648,95.89876000293764
953,2224.781,1.0999554157893954,95.9000445842106
954,2226.921,0.09860765880793565,95.90139234119206
955,2229.060,1.0971961899177245,95.90280381008228
956,2231.198,1.0957204704721875,95.90427952952781
957,2233.336,0.0,95.90582004062675
958,2235.472,2.092574113066206,95.9074258869338
959,2237.608,2.090902385534463,95.90909761446554
960,2239.743,1.089164228294507,95.9108357717055
961,2241.878,1.0873590903906774,95.91264090960932
962,2244.011,2.085486418390019,95.91451358160998
963,2246.144,1.083545656377126,95.91645434362287
964,2248.276,1.0815362459489535,95.91846375405105
965,2250.407,2.0794576262097024,95.9205423737903
966,2252.538,1.0773092337656323,95.92269076623437
967,2254.667,2.0750905027198883,95.92490949728011
968,2256.796,1.072800864667414,95.92719913533259
969,2258.924,2.0704397486896795,95.92956025131032
970,2261.052,0.06800658134963555,95.93199341865036
971,2263.178,1.0655007866864707,95.93449921331353
972,2265.304,0.06292178621046673,95.93707821378953
973,2267.429,1.0602689988978966,95.9397310011021
974,2269.553,1.0575418411857953,95.9424581588142
975,2271.677,1.0547397269668153,95.94526027303318
976,2273.800,0.051862067584110605,95.94813793241589
977,2275.921,0.04890827182612156,95.95109172817388
978,2278.043,1.0458777459214588,95.95412225407854
979,2280.163,2.0427698935336878,95.95723010646631
980,2282.283,0.039584115756241545,95.96041588424376
981,2284.401,0.03631981110721938,95.96368018889278
982,2286.520,2.032976375524214,95.96702362447579
983,2288.637,2.029553202359196,95.9704467976408
984,2290.753,0.026049682373312066,95.97395031762669
985,2292.869,1.022465203731727,95.97753479626827
986,2294.984,0.01879915199852178,95.98120084800148
987,2297.098,2.0150509101314356,95.98494908986856
988,2299.212,2.011219858476835,95.98878014152316
989,2301.325,1.0073053747644138,95.99269462523559
990,2303.437,1.0033068341021334,95.99669316589787
991,2305.548,0.0,96.00077639102898
992,2307.658,1.9950550692200437,96.00494493077996
993,2309.768,0.0,96.00919941793912
994,2311.877,0.986459512062865,96.01354048793714
995,2313.985,1.9820312211477074,96.01796877885229
996,2316.092,1.977515068584438,96.02248493141556
997,2318.199,2.9729104109841984,96.0270895890158
998,2320.304,0.0,96.03178339770493
999,2322.409,2.9634329937969426,96.03656700620306
1000,2324.514,2.9585589340963594,96.04144106590364
1001,2326.617,0.9535937691213547,96.04640623087865
1002,2328.720,1.9485368421162121,96.05146315788379
1003,2330.822,0.9433874936364646,96.05661250636354
1004,2332.923,0.9381450615435796,96.06185493845642
1005,2335.024,1.9328088809999429,96.06719111900006
1006,2337.123,1.9273782844635008,96.0726217155365
1007,2339.222,0.0,96.07814739831713
1008,2341.320,0.0,96.08376884030807
1009,2343.418,0.0,96.08948671719524
1010,2345.514,1.904698292610533,96.09530170738947
1011,2347.610,0.8987855079682845,96.10121449203172
1012,2349.705,0.8927742450017604,96.10722575499824
1013,2351.800,0.886663817094302,96.1133361829057
1014,2353.893,0.8804535348836566,96.11954646511634
1015,2355.986,0.8741427062567624,96.12585729374324
1016,2358.078,0.0,96.1322693636553
1017,2360.170,0.8612166275174644,96.13878337248254
1018,2362.260,0.0,96.1454000206212
1019,2364.350,2.847879988761065,96.15212001123894
1020,2366.439,1.8410559497200865,96.15894405027991
1021,2368.527,1.8341271535299626,96.16587284647004
1022,2370.615,0.0,96.17290711132208
1023,2372.702,1.81995244085914,96.18004755914086
