# kind,background_subtracted
# version_label,v1_07
# poly_order,5
# iterations_run,10
pixel_index,raman_shift_cm-1,intensity,background_intensity
0,-224.846,2.477830784811019,95.52216921518898
1,-221.778,2.4483351971608727,95.55166480283913
2,-218.712,3.419036691869181,95.58096330813082
3,-215.647,2.389933414970173,95.61006658502983
4,-212.583,3.3610235225685017,95.6389764774315
5,-209.521,3.3323051808162916,95.66769481918371
6,-206.460,3.3037765658902316,95.69622343410977
7,-203.399,1.275435863968596,95.7245641360314
8,-200.340,1.2472812712083794,95.75271872879162
9,-197.283,1.219310993722317,95.78068900627768
10,-194.226,2.191523247555992,95.80847675244401
11,-191.171,3.1639162586648695,95.83608374133513
12,-188.116,1.1364882628913904,95.86351173710861
13,-185.064,0.10923750594200499,95.890762494058
14,-182.012,2.0821622433643228,95.91783775663568
15,-178.961,2.0552607405240764,95.94473925947592
16,-175.912,3.028531272582285,95.97146872741772
17,-172.864,3.0019721244722604,95.99802787552774
18,-169.817,0.9755815908766863,96.02441840912331
19,-166.771,1.9493579762047517,96.05064202379525
20,-163.726,2.9232995945691016,96.0767004054309
21,-160.683,2.8974047697630425,96.10259523023696
22,-157.641,1.8716718352374926,96.12832816476251
23,-154.600,3.8460991340781447,96.15390086592186
24,-151.560,0.0,96.17931498101755
25,-148.521,1.795427852236756,96.20457214776324
26,-145.484,2.770326005693363,96.22967399430664
27,-142.447,0.0,96.25462213925243
28,-139.412,3.720581808314762,96.27941819168524
29,-136.379,2.695936248807456,96.30406375119254
30,-133.346,0.6714395921124066,96.3285604078876
31,-130.314,2.647090257567669,96.35290974243233
32,-127.284,1.6228866739396324,96.37711332606037
33,-124.255,0.5988272794001404,96.40117272059986
34,-121.227,0.5749105215035115,96.42508947849649
35,-118.200,2.5511348571636603,96.44886514283634
36,-115.175,2.5274987526311037,96.4725012473689
37,-112.150,0.5040006834700961,96.4959993165299
38,-109.127,2.48063913453565,96.51936086546435
39,-106.105,0.45741259995065775,96.54258740004934
40,-103.084,1.4343195830828819,96.56568041691712
41,-100.065,1.411358596522092,96.58864140347791
42,-97.046,0.3885281620571419,96.61147183794286
43,-94.029,0.36582681065296185,96.63417318934704
44,-91.013,2.343253082427694,96.6567469175723
45,-87.998,2.320805526629769,96.67919447337023
46,-84.984,1.2984827016149296,96.70151729838507
47,-81.972,3.2762831748233197,96.72371682517668
48,-78.960,2.254205522756564,96.74579447724344
49,-75.950,1.232248330954846,96.76775166904515
50,-72.941,1.2104101939739138,96.78958980602609
51,-69.933,2.1886897153622584,96.81131028463774
52,-66.927,2.1670855076380775,96.83291449236192
53,-63.921,2.14559619226641,96.85440380773359
54,-60.917,1.1242203996361866,96.87577960036381
55,-57.914,0.10295676903729145,96.89704323096271
56,-54.912,1.081803948637642,96.91819605136236
57,-51.911,0.06076059546025192,96.93923940453975
58,-48.912,1.0398253753603228,96.96017462463968
59,-45.913,0.018996963002280154,96.98100303699772
60,-42.916,0.9982740418368365,97.00172595816316
61,-39.920,0.9776553040781266,97.02234469592187
62,-36.925,1.9571394506807138,97.04286054931929
63,-33.931,0.9367251913166825,97.06327480868332
64,-30.939,1.9164112443526733,97.08358875564733
65,-27.947,0.0,97.10380366317297
66,-24.957,0.0,97.12392079557318
67,-21.968,0.0,97.14394140853516
68,-18.980,1.8361332508568609,97.16386674914314
69,-15.993,0.816301944098484,97.18369805590152
70,-13.008,0.0,97.2034365587576
71,-10.023,1.7769165208753037,97.2230834791247
72,-7.040,1.757359970095095,97.2426400299049
73,-4.058,0.0,97.26210741551216
74,-1.077,0.0,97.28148683189508
75,1.903,0.0,97.30077946655996
76,4.881,1.6800135014063642,97.31998649859364
77,7.859,1.660890901313536,97.33910909868646
78,10.835,0.6418515708447359,97.35814842915526
79,13.810,0.6228943560337967,97.3771056439662
80,16.784,3.6040181112422545,97.39598188875775
81,19.757,0.5852216991364116,97.41477830086359
82,22.728,0.5665039906644154,97.43349600933558
83,25.699,1.547863865033321,97.45213613496668
84,28.668,1.5293002096861557,97.47069979031384
85,31.636,0.0,97.489188079721
86,34.603,1.4923979006580623,97.50760209934194
87,37.569,0.0,97.52594293716328
88,40.534,0.0,97.54421167302736
89,43.497,0.4375906213447678,97.56240937865523
90,46.460,0.41946288233050666,97.5805371176695
91,49.421,0.4014040543826809,97.59859594561732
92,52.381,0.3834130900066697,97.61658690999333
93,55.340,0.0,97.63451105026256
94,58.297,0.0,97.65236939788332
95,61.254,0.32983702366978207,97.67016297633022
96,64.209,0.0,97.68789280111706
97,67.164,0.2944401201802975,97.7055598798197
98,70.117,0.27683478790088145,97.72316521209912
99,73.069,2.259290210275779,97.74070978972422
100,76.020,2.2418054034051664,97.75819459659483
101,78.969,2.224379391235388,97.77562060876461
102,81.918,2.2070112055360056,97.792988794464
103,84.865,3.1896998858769052,97.8103001141231
104,87.811,3.1724444796053035,97.8275555203947
105,90.757,4.155244041822925,97.84475595817707
106,93.700,2.138097635362925,97.86190236463707
107,96.643,3.1210043307671214,97.87899566923288
108,99.585,2.103963206262904,97.8960367937371
109,102.525,4.086973347740454,97.91302665225955
110,105.465,3.070033848729693,97.9299661512703
111,108.403,3.053143810377435,97.94685618962257
112,111.340,4.036302341424374,97.96369765857563
113,114.276,2.0195085581822525,97.98049144181775
114,117.211,3.0027615845108784,97.99723841548912
115,120.144,4.986060551795163,98.01393944820484
116,123.077,2.969404598922239,98.03059540107776
117,126.008,1.9527928722585273,98.04720712774147
118,128.938,1.9362245256268125,98.06377547437319
119,131.868,1.919698720283236,98.08030127971676
120,134.795,3.903214624894474,98.09678537510553
121,137.722,4.886771415514744,98.11322858448526
122,140.648,4.870368275562896,98.1296317244371
123,143.572,2.854004395799464,98.14599560420054
124,146.496,2.8376789743037563,98.16232102569624
125,149.418,1.8213912164508912,98.17860878354911
126,152.339,2.8051403348889323,98.19485966511107
127,155.259,1.7889255495158665,98.21107445048413
128,158.178,2.772746087456767,98.22725391254323
129,161.096,3.7566011830408,98.2433988169592
130,164.012,3.740490077778304,98.2595099222217
131,166.928,2.72441202033788,98.27558797966212
132,169.842,3.70836626652347,98.29163373347653
133,172.755,3.692352079251364,98.30764792074864
134,175.667,1.6763687285273505,98.32363127147265
135,178.578,1.6604154914237341,98.33958450857627
136,181.488,2.644491652056402,98.3555083479436
137,184.397,1.6285965015619297,98.37140349843807
138,187.304,2.6127293380746295,98.38727066192537
139,190.211,3.5968894667036437,98.40311053329636
140,193.116,3.581076199509937,98.41892380049006
141,196.020,4.565288855483459,98.43471114451654
142,198.923,1.5495267605201946,98.4504732394798
143,201.825,3.53378924739917,98.46621075260083
144,204.726,2.5180756557596027,98.4819243442404
145,207.625,3.502385332077921,98.49761466792208
146,210.524,1.4867176296448577,98.51328237035514
147,213.421,0.47107190854249836,98.5289280914575
148,216.318,2.4554475356213743,98.54455246437863
149,219.213,4.439843884477526,98.56015611552247
150,222.107,0.4242603354295369,98.57573966457046
151,225.000,2.4086962754956858,98.59130372450431
152,227.891,1.3931510983709217,98.60684890162908
153,230.782,0.0,98.62237579559601
154,233.672,3.362115000574491,98.63788499942551
155,236.560,2.346622900469953,98.65337709953005
156,239.447,0.3311473242628864,98.66885267573711
157,242.333,3.315687698687867,98.68431230131213
158,245.218,1.3002434570186097,98.69975654298139
159,248.102,3.2848140390450027,98.715185960955
160,250.985,3.269398891050244,98.73060110894976
161,253.867,2.2539974657878474,98.74600253421215
162,256.748,2.23860922245872,98.76139077754128
163,259.627,3.223233626688298,98.7767663733117
164,262.505,4.20787015050351,98.79212984949649
165,265.383,2.192518272309954,98.80748172769005
166,268.259,2.177177476868877,98.82282252313112
167,271.134,2.1618472552742958,98.8381527447257
168,274.008,0.14652710493007248,98.85347289506993
169,276.880,3.131216529526924,98.86878347047308
170,279.752,1.1159150390195975,98.8840849609804
171,282.623,2.100622149603808,98.89937785039619
172,285.492,4.085337383693428,98.91466261630657
173,288.360,2.0700602698974677,98.92993973010253
174,291.228,2.0547903429972223,98.94520965700278
175,294.094,4.039527143923252,98.96047285607675
176,296.959,2.024270219732543,98.97572978026746
177,299.823,5.009019123585517,98.99098087641448
178,302.685,2.9937734147231367,99.00622658527686
179,305.547,2.9785326584439247,99.02146734155608
180,308.408,2.9632964260810866,99.03670357391891
181,311.267,1.9480642949795595,99.05193570502044
182,314.126,2.93283584847309,99.06716415152691
183,316.983,2.917610675861283,99.08238932413872
184,319.839,1.902388372386696,99.0976116276133
185,322.694,1.8871685392118849,99.11283146078812
186,325.548,1.8719507833964855,99.12804921660351
187,328.401,2.8567347178743034,99.1432652821257
188,331.253,3.841519961430336,99.15848003856966
189,334.103,4.826306138677893,99.1736938613221
190,336.953,3.8110928800356447,99.18890711996436
191,339.801,3.795879821704645,99.20412017829536
192,342.649,3.7806666056455214,99.21933339435448
193,345.495,5.765452879555397,99.2345471204446
194,348.340,4.750238296845083,99.24976170315492
195,351.184,3.7350225166160556,99.26497748338394
196,354.027,3.7198052036376055,99.2801947963624
197,356.869,3.7045860283238596,99.29541397167614
198,359.709,2.689364666710844,99.31063533328916
199,362.549,3.6741408004335767,99.32585919956642
200,365.388,2.65891411670313,99.34108588329687
201,368.225,2.6436843082837242,99.35631569171628
202,371.061,0.6284510734697477,99.37154892653025
203,373.897,2.6132141160628493,99.38678588393715
204,376.731,2.5979731453490302,99.40202685465097
205,379.564,2.5827278760756798,99.41727212392432
206,382.396,2.567478028428681,99.43252197157132
207,385.227,3.5522233280094184,99.44777667199058
208,388.057,3.53696350581194,99.46303649418806
209,390.885,1.5216982981999507,99.47830170180005
210,393.713,2.5064274468838903,99.49357255311611
211,396.539,3.491150698898025,99.50884930110198
212,399.365,2.475867806577554,99.52413219342245
213,402.189,1.4605785275355743,99.53942147246443
214,405.012,2.4452826246402566,99.55471737535974
215,407.835,3.4299798659918537,99.57002013400815
216,410.656,1.4146700248997774,99.58532997510022
217,413.476,3.3993528798597055,99.6006471201403
218,416.295,3.384028214530602,99.6159717854694
219,419.112,3.3686958177118242,99.63130418228818
220,421.929,3.3533554833201435,99.64664451667986
221,424.745,0.0,99.6619929896331
222,427.559,2.322650202934966,99.67734979706503
223,430.373,3.307284870155911,99.69271512984409
224,433.185,3.2919108261870207,99.70808917381298
225,435.996,0.0,99.72347210981164
226,438.807,0.2611358862998685,99.73886411370013
227,441.616,1.2457346436184338,99.75426535638157
228,444.424,2.230323996174917,99.76967600382508
229,447.231,1.2149037829112785,99.78509621708872
230,450.037,3.1994738476576288,99.80052615234237
231,452.842,2.184034039109264,99.81596596089074
232,455.645,0.16858421080377184,99.83141578919623
233,458.448,2.1531242210981105,99.84687577890189
234,461.250,2.1376539331456286,99.86234606685437
235,464.050,0.12217321487320021,99.8778267851268
236,466.849,2.1066819389582463,99.89331806104175
237,469.648,3.091179982805798,99.9088200171942
238,472.445,2.0756672285256172,99.92433277147438
239,475.241,3.060143562909232,99.93985643709077
240,478.036,3.0446088774069864,99.95539112259301
241,480.830,2.0290630681051596,99.97093693189484
242,483.623,3.0135060357029886,99.98649396429701
243,486.415,2.9979376854897737,100.00206231451023
244,489.206,3.9823579273219423,100.01764207267806
245,491.996,0.0,100.03323332439993
246,494.784,3.9511638492460435,100.04883615075396
247,497.572,1.9355493716800254,100.06445062831997
248,500.358,4.919923170797617,100.08007682920238
249,503.144,3.90428517894685,100.09571482105315
250,505.928,1.8886353329053094,100.11136466709469
251,508.712,3.8729735738571947,100.1270264261428
252,511.494,4.857299847370371,100.14270015262963
253,514.275,4.841614103373445,100.15838589662656
254,517.055,3.8259162961328315,100.17408370386717
255,519.834,4.8102063842298435,100.18979361577016
256,522.612,1.7944843305377418,100.20551566946226
257,525.389,2.7787501021988135,100.22124989780119
258,528.165,2.763003670601421,100.23699632939858
259,530.940,3.7472450113571227,100.25275498864288
260,533.713,3.731474104277666,100.26852589572233
261,536.486,3.7156909333521355,100.28430906664786
262,539.257,4.69989548672396,100.30010451327604
263,542.028,3.684087756668049,100.31591224333195
264,544.797,4.668267739567781,100.33173226043222
265,547.566,2.65243543589213,100.34756456410787
266,550.333,4.636590850172709,100.36340914982729
267,553.099,3.6207339909808667,100.37926600901913
268,555.864,4.604864870904748,100.39513512909525
269,558.629,3.5889835065263327,100.41101649347367
270,561.392,2.573089918398537,100.42691008160146
271,564.154,1.557184131022268,100.44281586897773
272,566.915,3.5412661728235264,100.45873382717647
273,569.674,3.525336076130415,100.47466392386958
274,572.433,3.5093938771502735,100.49060612284973
275,575.191,1.4934396159466843,100.50656038405332
276,577.948,4.477473336416608,100.52252666358339
277,580.703,1.4614950862674192,100.53850491373258
278,583.458,0.0,100.55449508300606
279,586.211,1.4295028838555908,100.57049711614441
280,588.964,2.4134890458533818,100.58651095414662
281,591.715,2.3974634657070624,100.60253653429294
282,594.466,0.3814262098320853,100.61857379016791
283,597.215,0.0,100.63462265168322
284,599.963,4.349316954899365,100.65068304510064
285,602.710,2.3332451069450286,100.66675489305497
286,605.457,1.317161885423019,100.68283811457698
287,608.202,3.301067374883658,100.69893262511634
288,610.946,3.2849616634354817,100.71503833656452
289,613.689,1.2688448427222738,100.73115515727773
290,616.431,2.252717007900131,100.74728299209987
291,619.172,4.236578257614525,100.76342174238547
292,621.911,3.2204286939774107,100.77957130602259
293,624.650,0.0,100.79573157745573
294,627.388,2.1880975522911683,100.81190244770883
295,630.125,2.171916195591862,100.82808380440814
296,632.860,2.155724468194819,100.84427553180518
297,635.595,3.139522489200317,100.86047751079968
298,638.328,1.123310381037541,100.87668961896246
299,641.061,3.107088269441604,100.8929117305584
300,643.792,1.0908562834306252,100.90914371656937
301,646.523,0.07461455528282102,100.92538544471718
302,649.252,2.058363220513556,100.94163677948644
303,651.980,2.0421024178524476,100.95789758214755
304,654.708,2.025832289220361,100.97416771077964
305,657.434,2.0095529797065694,100.99044702029343
306,660.159,1.9932646375457637,101.00673536245424
307,662.883,1.976967414095128,101.02303258590487
308,665.606,0.9606614638114195,101.03933853618858
309,668.328,0.944346944228073,101.05565305577193
310,671.049,0.0,101.0719759840678
311,673.769,0.911692842541683,101.08830715745832
312,676.488,1.8953535906823191,101.10464640931768
313,679.206,0.8790064299647469,101.12099357003525
314,681.923,0.0,101.13734846703834
315,684.639,0.0,101.15371092481521
316,687.354,2.8299192350619933,101.170080764938
317,690.067,0.8135421939143157,101.18645780608568
318,692.780,0.0,101.20284186406691
319,695.492,1.7807672481570052,101.219232751843
320,698.202,2.7643697204491104,101.23563027955089
321,700.912,0.7479657454739765,101.25203425452602
322,703.621,0.7315555186747247,101.26844448132528
323,706.328,0.0,101.28486076174995
324,709.035,1.698717105131351,101.30128289486865
325,711.740,0.6822893229598321,101.31771067704017
326,714.444,0.0,101.33414390193654
327,717.148,1.6494176394341196,101.35058236056588
328,719.850,2.632974158704684,101.36702584129532
329,722.552,0.6165258701260115,101.38347412987399
330,725.252,2.6000729905441347,101.39992700945587
331,727.951,1.58361573937718,101.41638426062282
332,730.649,2.5671543385926014,101.4328456614074
333,733.347,2.550689012684103,101.4493109873159
334,736.043,4.534219988648786,101.46578001135121
335,738.738,6.51774749596423,101.48225250403577
336,741.432,5.501271766565509,101.49872823343449
337,744.125,4.484793034822317,101.51520696517768
338,746.817,4.468311537515973,101.53168846248403
339,749.508,2.4518275138165535,101.54817248618345
340,752.198,3.4353412052599452,101.56465879474005
341,754.887,1.4188528557248645,101.58114714427514
342,757.575,1.4023627114100208,101.59763728858998
343,760.262,2.385871020811095,101.6141289791889
344,762.948,0.3693780346978457,101.63062196530215
345,765.633,0.35288400609121595,101.64711599390878
346,768.317,0.0,101.66361080975966
347,770.999,3.3198938445996475,101.68010615540035
348,773.681,4.303398228805918,101.69660177119408
349,776.362,3.286902604655367,101.71309739534463
350,779.042,1.2704072360807004,101.7295927639193
351,781.720,0.0,101.74608761087178
352,784.398,0.0,101.76258166806518
353,787.075,1.2209253347051146,101.77907466529489
354,789.751,0.0,101.79556633031147
355,792.425,1.1879436111562711,101.81205638884373
356,795.099,1.171455435378519,101.82854456462148
357,797.771,0.0,101.8450305793986
358,800.443,0.13848584702412836,101.86151415297587
359,803.114,2.1220049967760133,101.87799500322399
360,805.783,2.1055271538935614,101.89447284610644
361,808.452,0.08905260429754946,101.91094739570245
362,811.119,3.072581635770092,101.92741836422991
363,813.786,2.0561145379317054,101.9438854620683
364,816.451,1.039651602218342,101.96034839778166
365,819.116,0.023193121858554377,101.97680687814145
366,821.779,1.0067393918504735,101.99326060814953
367,824.442,0.0,102.0097092910611
368,827.103,0.9738473715923988,102.0261526284076
369,829.763,0.9574096799803726,102.04259032001963
370,832.423,0.9409779359501016,102.0590220640499
371,835.081,0.9245524430037904,102.07544755699621
372,837.739,0.9081335062757177,102.09186649372428
373,840.395,0.8917214325092431,102.10827856749076
374,843.050,2.875316530033899,102.1246834699661
375,845.705,1.8589191087424553,102.14108089125754
376,848.358,2.842529480067981,102.15747051993202
377,851.010,0.8261479569609094,102.17385204303909
378,853.662,0.8097748538661733,102.19022514613383
379,856.312,1.7934104867001537,102.20658951329985
380,858.961,1.7770551728278718,102.22294482717213
381,861.610,0.0,102.23929076896003
382,864.257,0.7443729815298212,102.25562701847018
383,866.903,0.0,102.27195325412939
384,869.549,0.0,102.28826915300762
385,872.193,0.6954256091590878,102.30457439084091
386,874.836,3.679131357945707,102.3208686420543
387,877.478,2.6628484202153118,102.33715157978469
388,880.120,3.646577124096055,102.35342287590395
389,882.760,8.630317798958359,102.36968220104164
390,885.399,4.614070775391909,102.38592922460809
391,888.037,4.597836385182745,102.40216361481725
392,890.675,4.581614961290313,102.41838503870969
393,893.311,4.565406837824554,102.43459316217545
394,895.946,2.549212350022998,102.450787649977
395,898.580,2.5330318342277707,102.46696816577223
396,901.214,4.5168656278627,102.4831343721373
397,903.846,4.500714069410407,102.4992859305896
398,906.477,2.484577498389328,102.51542250161067
399,909.107,1.4684562553308211,102.53154374466918
400,911.737,2.4523506817562293,102.54764931824377
401,914.365,0.43626112015390106,102.5637388798461
402,916.992,0.42018791395635446,102.57981208604365
403,919.618,0.4041314075172693,102.59586859248273
404,922.244,0.0,102.61190805391143
405,924.868,0.0,102.62793012420245
406,927.491,0.35606554362385623,102.64393445637614
407,930.113,2.3400792973765903,102.65992070262341
408,932.735,3.324111485671466,102.67588851432853
409,935.355,0.0,102.6918375420923
410,937.974,0.29223256424526767,102.70776743575473
411,940.592,2.2763221555818234,102.72367784441818
412,943.210,0.0,102.7395684164701
413,945.826,0.24456120039383222,102.75543879960617
414,948.441,0.2287113591469847,102.77128864085302
415,951.056,1.2128824134086926,102.78711758659131
416,953.669,2.1970747174214154,102.80292528257858
417,956.281,1.181288626027765,102.81871137397223
418,958.893,1.1655244946475705,102.83447550535243
419,961.503,0.1497826792549688,102.85021732074503
420,964.112,1.1340635363554838,102.86593646364452
421,966.721,1.118367422963047,102.88163257703695
422,969.328,0.1026946965771458,102.89730530342285
423,971.935,0.08704571515977477,102.91295428484023
424,974.540,1.0714208371126688,102.92857916288733
425,977.144,1.0558204212541966,102.9441795787458
426,979.748,0.0,102.95975517320343
427,982.350,0.024694413322833952,102.97530558667717
428,984.952,0.009169540763963369,102.99083045923604
429,987.552,0.0,103.00632943062406
430,990.152,0.9781978597168006,103.0218021402832
431,992.750,0.0,103.03724822737628
432,995.348,0.0,103.0526673308099
433,997.944,0.0,103.06805908925743
434,1000.540,0.9165768588181606,103.08342314118184
435,1003.134,0.0,103.09875912485873
436,1005.728,0.0,103.1140666783992
437,1008.321,0.0,103.12934543977278
438,1010.912,0.0,103.1445950468304
439,1013.503,0.8401848626727144,103.15981513732729
440,1016.092,2.824994651054098,103.1750053489459
441,1018.681,0.0,103.1901653193189
442,1021.269,0.0,103.20529468605197
443,1023.856,0.7796069132530761,103.22039308674692
444,1026.441,0.0,103.23546015902444
445,1029.026,0.0,103.25049554054715
446,1031.610,0.7345011309575398,103.26549886904246
447,1034.193,0.0,103.28046978232558
448,1036.775,0.7045920816776601,103.29540791832234
449,1039.355,0.0,103.31031291509223
450,1041.935,0.0,103.32518441085125
451,1044.514,0.6599779560051076,103.34002204399489
452,1047.092,1.6451745468789767,103.35482545312102
453,1049.669,0.0,103.36959427705288
454,1052.245,0.6156718451380527,103.38432815486195
455,1054.820,0.6009732741091369,103.39902672589086
456,1057.394,0.5863103702235293,103.41368962977647
457,1059.967,1.5716834935274164,103.42831650647258
458,1062.539,3.5570930037269477,103.44290699627305
459,1065.110,2.54253926016537,103.45746073983463
460,1067.681,1.5280226218000905,103.47197737819991
461,1070.250,1.5135434471797424,103.48645655282026
462,1072.818,0.0,103.50089790557875
463,1075.385,1.4846989211868902,103.51530107881311
464,1077.951,1.470334284661405,103.5296657153386
465,1080.517,1.4560085415289876,103.54399145847101
466,1083.081,3.4417220479504493,103.55827795204955
467,1085.644,0.4274751595402364,103.57252484045976
468,1088.207,3.413268231343494,103.5867317686565
469,1090.768,5.39910161781313,103.60089838218687
470,1093.329,4.384975672786965,103.61502432721304
471,1095.888,4.370890749464678,103.62910925053532
472,1098.447,5.356847200384976,103.64315279961502
473,1101.004,3.342845377402597,103.6571546225974
474,1103.561,2.328885631665429,103.67111436833457
475,1106.116,0.0,103.68503168640845
476,1108.671,0.301093772846329,103.69890622715367
477,1111.225,2.2872623583194382,103.71273764168056
478,1113.777,0.0,103.72652558189803
479,1116.329,0.2597302994634987,103.7402697005365
480,1118.880,0.24603034882916575,103.75396965117083
481,1121.430,0.23237491175669334,103.7676250882433
482,1123.979,3.2187643329135085,103.78123566708649
483,1126.527,3.205198956053806,103.7948010439462
484,1129.074,2.1916791239955558,103.80832087600444
485,1131.620,2.1782051785976932,103.8217948214023
486,1134.165,3.1647774607370707,103.83522253926293
487,1136.709,4.151396310285591,103.84860368971441
488,1139.252,3.138062066087258,103.86193793391274
489,1141.794,6.124775065935253,103.87522493406475
490,1144.335,3.111535646549001,103.888464353451
491,1146.875,5.098344143551216,103.90165585644878
492,1149.415,3.085200891445055,103.91479910855494
493,1151.953,2.0721062235910352,103.92789377640896
494,1154.490,4.059060472184299,103.9409395278157
495,1157.027,3.0460639682314934,103.9539360317685
496,1159.562,2.033117041527987,103.96688295847201
497,1162.097,2.020220020634838,103.97977997936516
498,1164.630,3.0073732328559117,103.99262676714409
499,1167.163,3.9945770042149746,104.00542299578503
500,1169.695,2.9818316594327143,104.01816834056729
501,1172.225,2.9691375219038036,104.0308624780962
502,1174.755,0.0,104.04350508632598
503,1177.284,2.943904155417272,104.05609584458273
504,1179.812,2.9313655664127367,104.06863443358726
505,1182.338,2.918879464521794,104.0811205354782
506,1184.864,1.906446166165253,104.09355383383475
507,1187.389,3.894065986300319,104.10593401369968
508,1189.913,2.881739238397685,104.11826076160231
509,1192.436,4.869466234418638,104.13053376558136
510,1194.959,4.857247284792081,104.14275271520792
511,1197.480,5.8450826983916215,104.15491730160838
512,1200.000,7.832972782512655,104.16702721748734
513,1202.519,5.820917842849411,104.17908215715059
514,1205.038,7.808918183472031,104.19108181652797
515,1207.555,7.7969741068036456,104.20302589319635
516,1210.071,7.785085913597442,104.21491408640256
517,1212.587,5.773253902913723,104.22674609708628
518,1215.101,3.761478372096988,104.23852162790301
519,1217.615,5.749759616752996,104.250240383247
520,1220.128,4.738097930725843,104.26190206927416
521,1222.639,4.7264936060750244,104.27350639392498
522,1225.150,2.7149469330525022,104.2850530669475
523,1227.660,7.703458200079766,104.29654179992023
524,1230.169,6.6920276937249525,104.30797230627505
525,1232.677,8.680655698679857,104.31934430132014
526,1235.184,6.66934249773702,104.33065750226298
527,1237.690,8.658088371766794,104.3419116282332
528,1240.195,6.646893599694451,104.35310640030555
529,1242.699,4.635758458477184,104.36424154152282
530,1245.202,7.6246832230812345,104.37531677691877
531,1247.704,4.6136681664589645,104.38633183354104
532,1250.206,6.602713559525839,104.39728644047416
533,1252.706,5.591819671137628,104.40818032886237
534,1255.206,3.580986768067362,104.41901323193264
535,1257.704,7.570215114982474,104.42978488501753
536,1260.202,6.559504974421827,104.44049502557817
537,1262.698,8.548856606772787,104.45114339322721
538,1265.194,6.538270270248361,104.46172972975164
539,1267.689,9.527746220864145,104.47225377913585
540,1270.183,7.5172847124154885,104.48271528758451
541,1272.676,9.506885996454542,104.49311400354546
542,1275.168,9.496550322267296,104.5034496777327
543,1277.659,12.486277936850698,104.5137220631493
544,1280.149,13.476069084889687,104.52393091511031
545,1282.638,12.465924008734262,104.53407599126574
546,1285.126,12.455842948376585,104.54415705162342
547,1287.613,11.445826141428029,104.55417385857197
548,1290.100,10.43587382309623,104.56412617690377
549,1292.585,9.42598622616218,104.57401377383782
550,1295.070,7.416163580957303,104.5838364190427
551,1297.553,7.406406115340502,104.5935938846595
552,1300.036,6.396714054675243,104.60328594532476
553,1302.517,8.387087621806643,104.61291237819336
554,1304.998,7.377527037038448,104.62247296296155
555,1307.478,8.368032518110255,104.63196748188975
556,1309.957,10.358604280174447,104.64139571982555
557,1312.435,14.349242535773357,104.65075746422664
558,1314.912,14.339947494816244,104.66005250518376
559,1317.388,14.33071936455643,104.66928063544357
560,1319.863,13.321558349568392,104.67844165043161
561,1322.337,17.312464651724753,104.68753534827525
562,1324.811,11.30343847017339,104.69656152982661
563,1327.283,13.294480001314525,104.70551999868547
564,1329.755,15.285589438777777,104.71441056122222
565,1332.225,14.27676697339922,104.72323302660078
566,1334.695,13.268012793198437,104.73198720680156
567,1337.163,14.259327083355657,104.74067291664434
568,1339.631,13.250710026188756,104.74928997381124
569,1342.098,18.24216180113038,104.75783819886962
570,1344.564,18.23368258470495,104.76631741529505
571,1347.029,18.225272550505807,104.7747274494942
572,1349.493,19.216931869172186,104.78306813082781
573,1351.956,22.208660708366438,104.79133929163356
574,1354.418,24.2004592327509,104.7995407672491
575,1356.880,21.19232760396514,104.80767239603486
576,1359.340,19.184265980602945,104.81573401939706
577,1361.800,19.176274518189373,104.82372548181063
578,1364.258,18.168353369157884,104.83164663084212
579,1366.716,14.160502682827342,104.83949731717266
580,1369.172,14.152722605379182,104.84727739462082
581,1371.628,10.14501327983433,104.85498672016567
582,1374.083,9.13737484603044,104.86262515396956
583,1376.537,7.1298074405988245,104.87019255940118
584,1378.990,7.122311196941624,104.87768880305838
585,1381.442,7.114886245208808,104.88511375479119
586,1383.893,4.107532712275301,104.8924672877247
587,1386.344,4.100250721717998,104.899749278282
588,1388.793,6.093040393792876,104.90695960620712
589,1391.241,6.085901845412025,104.91409815458798
590,1393.689,6.0788351901207704,104.92116480987923
591,1396.135,5.071840538074667,104.92815946192533
592,1398.581,5.064917996016689,104.93508200398331
593,1401.026,6.058067667254136,104.94193233274586
594,1403.470,2.051289651635855,104.94871034836414
595,1405.913,5.04458404552922,104.95541595447078
596,1408.355,6.03795094179722,104.96204905820278
597,1410.796,3.03139042977557,104.96860957022443
598,1413.236,3.0249025952496993,104.9750974047503
599,1415.675,3.0184875204319184,104.98151247956808
600,1418.114,3.012145283938395,104.9878547160616
601,1420.551,3.0058759607663035,104.9941240392337
602,1422.988,4.999679622270804,105.0003203777292
603,1425.423,3.993556336142248,105.00644366385775
604,1427.858,6.987506166383099,105.0124938336169
605,1430.292,2.9815291732850966,105.0184708267149
606,1432.725,4.975625413406306,105.0243745865937
607,1435.157,5.9697949395481515,105.03020506045185
608,1437.588,6.964037800732541,105.03596219926746
609,1440.018,7.958354042178911,105.04164595782109
610,1442.447,8.95274370528125,105.04725629471875
611,1444.876,6.947206827585319,105.05279317241468
612,1447.303,7.941743442765485,105.05825655723451
613,1449.730,7.9363535806020025,105.063646419398
614,1452.156,6.931037266957986,105.06896273304201
615,1454.580,9.92579452375648,105.07420547624352
616,1457.004,10.920625368957559,105.07937463104244
617,1459.427,10.915529816535383,105.08447018346462
618,1461.849,12.910507876455256,105.08949212354474
619,1464.270,11.905559554650708,105.09444044534929
620,1466.690,7.900684853000556,105.09931514699944
621,1469.110,7.89588376930601,105.10411623069399
622,1471.528,5.891156297267656,105.10884370273234
623,1473.946,4.88650242646267,105.11349757353733
624,1476.362,4.881922142321699,105.1180778576783
625,1478.778,3.877415426106097,105.1225845738939
626,1481.193,0.8729822548849029,105.1270177451151
627,1483.607,3.8686226015119445,105.13137739848806
628,1486.020,4.864336434602919,105.13566356539708
629,1488.432,0.8601237185123978,105.1398762814876
630,1490.843,1.8559844133109635,105.14401558668904
631,1493.253,0.8519184747623001,105.1480815252377
632,1495.663,3.8479258543001578,105.15207414569984
633,1498.071,1.8440064990054879,105.15599350099451
634,1500.479,2.840160351583563,105.15983964841644
635,1502.886,0.0,105.16361264965906
636,1505.292,0.8326874291626325,105.16731257083737
637,1507.697,1.8290605174890828,105.17093948251092
638,1510.101,0.0,105.17449345970671
639,1512.504,1.8220254180578905,105.17797458194211
640,1514.906,0.8186170667521964,105.1813829332478
641,1517.307,1.8152813978092581,105.18471860219074
642,1519.708,2.812018318102986,105.18798168189701
643,1522.107,0.0,105.19117227007484
644,1524.506,0.8057095309625026,105.1942904690375
645,1526.904,0.0,105.19733638572617
646,1529.301,1.799689868266995,105.200310131733
647,1531.697,2.796788176676074,105.20321182332393
648,1534.092,0.7939584185383808,105.20604158146162
649,1536.486,4.791200468171496,105.2087995318285
650,1538.879,3.788514195150441,105.21148580484956
651,1541.272,3.785899464284654,105.21410053571535
652,1543.663,4.783356135595085,105.21664386440492
653,1546.054,0.7808840642912998,105.2191159357087
654,1548.444,1.7784831007485309,105.22151689925147
655,1550.832,1.776153090484712,105.22384690951529
656,1553.220,3.7738938741375847,105.22610612586242
657,1555.607,0.7717052874417902,105.22829471255821
658,1557.994,1.7695871612058482,105.23041283879415
659,1560.379,1.767539321289334,105.23246067871067
660,1562.763,0.7655615885798994,105.2344384114201
661,1565.147,1.7636537789703084,105.23634622102969
662,1567.529,2.761815703335614,105.23818429666439
663,1569.911,0.7600471675100522,105.23995283248995
664,1572.292,0.0,105.24165202773573
665,1574.672,0.7567179132824009,105.2432820867176
666,1577.051,2.7551567811389646,105.24484321886104
667,1579.429,3.7536643612761083,105.24633563872389
668,1581.807,2.752240433980603,105.2477595660194
669,1584.183,1.7508847743609124,105.24911522563909
670,1586.559,1.7495971523242986,105.2504028476757
671,1588.933,1.7483773325538436,105.25162266744616
672,1591.307,1.7472250744855558,105.25277492551444
673,1593.680,1.7461401322854329,105.25385986771457
674,1596.052,1.745122254826498,105.2548777451735
675,1598.423,2.7441711856659197,105.25582881433408
676,1600.794,1.7432866630220474,105.25671333697795
677,1603.163,2.7424684197515035,105.2575315802485
678,1605.531,1.7417161833262327,105.25828381667377
679,1607.899,0.0,105.25897032418943
680,1610.266,2.7404086138383548,105.25959138616165
681,1612.632,2.739852708589922,105.26014729141008
682,1614.997,1.739361665769266,105.26063833423073
683,1617.361,0.7389351855809991,105.261064814419
684,1619.724,0.0,105.26142703729248
685,1622.086,0.7382746862860472,105.26172531371395
686,1624.448,0.0,105.26195996011431
687,1626.808,0.0,105.2621312985155
688,1629.168,0.0,105.26223965655343
689,1631.527,0.7377146324990491,105.26228536750095
690,1633.885,2.7377312297093113,105.26226877029069
691,1636.242,1.737809790461938,105.26219020953806
692,1638.598,0.0,105.2620500355642
693,1640.954,2.7381513955811982,105.2618486044188
694,1643.308,0.7384137220968086,105.26158627790319
695,1645.662,0.0,105.26126342359314
696,1648.014,1.7391195851381696,105.26088041486183
697,1650.366,0.0,105.26043763090281
698,1652.717,0.7400645432471009,105.2599354567529
699,1655.067,1.740625716684903,105.2593742833151
700,1657.417,0.0,105.25875450738158
701,1659.765,0.0,105.2580765316566
702,1662.112,0.0,105.25734076477936
703,1664.459,1.7434523786529894,105.25654762134701
704,1666.805,0.0,105.25569752193755
705,1669.150,1.745209106867165,105.25479089313284
706,1671.494,0.746171832458657,105.25382816754134
707,1673.837,0.0,105.25280978382128
708,1676.179,0.7482638132966031,105.2517361867034
709,1678.520,1.7493921729860773,105.25060782701392
710,1680.861,0.7505748383024127,105.24942516169759
711,1683.201,2.7518113461595135,105.24818865384049
712,1685.539,1.7531012273070132,105.24689877269299
713,1687.877,1.7544440063073097,105.24555599369269
714,1690.214,0.7558392015126003,105.2441607984874
715,1692.551,0.7572863250420312,105.24271367495797
716,1694.886,0.7587848827587038,105.2412151172413
717,1697.220,0.7603343742467814,105.23966562575322
718,1699.554,0.0,105.23806570721146
719,1701.887,0.7635841253413815,105.23641587465862
720,1704.219,2.765283352515084,105.23471664748492
721,1706.550,0.0,105.23296855145138
722,1708.880,0.76882788128745,105.23117211871255
723,1711.209,0.7706721121604829,105.22932788783952
724,1713.537,1.7725635961570987,105.2274364038429
725,1715.865,0.7745017818043323,105.22549821819567
726,1718.192,0.0,105.22351388885613
727,1720.518,1.778516019709187,105.22148398029081
728,1722.843,3.78059093650252,105.21940906349748
729,1725.167,0.0,105.21728971602799
730,1727.490,0.0,105.21512652201126
731,1729.812,1.7870799278237968,105.2129200721762
732,1732.134,1.7893290361253804,105.21067096387462
733,1734.455,0.0,105.20837980110414
734,1736.774,1.7939528054688054,105.2060471945312
735,1739.093,1.796326238486131,105.20367376151387
736,1741.411,0.0,105.20126012612494
737,1743.729,1.8011930808252856,105.19880691917471
738,1746.045,0.8036852217659884,105.19631477823401
739,1748.361,1.8062156523429849,105.19378434765702
740,1750.675,0.0,105.19121627860434
741,1752.989,0.8113887709341725,105.18861122906583
742,1755.302,0.8140301361164575,105.18596986388354
743,1757.614,0.0,105.18329285477472
744,1759.925,0.8194191196453318,105.18058088035467
745,1762.236,1.822165373840349,105.17783462615965
746,1764.545,0.0,105.17505478466991
747,1766.854,1.8277579446674395,105.17224205533256
748,1769.162,0.0,105.16939714458448
749,1771.469,2.8334792341246953,105.1665207658753
750,1773.775,1.8363863603097172,105.16361363969028
751,1776.080,1.8393235064266662,105.16067649357333
752,1778.385,0.8422899378501967,105.1577100621498
753,1780.688,0.8452849128504738,105.15471508714953
754,1782.991,0.848307682570308,105.15169231742969
755,1785.293,1.8513574910021475,105.14864250899785
756,1787.594,1.8544335749652703,105.14556642503473
757,1789.894,0.8575351640826909,105.14246483591731
758,1792.193,0.8606614807584378,105.13933851924156
759,1794.492,2.8638117401544463,105.13618825984555
760,1796.789,0.8669851501676931,105.1330148498323
761,1799.086,0.0,105.12981908859273
762,1801.382,0.0,105.12660178282854
763,1803.677,1.876636253424735,105.12336374657527
764,1805.971,1.8798941987749913,105.12010580122501
765,1808.265,0.0,105.11682877554959
766,1810.557,1.8864664942767035,105.1135335057233
767,1812.849,0.8897791646540725,105.11022083534593
768,1815.140,0.0,105.10689161546568
769,1817.430,0.8964532953978903,105.10354670460211
770,1819.719,0.8998130312310195,105.10018696876898
771,1822.007,2.9031867185026954,105.0968132814973
772,1824.295,3.906573476141844,105.09342652385816
773,1826.581,0.0,105.09002758448574
774,1828.867,2.913382640399803,105.0866173596002
775,1831.152,1.9168032469693799,105.08319675303062
776,1833.436,0.9202333237620905,105.07976667623791
777,1835.719,0.9236719516622003,105.0763280483378
778,1838.002,2.9271182038763754,105.07288179612362
779,1840.283,0.9305711459105481,105.06942885408945
780,1842.564,0.0,105.06597016445292
781,1844.844,2.937493322821865,105.06250667717813
782,1847.123,1.9409606500013865,105.05903934999861
783,1849.401,0.0,105.05556914844027
784,1851.678,1.9479029541557367,105.05209704584426
785,1853.955,0.9513759766099668,105.04862402339003
786,1856.231,1.9548489298818907,105.04515107011811
787,1858.506,1.9583208170468538,105.04167918295315
788,1860.780,0.0,105.03820936672683
789,1863.053,0.0,105.0347426342007
790,1865.325,2.968719993910753,105.03128000608925
791,1867.597,2.972177488917282,105.02782251108272
792,1869.867,0.9756288141298768,105.02437118587012
793,1872.137,2.9790729248378653,105.02092707516213
794,1874.406,0.0,105.01749123171402
795,1876.674,2.985935283651486,105.01406471634851
796,1878.941,0.9893514020210716,105.01064859797893
797,1881.208,2.9927560463682,105.0072439536318
798,1883.473,1.9961481315298926,105.00385186847011
799,1885.738,1.9995265641839666,105.00047343581603
800,1888.002,0.0028902428260551005,104.99710975717394
801,1890.265,2.0062380577466996,104.9937619422533
802,1892.528,0.009568891008413516,104.99043110899159
803,1894.789,2.01288161642276,104.98711838357724
804,1897.050,4.0161750995273025,104.9838249004727
805,1899.310,2.0194481975628946,104.9805518024371
806,1901.569,2.0226997594505747,104.97730024054943
807,1903.827,2.025928625768671,104.97407137423133
808,1906.084,2.0291336287299657,104.97086637127003
809,1908.340,2.03231359215863,104.96768640784137
810,1910.596,1.0354673314674017,104.9645326685326
811,1912.851,2.0385936536345497,104.96140634636545
812,1915.105,1.041691357181051,104.95830864281895
813,1917.358,3.0447592321475554,104.95524076785244
814,1919.610,1.0477960600716045,104.9522039399284
815,1921.862,2.050800613964526,104.94919938603547
816,1924.113,3.0537716582886105,104.94622834171139
817,1926.362,1.0567079489342035,104.9432920510658
818,1928.611,1.0596082331966272,104.94039176680337
819,1930.860,2.0624712497534006,104.9375287502466
820,1933.107,2.065295728641317,104.93470427135868
821,1935.353,1.0680803912333516,104.93191960876665
822,1937.599,4.070823950215953,104.92917604978405
823,1939.844,0.0,104.92647489043414
824,1942.088,2.0761825645274286,104.92381743547257
825,1944.331,2.0787950015894694,104.92120499841053
826,1946.574,3.0813610984625086,104.91863890153749
827,1948.815,0.08387952405576016,104.91612047594424
828,1951.056,0.08634893845420777,104.91365106154579
829,1953.296,2.08876799289564,104.91123200710436
830,1955.535,1.0911353297478428,104.90886467025216
831,1957.773,3.0934495824854764,104.90655041751452
832,1960.011,2.095709375667326,104.90429062433267
833,1962.248,0.09791332491325022,104.90208667508675
834,1964.483,0.10006003688140197,104.8999399631186
835,1966.718,2.1021481092450642,104.89785189075494
836,1968.953,1.104176130669913,104.89582386933009
837,1971.186,2.1061426807910095,104.89385731920899
838,1973.418,1.108046330189893,104.8919536698101
839,1975.650,5.109885640371658,104.89011435962834
840,1977.881,2.1116591637420186,104.88834083625798
841,1980.111,0.0,104.88663455641571
842,1982.340,2.1150030140365885,104.88499698596341
843,1984.569,1.1165704000688237,104.88342959993118
844,1986.797,1.1180661174598328,104.88193388254017
845,1989.023,3.1194886727744375,104.88051132722556
846,1991.249,2.12083656334039,104.87916343665961
847,1993.474,2.1221082772255784,104.87789172277442
848,1995.699,2.123302293215076,104.87669770678492
849,1997.922,2.124417080788163,104.87558291921184
850,2000.145,2.125451100095461,104.87454889990454
851,2002.367,4.1264028019359245,104.87359719806408
852,2004.588,5.127270627734006,104.872729372266
853,2006.808,2.1280530095165915,104.87194699048341
854,2009.028,2.1287483698902463,104.87125163010975
855,2011.246,3.129355122018083,104.87064487798192
856,2013.464,3.129871669597037,104.87012833040296
857,2015.681,2.130296406834745,104.86970359316526
858,2017.898,2.130627718426794,104.8693722815732
859,2020.113,3.1308639795336717,104.86913602046633
860,2022.328,3.131003555757829,104.86899644424217
861,2024.541,3.131044803120787,104.86895519687921
862,2026.754,3.1309860680402437,104.86901393195976
863,2028.966,2.1308256873070945,104.8691743126929
864,2031.178,3.130561988062567,104.86943801193743
865,2033.388,0.1301932877751426,104.86980671222486
866,2035.598,4.129717894217777,104.87028210578222
867,2037.807,0.1291341054449049,104.8708658945551
868,2040.015,3.1284402097694795,104.87155979023052
869,2042.222,2.1276344857401313,104.87236551425987
870,2044.429,3.1267152021181914,104.87328479788181
871,2046.634,2.125680617854769,104.87431938214523
872,2048.839,2.12452898206773,104.87547101793227
873,2051.043,2.1232585340189303,104.87674146598107
874,2053.247,1.1218675030910958,104.8781324969089
875,2055.449,3.1203541087651985,104.8796458912348
876,2057.651,2.1187165605970364,104.88128343940296
877,2059.851,0.11695305819490898,104.88304694180509
878,2062.052,2.1150617911961263,104.88493820880387
879,2064.251,3.113040939244428,104.88695906075557
880,2066.449,2.110888671966876,104.88911132803312
881,2068.647,3.108603148951147,104.89139685104885
882,2070.844,1.1061825197222532,104.89381748027775
883,2073.040,3.103624923719991,104.89637507628001
884,2075.235,1.1009284902756633,104.89907150972434
885,2077.429,3.098091338589441,104.90190866141056
886,2079.623,3.095111577707243,104.90488842229276
887,2081.815,2.0919873064978702,104.90801269350213
888,2084.007,3.088716613630069,104.91128338636993
889,2086.199,3.0852975775497242,104.91470242245028
890,2088.389,2.0817282664565937,104.9182717335434
891,2090.579,2.0780067382818004,104.9219932617182
892,2092.767,3.0741310406645255,104.92586895933547
893,2094.955,4.070099210929328,104.92990078907067
894,2097.143,3.065909276063195,104.9340907239368
895,2099.329,2.061559252692504,104.9384407473075
896,2101.514,4.057047147060047,104.94295285293995
897,2103.699,2.0523709550023455,104.94762904499765
898,2105.883,2.0475286619264637,104.95247133807354
899,2108.066,2.0425182427871533,104.95748175721285
900,2110.249,5.037337662064104,104.9626623379359
901,2112.430,3.031984873738722,104.96801512626128
902,2114.611,3.0264578212713786,104.97354217872862
903,2116.791,4.020754437578489,104.97924556242151
904,2118.970,4.014872645009419,104.98512735499058
905,2121.149,3.008810355323746,104.99118964467625
906,2123.326,1.0025654696682977,104.9974345303317
907,2125.503,3.9961358785540426,105.00386412144596
908,2127.679,1.9895194618334386,105.01048053816656
909,2129.854,3.9827140886772554,105.01728591132274
910,2132.029,3.9757176175517657,105.02428238244823
911,2134.202,1.9685278961957948,105.0314721038042
912,2136.375,0.9611427615977703,105.03885723840223
913,2138.547,2.953560039972828,105.04643996002717
914,2140.718,2.9457775467399756,105.05422245326002
915,2142.889,3.937793086498857,105.06220691350114
916,2145.058,0.9296044530071157,105.07039554699288
917,2147.227,1.9212094291573578,105.07879057084264
918,2149.395,2.912605786954188,105.08739421304581
919,2151.563,0.0,105.09620871250863
920,2153.729,3.894763680928861,105.10523631907114
921,2155.895,2.8855207064698476,105.11447929353015
922,2158.060,1.8760600923377666,105.12393990766223
923,2160.224,1.8663795557534968,105.1336204442465
924,2162.387,3.856476802912354,105.14352319708765
925,2164.550,1.8463495289612553,105.15365047103874
926,2166.711,0.835995417975596,105.1640045820244
927,2168.872,2.825412142936557,105.17458785706344
928,2171.033,3.8145973657079253,105.18540263429207
929,2173.192,4.8035487370133865,105.19645126298661
930,2175.351,1.7922638964134592,105.20773610358654
931,2177.508,1.7807404722826448,105.21925952771736
932,2179.665,0.7689760817863771,105.23102391821362
933,2181.822,3.7569683308583137,105.24303166914169
934,2183.977,1.744714814177101,105.2552851858229
935,2186.132,3.732213115143736,105.26778688485626
936,2188.285,2.7194608058584038,105.2805391941416
937,2190.439,2.7064554470976816,105.29354455290232
938,2192.591,2.693194588291675,105.30680541170832
939,2194.742,2.679675767500882,105.32032423249912
940,2196.893,0.6658965113933988,105.3341034886066
941,2199.043,0.6518543352219837,105.34814566477802
942,2201.192,1.6375467428010637,105.36245325719894
943,2203.341,2.6229712264837985,105.3770287735162
944,2205.488,1.6081252671393713,105.39187473286063
945,2207.635,1.5930063341297398,105.40699366587026
946,2209.781,2.577611885286899,105.4223881147131
947,2211.926,1.5619393668898596,105.43806063311014
948,2214.071,1.5459862136417826,105.45401378635822
949,2216.214,2.5297498486470147,105.47025015135299
950,2218.357,2.5132276833882656,105.48677231661173
951,2220.499,2.4964171177033876,105.50358288229661
952,2222.641,5.479315539762851,105.52068446023715
953,2224.781,5.461920326046453,105.53807967395355
954,2226.921,3.4442288413206086,105.55577115867939
955,2229.060,5.426238438615243,105.57376156138476
956,2231.198,2.407946459201156,105.59205354079884
957,2233.336,3.3893502325666702,105.61064976743333
958,2235.472,0.3704470763951804,105.62955292360482
959,2237.608,1.3512342965417616,105.64876570345824
960,2239.743,2.3317091870105315,105.66829081298947
961,2241.878,0.3118690299316711,105.68813097006833
962,2244.011,3.291711095538389,105.70828890446161
963,2246.144,0.2712326421441986,105.7287673578558
964,2248.276,1.2504309161196687,105.74956908388033
965,2250.407,4.229303151869857,105.77069684813014
966,2252.538,2.2078465718110607,105.79215342818894
967,2254.667,1.1860583863480372,105.81394161365196
968,2256.796,4.163935793851223,105.83606420614878
969,2258.924,4.141475980633487,105.85852401936651
970,2261.052,3.1186761209273897,105.88132387907261
971,2263.178,3.0955333768622637,105.90446662313774
972,2265.304,6.072044898441149,105.92795510155885
973,2267.429,1.0482078235180268,105.95179217648197
974,2269.553,4.024019277774812,105.97598072222519
975,2271.677,3.999476374698446,106.00052362530155
976,2273.800,1.974576215557903,106.0254237844421
977,2275.921,3.949315889381282,106.05068411061872
978,2278.043,1.92369247293297,106.07630752706703
979,2280.163,1.8977030306904794,106.10229696930952
980,2282.283,2.871344614821979,106.12865538517802
981,2284.401,0.0,106.15538573483728
982,2286.520,1.8175090091927188,106.18249099080728
983,2288.637,3.790025862013394,106.2099741379866
984,2290.753,0.7621618263248564,106.23783817367514
985,2292.869,0.7339138924028816,106.26608610759712
986,2294.984,0.0,106.29472096192391
987,2297.098,1.6762542287028595,106.32374577129714
988,2299.212,0.646836417148549,106.35316358285145
989,2301.325,3.6170225437624737,106.38297745623753
990,2303.437,1.5868095363549486,106.41319046364505
991,2305.548,3.55619431017449,106.44380568982551
992,2307.658,1.5251737678848087,106.47482623211519
993,2309.768,0.49374479954175854,106.50625520045824
994,2311.877,1.4619042825706572,106.53809571742934
995,2313.985,1.4296490817431504,106.57035091825685
996,2316.092,0.3969760491543326,106.60302395084567
997,2318.199,0.3638820241999241,106.63611797580008
998,2320.304,0.33036383355315024,106.66963616644685
999,2322.409,1.296418291142004,106.703581708858
1000,2324.514,3.262042198126153,106.73795780187385
1001,2326.617,0.0,106.77276765712585
1002,2328.720,1.1919855009403193,106.80801449905968
1003,2330.822,0.1562984350421459,106.84370156495785
1004,2332.923,3.120167895036886,106.87983210496311
1005,2335.024,1.0835906178991053,106.9164093821009
1006,2337.123,3.0465633276973847,106.95343667230262
1007,2339.222,0.009082735571638523,106.99091726442836
1008,2341.320,0.9711455397100224,107.02885446028998
1009,2343.418,0.0,107.06725157467388
1010,2345.514,2.893888064635888,107.10611193536411
1011,2347.610,0.0,107.14543888316513
1012,2349.705,0.0,107.18523577192485
1013,2351.800,0.7744940314424724,107.22550596855753
1014,2353.893,0.733747146933311,107.26625285306669
1015,2355.986,1.6925201814319166,107.30747981856808
1016,2358.078,0.6508097286873635,107.34919027131264
1017,2360.170,0.6086123692908245,107.39138763070918
1018,2362.260,1.565924670652194,107.4340753293478
1019,2364.350,1.5227431869776922,107.47725681302231
1020,2366.439,0.0,107.52093554075347
1021,2368.527,2.4348850151881862,107.56511498481181
1022,2370.615,3.390201369259401,107.6097986307406
1023,2372.702,3.3450100226212953,107.6549899773787
