# kind,background_subtracted
# version_label,v1_08
# poly_order,5
# iterations_run,7
pixel_index,raman_shift_cm-1,intensity,background_intensity
0,-224.846,1.2856666558903527,96.71433334410965
1,-221.778,1.2808778961234424,96.71912210387656
2,-218.712,1.2760925655991713,96.72390743440083
3,-215.647,1.2713106119037008,96.7286893880963
4,-212.583,3.2665319833303244,96.73346801666968
5,-209.521,0.2617566288771087,96.73824337112289
6,-206.460,2.2569844982446057,96.7430155017554
7,-203.399,1.2522155418335643,96.74778445816644
8,-200.340,1.2474497107425577,96.75255028925744
9,-197.283,1.242686956765752,96.75731304323425
10,-194.226,2.2379272323905326,96.76207276760947
11,-191.171,1.2331704907952314,96.76682950920477
12,-188.116,2.228416685846824,96.77158331415318
13,-185.064,1.2236657720985846,96.77633422790142
14,-182.012,2.218917704787799,96.7810822952122
15,-178.961,0.21417243983344747,96.78582756016655
16,-175.912,0.20942993383391695,96.79057006616608
17,-172.864,2.2046901440646707,96.79530985593533
18,-169.817,0.19995302847591745,96.80004697152408
19,-166.771,1.1952185456903806,96.80478145430962
20,-163.726,0.1904866550008819,96.80951334499912
21,-160.683,1.1857573163681252,96.81424268363187
22,-157.641,0.18103049041832264,96.81896950958168
23,-154.600,3.1763061384409497,96.82369386155905
24,-151.560,1.1715842223863433,96.82841577761366
25,-148.521,2.1668647048634853,96.83313529513651
26,-145.484,0.16214754913765717,96.83785245086234
27,-142.447,0.15743271912810997,96.84256728087189
28,-139.412,2.1527201794057618,96.84727982059424
29,-136.379,2.1480098951909525,96.85199010480905
30,-133.346,0.14330183235102822,96.85669816764897
31,-130.314,1.1385959573981097,96.86140404260189
32,-127.284,2.133892237486748,96.86610776251325
33,-124.255,1.1291906404116503,96.87080935958835
34,-121.227,0.0,96.87550886539466
35,-118.200,0.0,96.8802063108642
36,-115.175,2.115098273704305,96.8849017262957
37,-112.150,0.11040485864296556,96.88959514135703
38,-109.127,0.10571341491250053,96.8942865850875
39,-106.105,0.10102391409991185,96.89897608590009
40,-103.084,2.096336328416129,96.90366367158387
41,-100.065,0.09165063069377766,96.90834936930622
42,-97.046,3.0869667943848356,96.91303320561516
43,-94.029,0.08228479355830132,96.9177152064417
44,-91.013,1.0776046028978925,96.92239539710211
45,-87.998,0.07292619769978614,96.92707380230021
46,-84.984,0.06824955387023124,96.93175044612977
47,-81.972,0.06357464792330347,96.9364253520767
48,-78.960,2.058901456978546,96.94109854302145
49,-75.950,0.05422995875873937,96.94577004124126
50,-72.941,0.049560131587469414,96.95043986841253
51,-69.933,2.044891954386941,96.95510804561306
52,-66.927,1.0402254066755745,96.95977459332443
53,-63.921,1.0355604685657767,96.96443953143422
54,-60.917,4.030897120761551,96.96910287923845
55,-57.914,2.0262353445562695,96.97376465544373
56,-54.912,1.0215751218302813,96.97842487816972
57,-51.911,0.01691643504867102,96.98308356495133
58,-48.912,2.0122592672589263,96.98774073274107
59,-45.913,1.0076036020886079,96.99239639791139
60,-42.916,0.0,96.99705057625694
61,-39.920,0.9982967170031287,97.00170328299687
62,-36.925,0.0,97.00635453277722
63,-33.931,1.9889956603268644,97.01100433967314
64,-30.939,2.9843472828087556,97.01565271719124
65,-27.947,4.979700321728075,97.02029967827193
66,-24.957,4.975054764708375,97.02494523529163
67,-21.968,1.9704105999347945,97.0295894000652
68,-18.980,0.0,97.03423218384818
69,-15.993,1.9611264026609092,97.03887359733909
70,-13.008,0.0,97.04351365068177
71,-10.023,0.0,97.04815235346771
72,-7.040,0.9472102852617041,97.0527897147383
73,-4.058,0.9425742570128506,97.05742574298715
74,-1.077,0.0,97.06206044616249
75,1.903,0.0,97.06669383166934
76,4.881,0.9286740936280893,97.07132590637191
77,7.859,0.9240433234041063,97.0759566765959
78,10.835,1.919413851869237,97.08058614813076
79,13.810,1.9147856737679234,97.08521432623208
80,16.784,1.9101587843761791,97.08984121562382
81,19.757,1.905533179499315,97.09446682050068
82,22.728,0.9009088554696234,97.09909114453038
83,25.699,0.0,97.10371419085594
84,28.668,1.8916640379019611,97.10833596209804
85,31.636,0.8870435396426615,97.11295646035734
86,34.603,0.0,97.11757568721671
87,37.569,0.0,97.12219364374364
88,40.534,0.0,97.12681033049246
89,43.497,0.8685742524933033,97.1314257475067
90,46.460,0.8639601056786006,97.1360398943214
91,49.421,1.859347230034615,97.14065276996539
92,52.381,1.8547356270363906,97.14526437296361
93,55.340,1.8501252986605436,97.14987470133946
94,58.297,0.8455162473829603,97.15448375261704
95,61.254,1.8409084761764802,97.15909152382352
96,64.209,0.0,97.16369801149138
97,67.164,1.8316967883391726,97.16830321166083
98,70.117,0.8270928801180304,97.17290711988197
99,73.069,0.8224902687827296,97.17750973121727
100,76.020,0.8178889597562886,97.18211104024371
101,78.969,0.8132889589447814,97.18671104105522
102,81.918,0.0,97.19130972726494
103,84.865,0.8040929079925263,97.19590709200747
104,87.811,0.7994968720586826,97.20050312794132
105,90.757,1.7949021727489196,97.20509782725108
106,93.700,2.790308818350198,97.2096911816498
107,96.643,0.7857168176187059,97.2142831823813
108,99.585,1.7811261797775728,97.21887382022243
109,102.525,0.7765369145145371,97.22346308548546
110,105.465,1.7719490319796876,97.22805096802031
111,108.403,1.76736254278309,97.23263745721691
112,111.340,1.7627774579925273,97.23722254200747
113,114.276,2.758193789131141,97.24180621086886
114,117.211,0.7536115481752148,97.24638845182479
115,120.144,1.7490307475517284,97.25096925244827
116,123.077,1.744451400136171,97.25554859986383
117,126.008,0.0,97.26012648074985
118,128.938,0.7352971186591759,97.26470288134082
119,131.868,1.730722212570214,97.26927778742979
120,134.795,3.726148815629486,97.27385118437051
121,137.722,1.7215769429201657,97.27842305707983
122,140.648,3.7170066099599666,97.28299339004003
123,143.572,0.7124378326989387,97.28756216730106
124,146.496,1.70787062751711,97.29212937248289
125,149.418,0.0,97.29669498877782
126,152.339,0.6987410010472388,97.30125899895276
127,155.259,0.6941786146484077,97.30582138535159
128,158.178,0.6896178701025661,97.31038212989743
129,161.096,2.685058785905028,97.31494121409497
130,164.012,1.680501380967243,97.31949861903276
131,166.928,1.6759456746144963,97.3240543253855
132,169.842,1.6713916865835756,97.32860831341642
133,172.755,2.6668394370204567,97.33316056297954
134,175.667,0.0,97.33771105352197
135,178.578,1.6577402359137494,97.34225976408625
136,181.488,0.0,97.34680667331263
137,184.397,1.6486482405586003,97.3513517594414
138,187.304,2.644104999684785,97.35589500031521
139,190.211,0.0,97.36043637338135
140,193.116,0.6350241443059303,97.36497585569407
141,196.020,1.6304865760831149,97.36951342391689
142,198.923,0.6259509456751005,97.3740490543249
143,201.825,2.62141727719289,97.37858272280711
144,204.726,2.6168855951312793,97.38311440486872
145,207.625,0.6123559243665824,97.38764407563342
146,210.524,0.6078282901542735,97.39217170984573
147,213.421,1.603302718126713,97.39669728187329
148,216.318,3.598779234290788,97.40122076570921
149,219.213,0.5942578650257104,97.40574213497429
150,222.107,1.5897386370805577,97.41026136291944
151,225.000,1.5852215775721135,97.41477842242789
152,227.891,1.5807067139824227,97.41929328601758
153,230.782,1.5761940741566036,97.4238059258434
154,233.672,0.5716836863004602,97.42831631369954
155,236.560,1.5671755789781798,97.43282442102182
156,239.447,0.5626697811100598,97.43733021888994
157,242.333,1.5581663219701625,97.44183367802984
158,245.218,1.5536652311840413,97.44633476881596
159,248.102,1.5491665387263822,97.45083346127362
160,250.985,0.5446702749187438,97.45532972508126
161,253.867,2.5401764704272267,97.45982352957277
162,256.748,0.5356851562601577,97.46431484373984
163,259.627,1.5311963637657868,97.46880363623421
164,262.505,0.5267101246299859,97.47328987537001
165,265.383,1.5222264708739317,97.47777352912607
166,268.259,2.51774543485179,97.48225456514821
167,271.134,0.5132670492484124,97.48673295075159
168,274.008,1.5087913470770502,97.49120865292295
169,276.880,2.5043183616769937,97.495681638323
170,279.752,1.4998481267112993,97.5001518732887
171,282.623,1.495380676164487,97.50461932383551
172,285.492,1.49091604434021,97.50908395565979
173,288.360,1.4864542658589528,97.51354573414105
174,291.228,0.48199537565572825,97.51800462434427
175,294.094,2.4775394089777194,97.52246059102228
176,296.959,0.47308640138209057,97.52691359861791
177,299.823,1.468636388733529,97.53136361126647
178,302.685,0.0,97.53581059279796
179,305.547,3.4597454932605984,97.5402545067394
180,308.408,1.4553046836828543,97.54469531631715
181,311.267,0.4508670155407941,97.5491329844592
182,314.126,0.4464325262024573,97.55356747379754
183,316.983,0.0,97.55799874667035
184,319.839,3.437573234875572,97.56242676512443
185,322.694,2.4331485090825566,97.56685149091744
186,325.548,1.4287271144797415,97.57127288552026
187,328.401,1.424309089880765,97.57569091011923
188,331.253,2.419894474381479,97.58010552561852
189,334.103,3.41548330735759,97.58451669264241
190,336.953,0.0,97.58892437153762
191,339.801,2.4066714776244424,97.59332852237556
192,342.649,2.402270895045234,97.59772910495477
193,345.495,1.3978739211969469,97.60212607880305
194,348.340,3.393480596820055,97.60651940317995
195,351.184,0.3890909629210739,97.61090903707893
196,354.027,2.3847050607702442,97.61529493922976
197,356.869,1.380322931899201,97.6196770681008
198,359.709,2.3759446180987,97.6240553819013
199,362.549,2.3715701614162583,97.62842983858374
200,365.388,1.3671996041538819,97.63280039584612
201,368.225,1.362832988865776,97.63716701113422
202,371.061,0.0,97.64152964164403
203,373.897,3.3541117556760582,97.64588824432394
204,376.731,2.349757224122868,97.65024277587713
205,379.564,0.345406807236202,97.6545931927638
206,382.396,0.34106054879643466,97.65893945120357
207,385.227,1.3367184928222855,97.66328150717771
208,388.057,1.3323806835684593,97.66761931643154
209,390.885,0.32804716552338675,97.67195283447661
210,393.713,0.32371798340686553,97.67628201659313
211,396.539,2.3193931821677864,97.68060681783221
212,399.365,2.3150728069817745,97.68492719301823
213,402.189,0.0,97.68924309675106
214,405.012,1.306445516591566,97.69355448340843
215,407.835,2.3021386928517273,97.69786130714827
216,410.656,1.2978364780890672,97.70216352191093
217,413.476,0.2935389185784203,97.70646108142158
218,416.295,1.2892460608075709,97.71075393919243
219,419.112,2.284957951474894,97.7150420485251
220,421.929,1.2806746374870244,97.71932536251298
221,424.745,2.2763961659566263,97.72360383404337
222,427.559,0.27212258420003366,97.72787741579997
223,430.373,2.2678539397349198,97.73214606026508
224,433.185,0.2635902802780379,97.73640971972196
225,435.996,1.2593316537428763,97.74066834625712
226,438.807,0.2550781082373845,97.74492189176262
227,441.616,0.0,97.74917030793837
228,444.424,1.2465864537054756,97.75341354629452
229,447.231,1.2423484418463175,97.75765155815368
230,450.037,1.2381157053467575,97.76188429465324
231,452.842,1.233888293252292,97.76611170674771
232,455.645,2.229666254788981,97.77033374521102
233,458.448,0.22544963936115892,97.77455036063884
234,461.250,0.0,97.77876150345085
235,464.050,0.2170328761069129,97.78296712389309
236,466.849,1.2128328279597582,97.78716717204024
237,469.648,1.2086384022020127,97.79136159779799
238,472.445,1.2044496490947694,97.79555035090523
239,475.241,1.2002666190635125,97.79973338093649
240,478.036,0.19608936269584376,97.80391063730416
241,480.830,2.1919179307391374,97.80808206926086
242,483.623,0.18775237409830936,97.81224762590169
243,486.415,3.183592743833401,97.8164072561666
244,489.206,1.179439091157377,97.82056090884262
245,491.996,2.1752914674337234,97.82470853256628
246,494.784,2.1711499241741876,97.82885007582581
247,497.572,6.1670145130364915,97.83298548696351
248,500.358,6.162885285821929,97.83711471417807
249,503.144,10.158762294473192,97.84123770552681
250,505.928,14.154645591071926,97.84535440892807
251,508.712,14.150535227836514,97.84946477216349
252,511.494,18.146431257119744,97.85356874288026
253,514.275,8.142333731406453,97.85766626859355
254,517.055,3.138242703311306,97.8617572966887
255,519.834,3.1341582255763996,97.8658417744236
256,522.612,1.1300803510690116,97.86991964893099
257,525.389,2.126009132779245,97.87399086722075
258,528.165,0.12194462381776816,97.87805537618223
259,530.940,3.1178868774134827,97.88211312258652
260,533.713,1.1138359469111947,97.8861640530888
261,536.486,1.1097918857693259,97.89020811423067
262,539.257,1.1057547475576257,97.89424525244237
263,542.028,1.1017245859548126,97.89827541404519
264,544.797,2.0977014547462858,97.90229854525371
265,547.566,1.0936854078218516,97.90631459217815
266,550.333,2.0896764991733647,97.91032350082664
267,553.099,1.0856747828924256,97.91432521710757
268,555.864,1.081680313168107,97.9183196868319
269,558.629,4.077693144284595,97.9223068557154
270,561.392,2.0737133306189293,97.92628666938107
271,564.154,1.0697409266386586,97.93025907336134
272,566.915,0.06577598689953845,97.93422401310046
273,569.674,2.061818566043229,97.93818143395677
274,572.433,2.0578687187950067,97.942131281205
275,575.191,1.0539264999613778,97.94607350003862
276,577.948,2.049991964427875,97.95000803557213
277,580.703,0.04606516715668363,97.95393483284332
278,583.458,0.04214616318429876,97.9578538368157
279,586.211,3.0382350076193347,97.96176499238067
280,588.964,1.034331755640082,97.96566824435992
281,591.715,0.030436462492303917,97.9695635375077
282,594.466,1.0265491834868357,97.97345081651316
283,597.215,2.022669973997367,97.97733002600263
284,599.963,0.0,97.98120111054195
285,602.710,0.0,97.98506401463874
286,605.457,1.0110813172552184,97.98891868274478
287,608.202,0.007234940741739138,97.99276505925826
288,610.946,0.003396911473913633,97.99660308852609
289,613.689,0.0,98.00043271484626
290,616.431,1.9957461175299187,98.00425388247008
291,619.172,0.9919334643954301,98.00806653560457
292,621.911,0.9881293815853098,98.01187061841469
293,624.650,1.984333924974294,98.0156660750257
294,627.388,0.980547150474564,98.01945284952544
295,630.125,0.0,98.02323088596667
296,632.860,1.9729998716306625,98.02700012836934
297,635.595,0.0,98.03076052072294
298,638.328,0.965487993011223,98.03451200698878
299,641.061,0.0,98.03825453110233
300,643.792,1.9580119630245179,98.04198803697548
301,646.523,0.9542875315010946,98.0457124684989
302,649.252,0.950572230455677,98.04942776954432
303,651.980,0.9468661160331635,98.05313388396684
304,654.708,1.9431692443927346,98.05683075560727
305,657.434,0.9394816717056358,98.06051832829436
306,660.159,0.9358034541527331,98.06419654584727
307,662.883,0.9321346479223536,98.06786535207765
308,665.606,1.9284753092078546,98.07152469079215
309,668.328,0.9248254942053507,98.07517450579465
310,671.049,0.0,98.07881474088853
311,673.769,0.9175546601209135,98.08244533987909
312,676.488,0.9139337534243026,98.0860662465757
313,679.206,0.0,98.08967740479429
314,681.923,0.9067212416405113,98.09327875835949
315,684.639,0.0,98.09687025110709
316,687.354,1.8995481731137573,98.10045182688624
317,690.067,0.8959765704381937,98.1040234295618
318,692.780,0.8924149969833621,98.10758500301664
319,695.492,0.888863508846029,98.11113649115397
320,698.202,1.8853221621003655,98.11467783789963
321,700.912,0.0,98.11820898720441
322,703.621,0.0,98.12172988304636
323,706.328,0.0,98.12524046943304
324,709.035,0.0,98.12874069040394
325,711.740,0.0,98.13223049003274
326,714.444,0.0,98.13570981242957
327,717.148,2.8608213982566326,98.13917860174337
328,719.850,0.8573631978358094,98.14263680216419
329,722.552,0.0,98.14608435792552
330,725.252,0.8504787866934578,98.14952121330654
331,727.951,0.8470526873654762,98.15294731263452
332,730.649,0.0,98.15636260028703
333,733.347,0.8402329793056964,98.1597670206943
334,736.043,0.0,98.16316051834156
335,738.738,0.8334569622287233,98.16654303777128
336,741.432,0.8300854764144816,98.16991452358552
337,744.125,0.826725079551764,98.17327492044824
338,746.817,0.0,98.17662417308762
339,749.508,0.8200377737016993,98.1799622262983
340,752.198,2.8167109750562105,98.18328902494379
341,754.887,0.0,98.18660451395873
342,757.575,1.810091361648844,98.18990863835116
343,760.262,1.8067986567951095,98.19320134320489
344,762.948,2.8035174263181943,98.1964825736818
345,765.633,0.0,98.19975227502414
346,768.317,0.7969896074431944,98.2030103925568
347,770.999,0.7937431283102967,98.2062568716897
348,773.681,1.79050834207996,98.20949165792004
349,776.362,0.0,98.2127146968346
350,779.042,0.0,98.2159259341121
351,781.720,0.7808746844745258,98.21912531552547
352,784.398,0.777687213055799,98.2223127869442
353,787.075,1.7745117056634143,98.22548829433659
354,789.751,0.0,98.22865178377211
355,792.425,1.7681967985763265,98.23180320142367
356,795.099,0.7650575064300256,98.23494249356997
357,797.771,0.7619303934021957,98.2380696065978
358,800.443,0.7588155129957102,98.24118448700429
359,803.114,0.0,98.24428708139932
360,805.783,0.0,98.24737733650774
361,808.452,0.7495448008282608,98.25045519917174
362,811.119,1.7464793836468715,98.25352061635313
363,813.786,2.7434264648643705,98.25657353513563
364,816.451,1.7403860972727472,98.25961390272725
365,819.116,0.737358333537486,98.26264166646251
366,821.779,1.734343226195179,98.26565677380482
367,824.442,1.7313408276512376,98.26865917234876
368,827.103,0.7283511901776336,98.27164880982237
369,829.763,0.7253743659105112,98.27462563408949
370,832.423,0.7224104068479136,98.27758959315209
371,835.081,0.7194593648475092,98.28054063515249
372,837.739,0.7165212916242041,98.2834787083758
373,840.395,0.7135962387479111,98.28640376125209
374,843.050,1.710684257641205,98.2893157423588
375,845.705,1.7077853995769772,98.29221460042302
376,848.358,0.0,98.29510028432378
377,851.010,0.7020272569055948,98.2979727430944
378,853.662,0.6991680740752599,98.30083192592474
379,856.312,0.0,98.30367778216358
380,858.961,0.0,98.30651026132085
381,861.610,0.690670686929991,98.30932931307001
382,864.257,0.6878651127496482,98.31213488725035
383,866.903,1.6850730661307693,98.31492693386923
384,869.549,0.6822945968955167,98.31770540310448
385,872.193,2.6795297546933483,98.32047024530665
386,874.836,1.6767785889986442,98.32322141100136
387,877.478,2.6740411491084473,98.32595885089155
388,880.120,0.6713174841401326,98.32868251585987
389,882.760,1.6686076430290768,98.33139235697092
390,885.399,1.6659116745264129,98.33408832547359
391,888.037,1.6632296271966283,98.33677037280337
392,890.675,0.6605615494153625,98.33943845058464
393,893.311,0.657907489366977,98.34209251063302
394,895.946,0.6552674950423665,98.34473250495763
395,898.580,0.6526416142365719,98.34735838576343
396,901.214,2.6500298945464777,98.34997010545352
397,903.846,2.647432383368539,98.35256761663146
398,906.477,0.6448491278964497,98.35515087210355
399,909.107,0.6422801751188132,98.35771982488119
400,911.737,1.6397255718168822,98.36027442818312
401,914.365,1.6371853645622139,98.36281463543779
402,916.992,0.6346595997143396,98.36534040028566
403,919.618,1.6321483234185337,98.36785167658147
404,922.244,0.6296515816034116,98.37034841839659
405,924.868,1.6271694199786992,98.3728305800213
406,927.491,0.0,98.37529811596715
407,930.113,0.0,98.3777509809692
408,932.735,1.6198108700116336,98.38018912998837
409,935.355,1.6173874817862526,98.38261251821375
410,937.974,0.0,98.38502110106488
411,940.592,0.6125851658058679,98.38741483419413
412,943.210,0.61020632651109,98.38979367348891
413,945.826,1.6078424249259484,98.39215757507405
414,948.441,1.60549350468591,98.39450649531409
415,951.056,0.6031596091844307,98.39684039081557
416,953.669,3.6008407815706107,98.39915921842939
417,956.281,1.5985370647469352,98.40146293525306
418,958.893,0.5962485013669578,98.40375149863304
419,961.503,0.5939751338329415,98.40602486616706
420,964.112,0.5917170042935993,98.4082829957064
421,966.721,0.5894741546417777,98.41052584535822
422,969.328,1.5872466265121545,98.41275337348785
423,971.935,0.585034461278866,98.41496553872113
424,974.540,0.5828377000532896,98.41716229994671
425,977.144,0.5806563836816991,98.4193436163183
426,979.748,2.578490552742892,98.42150944725711
427,982.350,1.5763402475459998,98.423659752454
428,984.952,2.574205508128074,98.42579449187193
429,987.552,0.572086374251839,98.42791362574816
430,990.152,0.5699828854033484,98.43001711459665
431,992.750,1.567895080789711,98.43210491921029
432,995.348,1.5658229993367172,98.43417700066328
433,997.944,0.0,98.43623332031338
434,1000.540,0.5617261601957608,98.43827383980424
435,1003.134,1.55970147893224,98.44029852106776
436,1005.728,0.5576926736737136,98.44230732632629
437,1008.321,1.5556997819049627,98.44430021809504
438,1010.912,0.5537228408156523,98.44627715918435
439,1013.503,1.5517618872980137,98.44823811270199
440,1016.092,0.5498169579445147,98.45018304205549
441,1018.681,2.5478880890455713,98.45211191095443
442,1021.269,0.5459753165872314,98.45402468341277
443,1023.856,0.5440786762488585,98.45592132375114
444,1026.441,0.0,98.45780179659916
445,1029.026,0.5403339331022607,98.45966606689774
446,1031.610,0.0,98.46151409990142
447,1034.193,0.0,98.46334586118064
448,1036.775,1.534838683375952,98.46516131662405
449,1039.355,0.5330395675591575,98.46696043244084
450,1041.935,0.5312568248369303,98.46874317516307
451,1044.514,3.5294904883520815,98.47050951164792
452,1047.092,1.5277405909199473,98.47225940908005
453,1049.669,1.5260071650261153,98.47399283497388
454,1052.245,0.5242902428240512,98.47570975717595
455,1054.820,0.0,98.4774101438671
456,1057.394,0.5209060364350222,98.47909396356498
457,1059.967,0.0,98.48076118512616
458,1062.539,0.517588222251419,98.48241177774858
459,1065.110,0.0,98.48404571097377
460,1067.681,0.5143370453107536,98.48566295468925
461,1070.250,1.5127365208692964,98.4872634791307
462,1072.818,1.5111527451155524,98.48884725488445
463,1075.385,0.5095857471103642,98.49041425288964
464,1077.951,0.0,98.49196444444057
465,1080.517,1.506502198810935,98.49349780118906
466,1083.081,0.0,98.49501429514673
467,1085.644,0.5034861013127454,98.49651389868725
468,1088.207,1.5020034154512558,98.49799658454874
469,1090.768,2.500537674163965,98.49946232583603
470,1093.329,1.4990889039770252,98.50091109602297
471,1095.888,1.4976571310452158,98.50234286895478
472,1098.447,0.4962423811497132,98.50375761885029
473,1101.004,0.0,98.5051553203043
474,1103.561,1.49346405171012,98.50653594828988
475,1106.116,0.49210052183931907,98.50789947816068
476,1108.671,0.4907541143467711,98.50924588565323
477,1111.225,0.4894248531107479,98.51057514688925
478,1113.777,0.0,98.51188723837797
479,1116.329,0.0,98.51318213701842
480,1118.880,2.485540179898223,98.51445982010178
481,1121.430,0.48427973468638186,98.51572026531362
482,1123.979,0.48303654926371564,98.51696345073628
483,1126.527,0.4818106451488262,98.51818935485117
484,1129.074,0.4806020434589726,98.51939795654103
485,1131.620,1.4794107649077688,98.52058923509223
486,1134.165,1.4782368298027961,98.5217631701972
487,1136.709,0.4770802580433866,98.52291974195661
488,1139.252,1.475941069118278,98.52405893088172
489,1141.794,2.474819282103269,98.52518071789673
490,1144.335,0.4737149156589737,98.52628508434103
491,1146.875,0.47262798802847783,98.52737201197152
492,1149.415,2.471558517035021,98.52844148296498
493,1151.953,0.4705065200797094,98.52949347992029
494,1154.490,0.4694720141391997,98.5305279858608
495,1157.027,2.468455015763368,98.53154498423663
496,1159.562,1.4674555410730648,98.53254445892694
497,1162.097,1.4664736057576988,98.5335263942423
498,1164.630,0.0,98.53449077492698
499,1167.163,0.4645624138388058,98.5354375861612
500,1169.695,2.463633186436468,98.53636681356353
501,1172.225,0.0,98.53727844319314
502,1174.755,0.4618275384478636,98.53817246155214
503,1177.284,1.4609511444121495,98.53904885558785
504,1179.812,0.46009238730482593,98.53990761269517
505,1182.338,0.0,98.54074872071884
506,1184.864,0.45842783204426496,98.54157216795574
507,1187.389,3.457622056842766,98.54237794315723
508,1189.913,3.456833964468487,98.54316603553151
509,1192.436,2.4560635652541833,98.54393643474582
510,1194.959,0.4553108690712264,98.54468913092877
511,1197.480,0.4545758853272446,98.54542411467276
512,1200.000,1.453858622963864,98.54614137703614
513,1202.519,1.4531590904543634,98.54684090954564
514,1205.038,1.4524772958014154,98.54752270419858
515,1207.555,3.4518132465347264,98.54818675346527
516,1210.071,2.4511669497087354,98.54883305029126
517,1212.587,3.4505384119003395,98.54946158809966
518,1215.101,1.4499276392065354,98.55007236079346
519,1217.615,1.4493346372421598,98.55066536275784
520,1220.128,0.44875941113754436,98.55124058886246
521,1222.639,0.4482019655361995,98.5517980344638
522,1225.150,3.447662304592555,98.55233769540745
523,1227.660,2.4471404319696006,98.5528595680304
524,1230.169,1.4466363508365845,98.55336364916342
525,1232.677,3.446150063866753,98.55384993613325
526,1235.184,3.445681573234964,98.55431842676504
527,1237.690,2.4452308806154406,98.55476911938456
528,1240.195,0.0,98.55520201282059
529,1242.699,1.4443828935928593,98.55561710640714
530,1245.202,2.443985600014159,98.55601439998584
531,1247.704,0.4436061060917922,98.55639389390821
532,1250.206,1.4432444109620377,98.55675558903796
533,1252.706,1.44290051324667,98.55709948675333
534,1255.206,1.4425744110506145,98.55742558894939
535,1257.704,3.4422661019596887,98.55773389804031
536,1260.202,3.441975583038243,98.55802441696176
537,1262.698,1.4417028508268999,98.5582971491731
538,1265.194,0.4414479013402257,98.55855209865977
539,1267.689,0.4412107300643697,98.55878926993563
540,1270.183,3.440991331954848,98.55900866804515
541,1272.676,1.44078970143417,98.55921029856583
542,1275.168,2.440605832389565,98.55939416761044
543,1277.659,3.440439718170609,98.55956028182939
544,1280.149,4.440291351587021,98.55970864841298
545,1282.638,3.440160724906235,98.55983927509376
546,1285.126,3.44004782985121,98.55995217014879
547,1287.613,3.439952657597999,98.560047342402
548,1290.100,2.439875198773535,98.56012480122646
549,1292.585,2.4398154434532984,98.5601845565467
550,1295.070,1.4397733811589575,98.56022661884104
551,1297.553,2.439749000856139,98.56025099914386
552,1300.036,3.4397422909520685,98.56025770904793
553,1302.517,3.439753239293239,98.56024676070676
554,1304.998,1.439781833163181,98.56021816683682
555,1307.478,4.43982805928006,98.56017194071994
556,1309.957,1.4398919037944609,98.56010809620554
557,1312.435,3.439973352286998,98.560026647713
558,1314.912,3.44007238976603,98.55992761023397
559,1317.388,4.440189000665399,98.5598109993346
560,1319.863,4.440323168842056,98.55967683115794
561,1322.337,3.440474877573763,98.55952512242624
562,1324.811,4.440644109556814,98.55935589044319
563,1327.283,3.4408308469037223,98.55916915309628
564,1329.755,4.441035071140888,98.55896492885911
565,1332.225,3.441256763206283,98.55874323679372
566,1334.695,4.441495903447176,98.55850409655282
567,1337.163,4.441752471617804,98.5582475283822
568,1339.631,4.442026446877051,98.55797355312295
569,1342.098,5.442317807786182,98.55768219221382
570,1344.564,0.44262653230646265,98.55737346769354
571,1347.029,5.4429525977969035,98.5570474022031
572,1349.493,4.443295981011971,98.55670401898803
573,1351.956,5.443656658099201,98.5563433419008
574,1354.418,3.4440346045969505,98.55596539540305
575,1356.880,4.444429795432086,98.55557020456791
576,1359.340,3.4448422049176344,98.55515779508237
577,1361.800,3.4452718067504975,98.5547281932495
578,1364.258,5.445718574009192,98.55428142599081
579,1366.716,3.4461824791514175,98.55381752084858
580,1369.172,2.4466634940119008,98.5533365059881
581,1371.628,0.4471615897999328,98.55283841020007
582,1374.083,1.447676737097197,98.5523232629028
583,1376.537,3.448208905855367,98.55179109414463
584,1378.990,2.448758065393818,98.55124193460618
585,1381.442,3.449324184397341,98.55067581560266
586,1383.893,1.449907230913837,98.55009276908616
587,1386.344,1.450507172351962,98.54949282764804
588,1388.793,1.4511239754788505,98.54887602452115
589,1391.241,0.4517576064178286,98.54824239358217
590,1393.689,0.4524080306460405,98.54759196935396
591,1396.135,0.45307521299218934,98.54692478700781
592,1398.581,2.4537591176342346,98.54624088236577
593,1401.026,1.4544597080970334,98.54554029190297
594,1403.470,0.0,98.54482305274992
595,1405.913,1.4559107973051937,98.5440892026948
596,1408.355,1.456661219814137,98.54333878018586
597,1410.796,0.45742817566643623,98.54257182433356
598,1413.236,3.458211625086932,98.54178837491307
599,1415.675,1.4590115276335922,98.54098847236641
600,1418.114,0.45982784219509654,98.5401721578049
601,1420.551,3.460660526988619,98.53933947301138
602,1422.988,0.46150953955746843,98.53849046044253
603,1425.423,1.4623748367687597,98.53762516323124
604,1427.858,3.4632563748111806,98.53674362518882
605,1430.292,1.4641541091925774,98.53584589080742
606,1432.725,2.4650679947377654,98.53493200526223
607,1435.157,0.46599798558612804,98.53400201441387
608,1437.588,3.4669440351893,98.5330559648107
609,1440.018,0.4679060963089796,98.53209390369102
610,1442.447,0.4688841210144403,98.53111587898556
611,1444.876,1.4698780606804007,98.5301219393196
612,1447.303,2.4708878659845652,98.52911213401543
613,1449.730,2.4719134869054216,98.52808651309458
614,1452.156,3.4729548727198676,98.52704512728013
615,1454.580,4.4740119720009375,98.52598802799906
616,1457.004,4.475084732615457,98.52491526738454
617,1459.427,1.4761731017217983,98.5238268982782
618,1461.849,2.477277025767478,98.52272297423252
619,1464.270,3.4783964504869402,98.52160354951306
620,1466.690,4.479531320899184,98.52046867910082
621,1469.110,3.4806815813054754,98.51931841869452
622,1471.528,0.4818471752870579,98.51815282471294
623,1473.946,1.4830280457028095,98.51697195429719
624,1476.362,2.484224134686926,98.51577586531307
625,1478.778,0.48543538364667427,98.51456461635333
626,1481.193,2.4866617332600356,98.51333826673996
627,1483.607,0.48790312347335885,98.51209687652664
628,1486.020,1.4891594934991588,98.51084050650084
629,1488.432,0.4904307818136857,98.50956921818631
630,1490.843,0.49171692615472296,98.50828307384528
631,1493.253,2.493017863519185,98.50698213648081
632,1495.663,0.4943335301608869,98.50566646983911
633,1498.071,2.49566386158817,98.50433613841183
634,1500.479,0.0,98.50299120743834
635,1502.886,0.4983682570918688,98.50163174290813
636,1505.292,1.4997421884369686,98.50025781156303
637,1507.697,0.5011305191004567,98.49886948089954
638,1510.101,0.0,98.49746681917117
639,1512.504,0.0,98.49604989539073
640,1514.906,0.0,98.49461877933261
641,1517.307,1.5068264584648148,98.49317354153519
642,1519.708,0.5082857466970268,98.49171425330297
643,1522.107,0.5097590132909033,98.4902409867091
644,1524.506,0.0,98.4887538145975
645,1526.904,0.0,98.48725281058526
646,1529.301,2.514261950935037,98.48573804906496
647,1531.697,2.5157903947930578,98.48420960520694
648,1534.092,1.5173324450383774,98.48266755496162
649,1536.486,1.5188880249382066,98.4811119750618
650,1538.879,0.5204570569749905,98.47954294302501
651,1541.272,1.5220394628442335,98.47796053715577
652,1543.663,0.0,98.47636483654794
653,1546.054,1.5252440789130048,98.474755921087
654,1548.444,0.0,98.47313387145235
655,1550.832,1.5285012308803374,98.47149876911966
656,1553.220,1.5301493036368186,98.46985069636318
657,1555.607,1.5318102637420168,98.46818973625798
658,1557.994,0.5334840273176553,98.46651597268234
659,1560.379,1.5351705096799861,98.46482949032001
660,1562.763,1.5368696253374736,98.46313037466253
661,1565.147,1.5385812879884355,98.46141871201156
662,1567.529,0.5403054105188119,98.45969458948119
663,1569.911,1.5420419049998202,98.45795809500018
664,1572.292,1.5437906826856391,98.45620931731436
665,1574.672,0.0,98.4544483459889
666,1577.051,0.5473247285893876,98.45267527141061
667,1579.429,0.0,98.45089018479028
668,1581.807,1.5509068218350706,98.44909317816493
669,1584.183,2.5527156555997976,98.4472843444002
670,1586.559,1.5545362228073998,98.4454637771926
671,1588.933,0.0,98.44363157107185
672,1591.307,0.558212178596861,98.44178782140314
673,1593.680,0.5600673756104868,98.43993262438951
674,1596.052,1.5619339229258742,98.43806607707413
675,1598.423,0.5638117226574195,98.43618827734258
676,1600.794,1.5657006760748118,98.43429932392519
677,1603.163,0.0,98.43239931639935
678,1605.531,2.569511644808159,98.43048835519184
679,1607.899,1.5714334584189658,98.42856654158103
680,1610.266,1.5733660223006325,98.42663397769937
681,1612.632,0.5753092334644805,98.42469076653552
682,1614.997,0.577262988063211,98.42273701193679
683,1617.361,0.5792271813886174,98.42077281861138
684,1619.724,0.5812017078692833,98.41879829213072
685,1622.086,0.0,98.41681353893172
686,1624.448,0.5851813336807936,98.4148186663192
687,1626.808,1.587186217531908,98.41281378246809
688,1629.168,1.5892010035742459,98.41079899642575
689,1631.527,0.0,98.40877441811435
690,1633.885,1.5932598416668924,98.40674015833311
691,1636.242,0.0,98.40469632876062
692,1638.598,2.5973569580427807,98.40264304195722
693,1640.954,2.5994195886328413,98.40058041136716
694,1643.308,0.0,98.3985085513211
695,1645.662,0.6035724229617614,98.39642757703824
696,1648.014,0.6056623953712545,98.39433760462875
697,1650.366,0.6077612489039552,98.39223875109604
698,1652.717,0.0,98.39013113433906
699,1655.067,0.0,98.3880148731546
700,1657.417,1.614109912760341,98.38589008723966
701,1659.765,0.6162431028063367,98.38375689719366
702,1662.112,0.6183845754791406,98.38161542452086
703,1664.459,0.6205342083674168,98.37946579163258
704,1666.805,1.6226918781504338,98.37730812184957
705,1669.150,0.6248574605957486,98.37514253940425
706,1671.494,0.0,98.37296916944311
707,1673.837,1.6292118619710578,98.37078813802894
708,1676.179,2.6314004278567893,98.36859957214321
709,1678.520,2.633596400311717,98.36640359968828
710,1680.861,0.0,98.36420034948982
711,1683.201,0.6380100487009486,98.36198995129905
712,1685.539,0.6402274642049264,98.35977253579507
713,1687.877,0.6424517654128152,98.35754823458718
714,1690.214,0.6446828197828438,98.35531718021716
715,1692.551,0.6469204938384081,98.35307950616159
716,1694.886,0.649164653165812,98.35083534683419
717,1697.220,0.0,98.34858483758809
718,1699.554,0.6536718852818524,98.34632811471815
719,1701.887,0.6559346845367031,98.3440653154633
720,1704.219,0.6582034219912174,98.34179657800878
721,1706.550,0.0,98.33952204148852
722,1708.880,0.6627581540125789,98.33724184598742
723,1711.209,0.0,98.33495613254367
724,1713.537,3.6673349568489755,98.33266504315102
725,1715.865,1.669631279238871,98.33036872076113
726,1718.192,0.671932690714101,98.3280673092859
727,1720.518,0.0,98.3257609535997
728,1722.843,1.6765502004582515,98.32344979954175
729,1725.167,0.0,98.32113399391841
730,1727.490,0.0,98.31881368450549
731,1729.812,0.6835109799494603,98.31648902005054
732,1732.134,0.6858398497248288,98.31416015027517
733,1734.455,0.6881727741226058,98.3118272258774
734,1736.774,0.0,98.30949039853387
735,1739.093,3.692850179097718,98.30714982090228
736,1741.411,1.695194353376408,98.30480564662359
737,1743.729,0.0,98.30245803032437
738,1746.045,0.6998928723808433,98.30010712761916
739,1748.361,0.0,98.29775309511264
740,1750.675,1.7046039095978927,98.29539609040211
741,1752.989,0.0,98.29303627207968
742,1755.302,2.70932620026538,98.29067379973462
743,1757.614,2.711691166044318,98.28830883395568
744,1759.925,0.7140584636666318,98.28594153633337
745,1762.236,0.0,98.2835720694623
746,1764.545,1.7187994030565505,98.28120059694345
747,1766.854,0.7211727166134665,98.27882728338653
748,1769.162,1.723547705587734,98.27645229441227
749,1771.469,2.7259242033453432,98.27407579665466
750,1773.775,0.7283020422365922,98.27169795776341
751,1776.080,0.7306810535938979,98.2693189464061
752,1778.385,0.7330610677293947,98.2669389322706
753,1780.688,1.735441913932661,98.26455808606734
754,1782.991,0.7378234204684162,98.26217657953158
755,1785.293,1.7402054145742056,98.2597945854258
756,1787.594,0.7425877224580688,98.25741227754193
757,1789.894,0.744970169296252,98.25502983070375
758,1792.193,1.7473525792309061,98.2526474207691
759,1794.492,2.74973477536777,98.25026522463223
760,1796.789,0.7521165797738405,98.24788342022616
761,1799.086,1.7544978134750977,98.2455021865249
762,1801.382,0.7568782964541612,98.24312170354584
763,1803.677,1.7592578476480298,98.24074215235197
764,1805.971,0.7616362849456948,98.2383637150543
765,1808.265,0.7640134251859081,98.23598657481409
766,1810.557,2.766389084154852,98.23361091584515
767,1812.849,2.768763076583781,98.23123692341622
768,1815.140,1.7711352161467744,98.22886478385323
769,1817.430,0.773505315458408,98.22649468454159
770,1819.719,0.0,98.22412681392858
771,1822.007,1.7782386384744484,98.22176136152555
772,1824.295,1.7806014820896792,98.21939851791032
773,1826.581,0.7829615252705366,98.21703847472946
774,1828.867,0.0,98.21468142470056
775,1831.152,0.7876724383853855,98.21232756161461
776,1833.436,0.7900229196617374,98.20997708033826
777,1835.719,1.7923698231838614,98.20763017681614
778,1838.002,0.0,98.20528704807317
779,1840.283,0.0,98.20294789221688
780,1842.564,0.7993870915603054,98.2006129084397
781,1844.844,0.8017177029787206,98.19828229702128
782,1847.123,0.8040437406691865,98.19595625933081
783,1849.401,1.8063650021706792,98.19363499782932
784,1851.678,1.8086812839280242,98.19131871607198
785,1853.955,2.8109923812896227,98.18900761871038
786,1856.231,0.81329808850505,98.18670191149495
787,1858.506,0.8155981987228387,98.18440180127716
788,1860.780,0.8178925039881619,98.18210749601184
789,1863.053,0.0,98.17981920475954
790,1865.325,1.822462862311184,98.17753713768882
791,1867.597,0.8247384939214584,98.17526150607854
792,1869.867,0.0,98.17299252232019
793,1872.137,1.8292696000798259,98.17073039992017
794,1874.406,2.8315246464978543,98.16847535350215
795,1876.674,0.8337724011906715,98.16622759880933
796,1878.941,1.8360126472932308,98.16398735270677
797,1881.208,0.0,98.16175483318372
798,1883.473,1.8404697406441244,98.15953025935588
799,1885.738,1.842686148532266,98.15731385146773
800,1888.002,1.8448941691051033,98.1551058308949
801,1890.265,0.8470935798536345,98.15290642014637
802,1892.528,0.8492841571331553,98.15071584286684
803,1894.789,1.8514656761609132,98.14853432383909
804,1897.050,1.8536379110138483,98.14636208898615
805,1899.310,0.0,98.14419936537377
806,1901.569,0.8579536187874197,98.14204638121258
807,1903.827,1.8600966341394525,98.13990336586055
808,1906.084,0.8622294501748655,98.13777054982513
809,1908.340,1.8643518352342454,98.13564816476575
810,1910.596,0.0,98.13353644349594
811,1912.851,3.868564380014206,98.1314356199858
812,1915.105,1.8706540706358368,98.12934592936416
813,1917.358,0.8727323920789587,98.12726760792104
814,1919.610,0.0,98.12520089310986
815,1921.862,1.8768539764502208,98.12314602354978
816,1924.113,2.878896760972026,98.12110323902797
817,1926.362,0.8809272194980053,98.119072780502
818,1928.611,2.8829451098979177,98.11705489010208
819,1930.860,0.8849501888665827,98.11504981113342
820,1933.107,1.8869422119215358,98.11305778807846
821,1935.353,1.888920933400712,98.11107906659929
822,1937.599,0.0,98.10911389353984
823,1939.844,1.8928374830716734,98.10716251692833
824,1942.088,0.8947748140205931,98.1052251859794
825,1944.331,1.8966978489033721,98.10330215109663
826,1946.574,0.8986063361253684,98.10139366387463
827,1948.815,0.9005000228984841,98.09949997710152
828,1951.056,0.9023786552388202,98.09762134476118
829,1953.296,1.9042419779644888,98.09575802203551
830,1955.535,1.906089734693154,98.09391026530685
831,1957.773,4.907921667839858,98.09207833216014
832,1960.011,4.909737518614591,98.09026248138541
833,1962.248,4.911537027020074,98.08846297297993
834,1964.483,0.0,98.08668006815057
835,1966.718,0.915085970683819,98.08491402931618
836,1968.953,1.9168348798901889,98.08316512010981
837,1971.186,0.9185663946189777,98.08143360538102
838,1973.418,2.920280248801717,98.07971975119828
839,1975.650,0.0,98.07802382485117
840,1977.881,1.9236539051472192,98.07634609485278
841,1980.111,0.0,98.07468683094191
842,1982.340,1.926953695914463,98.07304630408554
843,1984.569,0.9285752135190535,98.07142478648095
844,1986.797,0.9301774484418104,98.06982255155819
845,1989.023,0.0,98.06823987398232
846,1991.249,0.9333229703443067,98.0666770296557
847,1993.474,1.9348657042796873,98.06513429572031
848,1995.699,1.9363880494398842,98.06361195056012
849,1997.922,1.937889726196687,98.06211027380331
850,2000.145,0.9393704536753376,98.06062954632466
851,2002.367,0.9408299497522137,98.05917005024779
852,2004.588,1.9422679310525268,98.05773206894747
853,2006.808,0.943684112947949,98.05631588705205
854,2009.028,0.9450782095543957,98.0549217904456
855,2011.246,0.0,98.05355006627032
856,2013.464,0.9477989970711747,98.05220100292883
857,2015.681,0.9491251099135383,98.05087489008646
858,2017.898,0.950427981326385,98.04957201867362
859,2020.113,1.9517073191119891,98.04829268088801
860,2022.328,2.9529628298029706,98.04703717019703
861,2024.541,0.9541942186600068,98.04580578134
862,2026.754,0.0,98.04459881033053
863,2028.966,1.9565834455411704,98.04341655445883
864,2031.178,1.957740687706007,98.042259312294
865,2033.388,0.9588726163137125,98.04112738368629
866,2035.598,0.0,98.04002106976952
867,2037.807,0.9610593270366934,98.0389406729633
868,2040.015,1.9621135030246108,98.03788649697539
869,2042.222,1.963141153196048,98.03685884680395
870,2044.429,2.9641419712600765,98.03585802873992
871,2046.634,1.965115649630718,98.03488435036928
872,2048.839,0.9660618794246147,98.03393812057539
873,2051.043,0.9669803504587549,98.03301964954125
874,2053.247,0.9678707512481282,98.03212924875187
875,2055.449,1.9687327690034095,98.03126723099659
876,2057.651,0.9695660896287137,98.03043391037129
877,2059.851,3.970370397719236,98.02962960228076
878,2062.052,0.0,98.02885462344109
879,2064.251,0.0,98.02810929188182
880,2066.449,2.972606073051651,98.02739392694835
881,2068.647,0.9732911506957436,98.02670884930426
882,2070.844,2.9739456190664555,98.02605438093354
883,2073.040,0.0,98.02543084514299
884,2075.235,1.975161433435531,98.02483856656447
885,2077.429,0.97572212884279,98.02427787115721
886,2079.623,1.9762509137898263,98.02374908621017
887,2081.815,2.976747459655698,98.0232525403443
888,2084.007,0.9772114364851632,98.02278856351484
889,2086.199,0.0,98.02235748701369
890,2088.389,1.9780403565283393,98.02195964347166
891,2090.579,0.0,98.02159536686082
892,2092.767,2.978735007503232,98.02126499249677
893,2094.955,0.9790311429590304,98.02096885704097
894,2097.143,0.9792927014969166,98.02070729850308
895,2099.329,0.0,98.02048065624322
896,2101.514,1.9797107290257117,98.02028927097429
897,2103.699,0.9798665152357131,98.02013348476429
898,2105.883,0.9799863589613551,98.02001364103864
899,2108.066,1.980069915417502,98.0199300845825
900,2110.249,0.980116838457036,98.01988316154296
901,2112.430,0.0,98.01987321943157
902,2114.611,0.0,98.01990060712644
903,2116.791,0.0,98.01996567487465
904,2118.970,0.0,98.02006877429459
905,2121.149,1.9797897416218717,98.02021025837813
906,2123.326,0.0,98.02039048149311
907,2125.503,0.9793902006145032,98.0206097993855
908,2127.679,0.9791314308181711,98.02086856918183
909,2129.854,1.978832850608626,98.02116714939137
910,2132.029,0.0,98.02150589990856
911,2134.202,0.0,98.02188518201525
912,2136.375,0.9776946416169636,98.02230535838304
913,2138.547,1.9772332069244527,98.02276679307555
914,2140.718,0.0,98.02326985155076
915,2142.889,3.9761850993366465,98.02381490066335
916,2145.058,0.9755976913330642,98.02440230866694
917,2147.227,3.974967554783561,98.02503244521644
918,2149.395,1.9742943186296316,98.02570568137037
919,2151.563,2.973577610406892,98.02642238959311
920,2153.729,0.0,98.02718294375731
921,2155.895,1.972012280853889,98.02798771914611
922,2158.060,0.9711629075445387,98.02883709245546
923,2160.224,0.9702685582035002,98.0297314417965
924,2162.387,1.969328853302244,98.03067114669776
925,2164.550,0.0,98.03165658810758
926,2166.711,0.0,98.03268814839633
927,2168.872,1.966233788641219,98.03376621135878
928,2171.033,0.9651088377836174,98.03489116221638
929,2173.192,0.9639366123804223,98.03606338761958
930,2175.351,0.9627167243499031,98.0372832756501
931,2177.508,1.9614487841766817,98.03855121582332
932,2179.665,2.9601324009094725,98.03986759909053
933,2181.822,0.0,98.04123281784122
934,2183.977,0.9573527340945134,98.04264726590549
935,2186.132,1.9558886614437938,98.0441113385562
936,2188.285,0.9543745674885287,98.04562543251147
937,2190.439,1.9528100540631925,98.04718994593681
938,2192.591,0.0,98.04880527844753
939,2194.742,0.9495281688889463,98.05047183111105
940,2196.893,0.9478099935508197,98.05219000644918
941,2199.043,0.9460397915595848,98.05396020844042
942,2201.192,1.9442171574777092,98.05578284252229
943,2203.341,1.942341684406344,98.05765831559366
944,2205.488,0.0,98.05958703601699
945,2207.635,1.9384305863792548,98.06156941362075
946,2209.781,0.9363941402984182,98.06360585970158
947,2211.926,0.9343032129732478,98.06569678702675
948,2214.071,0.9321573901636242,98.06784260983638
949,2216.214,0.9299562561542558,98.07004374384574
950,2218.357,0.9276993937523486,98.07230060624765
951,2220.499,0.0,98.0746136157147
952,2222.641,1.9230168075984437,98.07698319240156
953,2224.781,0.92059024205264,98.07940975794736
954,2226.921,0.9181062645220379,98.08189373547796
955,2229.060,1.9155644503917841,98.08443554960822
956,2231.198,1.9129643735556385,98.08703562644436
957,2233.336,2.910305606413715,98.08969439358629
958,2235.472,0.0,98.09241228012982
959,2237.608,0.9048102833308889,98.09518971666911
960,2239.743,2.9019728647011647,98.09802713529884
961,2241.878,0.8990750303833863,98.10092496961661
962,2244.011,1.8961163452747911,98.10388365472521
963,2246.144,1.8930963727650294,98.10690362723497
964,2248.276,0.8900146747339903,98.10998532526601
965,2250.407,1.8868708115494144,98.11312918845059
966,2252.538,0.0,98.1163356579354
967,2254.667,1.8803948236161006,98.1196051763839
968,2256.796,0.0,98.12293818797858
969,2258.924,0.8736648615766711,98.12633513842333
970,2261.052,0.8702035250543076,98.12979647494569
971,2263.178,2.8666773537008083,98.13332264629919
972,2265.304,1.8630858972343276,98.13691410276567
973,2267.429,0.859428703842454,98.14057129615755
974,2269.553,0.8557053201798084,98.14429467982019
975,2271.677,0.8519152913658559,98.14808470863414
976,2273.800,0.8480581609824753,98.15194183901752
977,2275.921,0.8441334710717427,98.15586652892826
978,2278.043,0.8401407621335437,98.15985923786646
979,2280.163,0.8360795731233424,98.16392042687666
980,2282.283,2.831949441449794,98.1680505585502
981,2284.401,0.0,98.17225009702747
982,2286.520,0.8234804919997316,98.17651950800027
983,2288.637,0.8191407412859348,98.18085925871407
984,2290.753,2.814730182029649,98.18526981797035
985,2292.869,1.8102483438710522,98.18975165612895
986,2294.984,0.8056947548897142,98.19430524511029
987,2297.098,0.8010689416022672,98.19893105839773
988,2299.212,2.796370428960117,98.20362957103988
989,2301.325,0.7915987403470837,98.20840125965292
990,2303.437,0.7867533975771579,98.21324660242284
991,2305.548,0.7818339208921259,98.21816607910787
992,2307.658,1.776839828959325,98.22316017104067
993,2309.768,0.0,98.22822936113073
994,2311.877,2.7666258661334098,98.23337413386659
995,2313.985,1.761405024681764,98.23859497531824
996,2316.092,2.75610762686064,98.24389237313936
997,2318.199,0.7507331834303272,98.24926681656967
998,2320.304,0.7452812035627545,98.25471879643725
999,2322.409,2.739751194839215,98.26024880516078
1000,2324.514,1.7341426632480648,98.26585733675194
1001,2326.617,0.7284551131823775,98.27154488681762
1002,2328.720,1.7226880474376571,98.27731195256234
1003,2330.822,1.7168409672095208,98.28315903279048
1004,2332.923,0.7109133720913974,98.2890866279086
1005,2335.024,0.0,98.29509523992778
1006,2337.123,0.6988146275341194,98.30118537246588
1007,2339.222,0.6926424692500603,98.30735753074994
1008,2341.320,0.6863877783816292,98.31361222161837
1009,2343.418,0.0,98.31994995352335
1010,2345.514,0.6736287634669083,98.32637123653309
1011,2347.610,0.6671234176658203,98.33287658233418
1012,2349.705,0.0,98.33946650423385
1013,2351.800,1.6538584828376486,98.34614151716235
1014,2353.893,2.6470978623248556,98.35290213767514
1015,2355.986,0.6402511160446522,98.35974888395535
1016,2358.078,2.6333177241840247,98.36668227581598
1017,2360.170,1.6262971652977853,98.37370283470221
1018,2362.260,0.0,98.38081108369384
1019,2364.350,2.6119924524926006,98.3880075475074
1020,2366.439,0.6047072475013948,98.3952927524986
1021,2368.527,0.0,98.40266722666463
1022,2370.615,0.5898685003536173,98.41013149964638
1023,2372.702,1.5823138972691453,98.41768610273085
