# kind,background_subtracted
# version_label,v1_09
# poly_order,5
# iterations_run,9
pixel_index,raman_shift_cm-1,intensity,background_intensity
0,-224.846,2.8069824591958366,95.19301754080416
1,-221.778,3.7702771118127316,95.22972288818727
2,-218.712,2.73391209096512,95.26608790903488
3,-215.647,3.697884386674275,95.30211561332573
4,-212.583,4.662191004226742,95.33780899577326
5,-209.521,2.6268289641409694,95.37317103585903
6,-206.460,2.591795302133974,95.40820469786603
7,-203.399,1.557087069087956,95.44291293091204
8,-200.340,2.522701331017032,95.47729866898297
9,-197.283,2.48863516903387,95.51136483096613
10,-194.226,3.454885679316348,95.54511432068365
11,-191.171,1.4214499730742034,95.5785500269258
12,-188.116,3.3883251765157354,95.61167482348426
13,-185.064,3.3555084308144103,95.64449156918559
14,-182.012,3.3229968920755653,95.67700310792443
15,-178.961,3.2907877313030838,95.70921226869692
16,-175.912,2.2588781343660145,95.74112186563399
17,-172.864,3.227265301965261,95.77273469803474
18,-169.817,2.1959464496002283,95.80405355039977
19,-166.771,1.1649188075355141,95.83508119246449
20,-163.726,1.13417962076754,95.86582037923246
21,-160.683,2.1037261489912,95.8962738510088
22,-157.641,3.0735556665666053,95.9264443334334
23,-154.600,0.0,95.95633453751434
24,-151.560,2.014052840338735,95.98594715966127
25,-148.521,1.9847151182813718,96.01528488171863
26,-145.484,0.0,96.04435037099908
27,-142.447,0.9268537196832085,96.07314628031679
28,-139.412,3.898324751979189,96.10167524802081
29,-136.379,4.870060101971603,96.1299398980284
30,-133.346,1.8420571601416782,96.15794283985832
31,-130.314,2.814313331335754,96.18568666866425
32,-127.284,1.7868260347319307,96.21317396526807
33,-124.255,1.7595927038068027,96.2404072961932
34,-121.227,0.7326107863020326,96.26738921369797
35,-118.200,0.0,96.29412225580893
36,-115.175,0.6793910536458014,96.3206089463542
37,-112.150,1.6531482050032196,96.34685179499678
38,-109.127,1.6271467027320625,96.37285329726794
39,-106.105,0.6013840653994862,96.39861593460051
40,-103.084,3.5758578256377547,96.42414217436225
41,-100.065,0.5505655301108447,96.44943446988916
42,-97.046,1.525504739481164,96.47449526051884
43,-94.029,0.5006730283761982,96.4993269716238
44,-91.013,0.0,96.52393201464484
45,-87.998,2.4516872128756404,96.54831278712436
46,-84.984,1.427528327260319,96.57247167273968
47,-81.972,2.403588958663576,96.59641104133642
48,-78.960,1.3798667510381932,96.6201332489618
49,-75.950,0.3563593621019834,96.64364063789802
50,-72.941,1.333064463304467,96.66693553669553
51,-69.933,1.3099797397935333,96.69002026020647
52,-66.927,1.287102890382144,96.71289710961786
53,-63.921,1.2644316275148952,96.7355683724851
54,-60.917,0.24196367723479284,96.75803632276521
55,-57.914,1.2196967791498423,96.78030322085016
56,-54.912,1.1976286863997103,96.80237131360029
57,-51.911,1.175757165622457,96.82424283437754
58,-48.912,2.154079996921112,96.84592000307889
59,-45.913,0.0,96.86740502616959
60,-42.916,1.111299903283367,96.88870009671663
61,-39.920,2.0901926055780535,96.90980739442195
62,-36.925,1.069270914344159,96.93072908565584
63,-33.931,0.048532676509708494,96.95146732349029
64,-30.939,1.027975752267693,96.9720242477323
65,-27.947,0.007598015042773909,96.99240198495723
66,-24.957,0.9873973514579006,97.0126026485421
67,-21.968,0.9673716613010157,97.03262833869898
68,-18.980,0.9475188574916587,97.05248114250834
69,-15.993,0.9278368660476985,97.0721631339523
70,-13.008,0.0,97.09167637394806
71,-10.023,0.0,97.1110229103812
72,-7.040,0.0,97.13020477813897
73,-4.058,0.0,97.14922399914376
74,-1.077,0.8319174176137238,97.16808258238628
75,1.903,0.0,97.18678252395898
76,4.881,0.0,97.20532580708941
77,7.859,0.0,97.22371440217351
78,10.835,1.7580497331910294,97.24195026680897
79,13.810,0.7399646541714588,97.26003534582854
80,16.784,1.7220284286665901,97.27797157133341
81,19.757,0.0,97.2957608627265
82,22.728,0.6865948732541369,97.31340512674586
83,25.699,0.6690937425020564,97.33090625749794
84,28.668,0.0,97.34826613649099
85,31.636,2.634513367331678,97.36548663266832
86,34.603,0.617430397558266,97.38256960244173
87,37.569,0.0,97.39951688972478
88,40.534,0.0,97.41633032596613
89,43.497,0.5669882698170596,97.43301173018294
90,46.460,0.5504370910058611,97.44956290899414
91,49.421,0.0,97.46598565665379
92,52.381,0.5177182449155993,97.4822817550844
93,55.340,1.5015470260896677,97.49845297391033
94,58.297,0.0,97.51450107049108
95,61.254,0.4695722100454276,97.53042778995457
96,64.209,0.45376513476936964,97.54623486523063
97,67.164,2.4380759829158194,97.56192401708418
98,70.117,0.42250304585135723,97.57749695414864
99,73.069,0.40704462704069044,97.59295537295931
100,76.020,2.3916990420133857,97.60830095798661
101,78.969,2.376464618330502,97.6235353816695
102,81.918,3.3613396955512513,97.63866030444875
103,84.865,3.346322625199676,97.65367737480032
104,87.811,1.3314117707312505,97.66858822926875
105,90.757,1.316605507499645,97.68339449250035
106,93.700,2.3019022227232995,97.6980977772767
107,96.643,2.287300315452157,97.71269968454784
108,99.585,3.272798196534268,97.72720180346573
109,102.525,2.2583942885824513,97.74160571141755
110,105.465,5.2440870259410275,97.75591297405897
111,108.403,1.229874854652408,97.77012514534759
112,111.340,3.215756232423786,97.78424376757621
113,114.276,3.201729628593796,97.7982703714062
114,117.211,2.1877935240991775,97.81220647590082
115,120.144,3.173946411441449,97.82605358855855
116,123.077,1.1601867946535407,97.83981320534646
117,126.008,1.1465131892664857,97.85348681073351
118,128.938,2.1329241222760515,97.86707587772395
119,131.868,1.1194181321094447,97.88058186789056
120,134.795,1.1059937685919579,97.89400623140804
121,137.722,6.092649592913588,97.90735040708641
122,140.648,4.07938417759577,97.92061582240423
123,143.572,1.0661961064579941,97.933803893542
124,146.496,5.0530839745844816,97.94691602541552
125,149.418,3.0400463882908184,97.95995361170918
126,152.339,1.0270819650907015,97.9729180349093
127,155.259,1.014189333662486,97.98581066633751
128,158.178,2.0013671338159185,97.99863286618408
129,161.096,2.9886140164588255,98.01138598354117
130,164.012,3.975928643563691,98.02407135643631
131,166.928,0.9633096881343874,98.03669031186561
132,169.842,2.9507558341727957,98.0492441658272
133,172.755,1.9382657766455083,98.06173422335449
134,175.667,3.9258382214504763,98.07416177854952
135,178.578,0.913471885383629,98.08652811461637
136,181.488,1.9011654961056053,98.0988345038944
137,184.397,2.888917792108387,98.11108220789161
138,187.304,3.876727522681932,98.12327247731807
139,190.211,0.8645934478808925,98.13540655211911
140,193.116,1.8525143384912326,98.14748566150877
141,196.020,2.840488975996891,98.15951102400311
142,198.923,0.8285161525464986,98.1714838474535
143,201.825,3.8165946709199687,98.18340532908003
144,204.726,3.8047233444952013,98.1952766555048
145,207.625,1.7929009972147298,98.20709900278527
146,210.524,3.781126463552411,98.21887353644759
147,213.421,1.7693985884800298,98.23060141151997
148,216.318,0.7577162274340452,98.24228377256595
149,219.213,2.746078246282167,98.25392175371783
150,222.107,2.7344835212900733,98.26551647870993
151,225.000,0.7229309390880445,98.27706906091196
152,227.891,0.7114193966376661,98.28858060336233
153,230.782,1.6999478011984195,98.30005219880158
154,233.672,1.6885150702944287,98.31148492970557
155,236.560,2.6771201316810505,98.32287986831895
156,239.447,0.6657619233115781,98.33423807668842
157,242.333,0.6544393933039174,98.34556060669608
158,245.218,1.6431514999071908,98.35684850009281
159,248.102,1.6318972114684556,98.36810278853154
160,250.985,3.620675506399337,98.37932449360066
161,253.867,2.6094853731426895,98.39051462685731
162,256.748,3.5983258101392863,98.40167418986071
163,259.627,0.5871958257944669,98.41280417420553
164,262.505,2.5760944384447697,98.42390556155523
165,265.383,2.56502067632465,98.43497932367535
166,268.259,0.5539735775330996,98.4460264224669
167,271.134,1.542952190000321,98.45704780999968
168,274.008,1.5319555714544038,98.4680444285456
169,276.880,4.520982789387958,98.47901721061204
170,279.752,1.5100329210248162,98.48996707897518
171,282.623,0.0,98.50089494671334
172,285.492,1.488198282759683,98.51180171724032
173,288.360,0.47731171566131536,98.52268828433868
174,291.228,1.466444467806781,98.53355553219322
175,294.094,1.4555956645758386,98.54440433542416
176,296.959,1.4447644408794247,98.55523555912058
177,299.823,1.433949941126329,98.56605005887367
178,302.685,3.423151319189799,98.5768486808102
179,305.547,0.41236773837428586,98.58763226162571
180,308.408,1.4015983713820503,98.59840162861795
181,311.267,4.390842400279823,98.60915759972018
182,314.126,1.3800990164655218,98.61990098353448
183,316.983,0.0,98.63063257936517
184,319.839,2.358646822747943,98.64135317725206
185,322.694,1.3479364419961826,98.65206355800382
186,325.548,2.337235506768664,98.66276449323134
187,328.401,3.3265432546189686,98.67345674538103
188,331.253,3.315858932231791,98.68414106776821
189,334.103,3.305181795389643,98.69481820461036
190,336.953,2.294511108939446,98.70548889106055
191,339.801,3.2838461467592595,98.71615385324074
192,342.649,4.273186191724918,98.72681380827508
193,345.495,4.26253053567666,98.73746946432334
194,348.340,4.251878479385866,98.74812152061413
195,351.184,2.2412293325216552,98.75877066747834
196,354.027,3.2305824136175687,98.76941758638243
197,356.869,5.219937050038226,98.78006294996177
198,359.709,4.20929257794603,98.79070742205397
199,362.549,5.198648342267774,98.80135165773223
200,365.388,2.1880036966612977,98.8119963033387
201,368.225,3.1773580034822118,98.82264199651779
202,371.061,4.166710633750526,98.83328936624947
203,373.897,0.15606096711728412,98.84393903288272
204,376.731,1.1454083918312676,98.85459160816873
205,379.564,3.134752304705657,98.86524769529434
206,382.396,3.1240921110846642,98.87590788891534
207,385.227,4.113427224810195,98.8865727751898
208,388.057,3.1027570681885805,98.89724293181142
209,390.885,5.092081071957139,98.90791892804286
210,393.713,5.081398675250895,98.9186013247491
211,396.539,2.07070932556924,98.92929067443076
212,399.365,1.0600124787426068,98.9399875212574
213,402.189,2.0493075988990768,98.95069240110092
214,405.012,2.0385941584310956,98.9614058415689
215,407.835,2.0278716379621358,98.97212836203786
216,410.656,2.017139526313315,98.98286047368669
217,413.476,3.006397320470086,98.99360267952991
218,416.295,2.9956445255489257,99.00435547445107
219,419.112,0.9848806547639555,99.01511934523604
220,421.929,0.9741052293936008,99.0258947706064
221,424.745,3.963317778747296,99.0366822212527
222,427.559,3.952517840132103,99.0474821598679
223,430.373,0.9417049588194288,99.05829504118057
224,433.185,3.9308786880116173,99.06912131198838
225,435.996,2.9200385888086373,99.07996141119136
226,438.807,0.9091842301748017,99.0908157698252
227,441.616,0.8983151889053289,99.10168481109467
228,444.424,1.8874310495931041,99.1125689504069
229,447.231,0.8765314045952692,99.12346859540473
230,450.037,0.8656158539999126,99.13438414600009
231,452.842,1.8546840055927305,99.14531599440727
232,455.645,1.8437354748237311,99.15626452517627
233,458.448,2.8327698847737963,99.1672301152262
234,461.250,0.8217868661214283,99.17821313387857
235,464.050,2.8107860571093966,99.1892139428906
236,466.849,0.7997671035113854,99.20023289648861
237,469.648,5.788729658598669,99.21127034140133
238,472.445,1.7776733831067446,99.22232661689326
239,475.241,3.766597945202051,99.23340205479795
240,478.036,0.7555030204485575,99.24449697955144
241,480.830,1.7443882917744986,99.2556117082255
242,483.623,1.7332534494390046,99.266746550561
243,486.415,0.7220981909987501,99.27790180900125
244,489.206,0.7109222212746147,99.28907777872539
245,491.996,2.6997252523183874,99.30027474768161
246,494.784,0.6885070033794136,99.31149299662059
247,497.572,0.0,99.3227327991288
248,500.358,1.6660055783381722,99.33399442166183
249,503.144,3.6547218764222436,99.34527812357776
250,505.928,1.6434158428295689,99.35658415717043
251,508.712,2.63208723229711,99.36791276770289
252,511.494,1.620735806559395,99.3792641934406
253,514.275,3.6093613343151105,99.39063866568489
254,517.055,3.597963591193789,99.40203640880621
255,519.834,2.586542359722472,99.41345764027753
256,522.612,1.5750974292923559,99.42490257070764
257,525.389,4.563628596125511,99.43637140387449
258,528.165,4.552135663241458,99.44786433675854
259,530.940,5.5406184404238985,99.4593815595761
260,533.713,6.529076744187336,99.47092325581266
261,536.486,6.517510397743777,99.48248960225622
262,539.257,3.5059192309693543,99.49408076903065
263,542.028,5.494303080371012,99.50569691962899
264,544.797,3.482661789053168,99.51733821094683
265,547.566,3.470995206684364,99.52900479331564
266,550.333,5.459303189463938,99.54069681053606
267,553.099,3.4475856000886864,99.55241439991131
268,555.864,5.43584230771954,99.56415769228046
269,558.629,3.424073187948167,99.57592681205183
270,561.392,4.4122781227637375,99.58772187723626
271,564.154,3.4004570005194665,99.59954299948053
272,566.915,2.3886097158993778,99.61139028410062
273,569.674,4.376736169884921,99.62326383011508
274,572.433,2.3648362697216356,99.63516373027836
275,575.191,0.35290992888580774,99.64709007111419
276,577.948,2.3409570670511357,99.65904293294886
277,580.703,0.0,99.67102238994457
278,583.458,0.31697148986722823,99.68302851013277
279,586.211,0.30493864455246467,99.69506135544754
280,588.964,0.0,99.70712098175886
281,591.715,1.280792561093989,99.71920743890601
282,594.466,1.2686792292691393,99.73132077073086
283,597.215,0.256538984888806,99.7434610151112
284,599.963,2.244371796005865,99.75562820399414
285,602.710,0.2321776365706114,99.76782236342939
286,605.457,4.219956486397351,99.78004351360265
287,608.202,1.207708331131144,99.79229166886886
288,610.946,3.1954331622143712,99.80456683778563
289,613.689,4.183130976853462,99.81686902314654
290,616.431,2.170801777985531,99.82919822201447
291,619.172,2.1584455742450643,99.84155442575494
292,621.911,0.14606237993054094,99.85393762006946
293,624.650,2.1336522149711357,99.86634778502886
294,627.388,2.121215104893352,99.87878489510665
295,630.125,1.1087510807877266,99.89124891921227
296,632.860,2.0962601792754185,99.90373982072458
297,635.595,4.083742442474971,99.91625755752503
298,638.328,3.0711979179688598,99.92880208203114
299,641.061,3.058626658770237,99.94137334122976
300,643.792,0.046028723289609275,99.95397127671039
301,646.523,1.0334041753014134,99.96659582469859
302,649.252,1.0207530839107335,99.97924691608927
303,651.980,2.0080755235199774,99.99192447648002
304,654.708,2.9953715737955235,100.00462842620448
305,657.434,1.9826413196343253,100.01735868036567
306,660.159,1.9698848511307148,100.03011514886929
307,662.883,0.9571022635428932,100.0428977364571
308,665.606,0.9442936572597205,100.05570634274028
309,668.328,0.931459137767348,100.06854086223265
310,671.049,0.9185988156158231,100.08140118438418
311,673.769,1.9057128063858357,100.09428719361416
312,676.488,0.0,100.10719876934469
313,679.206,0.0,100.12013578603386
314,681.923,0.0,100.13309811320923
315,684.639,0.0,100.1460856155011
316,687.354,0.0,100.15909815267581
317,690.067,0.0,100.17213557966917
318,692.780,0.0,100.18519774661975
319,695.492,1.8017155010978172,100.19828449890218
320,698.202,0.0,100.21139567716057
321,700.912,0.7754688826582594,100.22453111734174
322,703.621,0.7623093492712911,100.23769065072871
323,706.328,0.0,100.25087410397387
324,709.035,0.735918700867586,100.26408129913241
325,711.740,2.722687946304319,100.27731205369568
326,714.444,0.7094338193755476,100.29056618062445
327,717.148,0.0,100.30384348838231
328,719.850,1.6828562190310095,100.31714378096899
329,722.552,0.6695331420463475,100.33046685795365
330,725.252,1.656187485491671,100.34381251450833
331,727.951,2.642819458558833,100.35718054144117
332,730.649,2.6294292747702173,100.37057072522978
333,733.347,2.616017151945343,100.38398284805466
334,736.043,5.60258331216761,100.39741668783239
335,738.738,3.5891279817508774,100.41087201824912
336,741.432,7.575651391206193,100.4243486087938
337,744.125,6.562153775208429,100.43784622479157
338,746.817,3.5486353725629556,100.45136462743704
339,749.508,2.5350964261722737,100.46490357382773
340,752.198,2.5215371830027067,100.4784628169973
341,754.887,0.5079578940510601,100.49204210594894
342,757.575,0.49435881431126916,100.50564118568873
343,760.262,0.48074020274107454,100.51925979725893
344,762.948,0.0,100.53289767777133
345,765.633,1.4534454395594167,100.54655456044058
346,768.317,0.0,100.5602301746176
347,770.999,0.4260757541771909,100.57392424582281
348,773.681,0.0,100.58763649577952
349,776.362,1.3986333575527254,100.60136664244727
350,779.042,1.3848855999448233,100.61511440005518
351,781.720,0.0,100.62887947913525
352,784.398,1.3573384134442819,100.64266158655572
353,787.075,2.3435395744456002,100.6564604255544
354,789.751,0.0,100.67027569577203
355,792.425,1.3158929067143958,100.6841070932856
356,795.099,2.3020456893583514,100.69795431064165
357,797.771,1.2881829631103159,100.71181703688968
358,800.443,0.27430504238454034,100.72569495761546
359,803.114,0.0,100.73958775497432
360,805.783,1.246504892275425,100.75349510772458
361,808.452,1.2325833087392226,100.76741669126078
362,811.119,3.218647822352878,100.78135217764712
363,813.786,0.0,100.79530123565073
364,816.451,2.1907364692250013,100.809263530775
365,819.116,2.1767612747069904,100.82323872529301
366,821.779,1.1627735217192452,100.83722647828075
367,824.442,0.14877355434946082,100.85122644565054
368,827.103,0.0,100.86523828018431
369,829.763,0.12073836843299546,100.879261631567
370,832.423,0.10670385358017143,100.89329614641983
371,835.081,0.0,100.9073414683337
372,837.739,1.0786027620975176,100.92139723790248
373,840.395,1.0645369072436353,100.93546309275636
374,843.050,1.0504613324047796,100.94953866759522
375,845.705,1.0363764057780713,100.96362359422193
376,848.358,1.0222824984243317,100.97771750157567
377,851.010,1.0081799842346584,100.99182001576534
378,853.662,0.0,101.00593076010286
379,856.312,0.9799506448635782,101.02004935513642
380,858.961,0.9658245813159994,101.034175418684
381,861.610,0.951691434133437,101.04830856586656
382,864.257,0.9375515908585896,101.06244840914141
383,866.903,1.9234054416644142,101.07659455833559
384,869.549,1.9092533793208446,101.09074662067916
385,872.193,0.8950957991614246,101.10490420083858
386,874.836,2.8809330990500115,101.11906690094999
387,877.478,3.866765679347381,101.13323432065262
388,880.120,5.852593942877945,101.14740605712205
389,882.760,6.838418294896357,101.16158170510364
390,885.399,5.824239143054228,101.17576085694577
391,888.037,4.810056897366778,101.18994310263322
392,890.675,1.7958719701794479,101.20412802982055
393,893.311,2.7816847761346395,101.21831522386536
394,895.946,1.767495732138329,101.23250426786167
395,898.580,1.7533052573267014,101.2466947426733
396,901.214,1.7391137730329262,101.26088622696707
397,903.846,1.72492170275369,101.27507829724631
398,906.477,1.710729472115915,101.28927052788409
399,909.107,0.6965375088434484,101.30346249115655
400,911.737,1.682346242723682,101.31765375727632
401,914.365,3.6681561055742122,101.33184389442579
402,916.992,0.6539675312095596,101.34603246879044
403,919.618,0.6397809554077583,101.36021904459224
404,922.244,0.62559681587706,101.37440318412294
405,924.868,0.6114155522225957,101.3885844477774
406,927.491,1.5972376059130227,101.40276239408698
407,930.113,0.5830634202471998,101.4169365797528
408,932.735,2.568893440320835,101.43110655967917
409,935.355,0.5547281129931889,101.44527188700681
410,937.974,0.0,101.45943211314636
411,940.592,1.526413212188487,101.47358678781151
412,943.210,0.5122645409474984,101.4877354590525
413,945.826,0.0,101.50187767328937
414,948.441,0.4839870246546383,101.51601297534536
415,951.056,0.0,101.53014090848018
416,953.669,1.4557389855766019,101.5442610144234
417,956.281,1.4416271665922409,101.55837283340776
418,958.893,0.4275240957974802,101.57247590420252
419,961.503,0.41343023585318406,101.58656976414682
420,964.112,2.3993460508170728,101.60065394918293
421,966.721,0.38527200611028434,101.61472799388972
422,969.328,3.3712085684841355,101.62879143151586
423,971.935,0.3571562059866835,101.64284379401332
424,974.540,0.0,101.65688461207047
425,977.144,1.3290865848543092,101.67091341514569
426,979.748,2.3150702684994684,101.68492973150053
427,982.350,0.0,101.69893308823308
428,984.952,0.0,101.71292301131133
429,987.552,0.27310097439348624,101.72689902560651
430,990.152,0.25913934507357794,101.74086065492642
431,992.750,0.0,101.75480742204876
432,995.348,0.0,101.76873884875445
433,997.944,1.217345544138965,101.78265445586104
434,1000.540,0.20344623674407103,101.79655376325593
435,1003.134,0.0,101.81043628992985
436,1005.728,1.175698445989923,101.82430155401008
437,1008.321,0.0,101.83814907279383
438,1010.912,1.1480216372184202,101.85197836278158
439,1013.503,1.1342110602895588,101.86578893971044
440,1016.092,0.0,101.87958031858744
441,1018.681,0.0,101.89335201372288
442,1021.269,0.0,101.9071035387637
443,1023.856,0.0,101.92083440672681
444,1026.441,0.0,101.93454413003238
445,1029.026,1.0517677794627929,101.94823222053721
446,1031.610,1.0381018104318827,101.96189818956812
447,1034.193,0.024458452044854084,101.97554154795515
448,1036.775,1.01083819393493,101.98916180606507
449,1039.355,0.0,102.00275847383459
450,1041.935,0.0,102.01633106080374
451,1044.514,0.0,102.0298790761492
452,1047.092,0.9565979712823349,102.04340202871767
453,1049.669,0.0,102.05689942705916
454,1052.245,0.9296292205396384,102.07037077946036
455,1054.820,0.9161844060220403,102.08381559397796
456,1057.394,0.0,102.097233378472
457,1059.967,2.889376359360824,102.11062364063918
458,1062.539,1.8760141119537366,102.12398588804626
459,1065.110,0.8626803718366745,102.13731962816333
460,1067.681,1.8493756316028396,102.15062436839716
461,1070.250,2.8361003838754044,102.1638996161246
462,1072.818,2.8228551212741735,102.17714487872583
463,1075.385,2.8096403363822446,102.19035966361776
464,1077.951,1.7964565217126989,102.2035434782873
465,1080.517,1.7833041696751764,102.21669583032482
466,1083.081,1.7701837725426515,102.22981622745735
467,1085.644,1.757095822418023,102.24290417758198
468,1088.207,2.744040811200776,102.25595918879922
469,1090.768,0.7310192305536845,102.26898076944632
470,1093.329,3.718031571869446,102.28196842813055
471,1095.888,3.7050783262373557,102.29492167376264
472,1098.447,3.6921599844099546,102.30784001559005
473,1101.004,3.6792770367696903,102.32072296323031
474,1103.561,0.6664299732956209,102.33357002670438
475,1106.116,0.6536192835300199,102.34638071646998
476,1108.671,1.6408454565450796,102.35915454345492
477,1111.225,0.6281089809095448,102.37189101909046
478,1113.777,0.0,102.38458965534461
479,1116.329,0.0,102.39724996475549
480,1118.880,1.5901285395353142,102.40987146046469
481,1121.430,0.577546343749475,102.42245365625053
482,1123.979,0.0,102.43499606656152
483,1126.527,0.5525017934504177,102.44749820654958
484,1129.074,0.5400404078965408,102.45995959210346
485,1131.620,2.5276202601179847,102.47237973988202
486,1134.165,0.5152418326524213,102.48475816734758
487,1136.709,1.502905607200688,102.49709439279931
488,1139.252,4.490612064593506,102.5093879354065
489,1141.794,3.4783616847580987,102.5216383152419
490,1144.335,5.466154946684853,102.53384505331515
491,1146.875,3.453992328394037,102.54600767160596
492,1149.415,1.4418743069023634,102.55812569309764
493,1151.953,2.4298013581897493,102.57019864181025
494,1154.490,1.4177739571659487,102.58222604283405
495,1157.027,2.405792577637186,102.59420742236281
496,1159.562,0.39385769227284584,102.60614230772715
497,1162.097,2.3819697725721056,102.6180302274279
498,1164.630,4.370129288830654,102.62987071116935
499,1167.163,2.358336710107295,102.6416632898927
500,1169.695,2.3465925041906672,102.65340749580933
501,1172.225,2.3348971375658465,102.66510286243415
502,1174.755,2.323251075381023,102.67674892461898
503,1177.284,1.3116547814142052,102.6883452185858
504,1179.812,2.3001087180398514,102.69989128196015
505,1182.338,2.2886133461955325,102.71138665380447
506,1184.864,4.277169125348593,102.72283087465141
507,1187.389,4.2657765134627965,102.7342234865372
508,1189.913,3.2544359669650476,102.74556403303495
509,1192.436,3.243147940711978,102.75685205928802
510,1194.959,3.231912887956696,102.7680871120433
511,1197.480,3.2207312603153326,102.77926873968467
512,1200.000,6.209603507733817,102.79039649226618
513,1202.519,5.198530078454496,102.8014699215455
514,1205.038,8.187511418982751,102.81248858101725
515,1207.555,8.176547974053747,102.82345202594625
516,1210.071,7.165640186599049,102.83435981340095
517,1212.587,6.154788497713241,102.84521150228676
518,1215.101,4.143993346620675,102.85600665337932
519,1217.615,4.133255170642059,102.86674482935794
520,1220.128,3.1225744051612168,102.87742559483878
521,1222.639,5.1119514835915965,102.8880485164084
522,1225.150,4.1013868373430995,102.8986131626569
523,1227.660,8.090880895788615,102.90911910421138
524,1230.169,5.080434086230753,102.91956591376925
525,1232.677,8.070046833868503,102.9299531661315
526,1235.184,6.059719561763828,102.94028043823617
527,1237.690,4.049452690808437,102.95054730919156
528,1240.195,6.039246639690376,102.96075336030962
529,1242.699,6.0291018248606605,102.97089817513934
530,1245.202,3.019018660500052,102.98098133949995
531,1247.704,4.008997558485589,102.99100244151441
532,1250.206,2.9990389283573364,103.00096107164266
533,1252.706,5.98914317728503,103.01085682271497
534,1255.206,2.9793107100347243,103.02068928996528
535,1257.704,4.969541928935428,103.03045807106457
536,1260.202,6.9598372338458745,103.04016276615413
537,1262.698,7.950197022121046,103.04980297787895
538,1265.194,7.940621688578915,103.05937831142109
539,1267.689,6.931111625467096,103.0688883745329
540,1270.183,7.921667222429491,103.07833277757051
541,1272.676,9.912288866472991,103.08771113352701
542,1275.168,11.9029769419341,103.0970230580659
543,1277.659,12.893731830445589,103.10626816955441
544,1280.149,14.884553910903207,103.11544608909679
545,1282.638,12.875443559432313,103.12455644056769
546,1285.126,10.866401149354516,103.13359885064548
547,1287.613,11.85742705115436,103.14257294884564
548,1290.100,4.848521632446051,103.15147836755395
549,1292.585,8.839685257939962,103.16031474206004
550,1295.070,6.8309182894094675,103.16908171059053
551,1297.553,7.822221085657489,103.17777891434251
552,1300.036,3.8135940024831996,103.1864059975168
553,1302.517,8.805037392648728,103.19496260735127
554,1304.998,8.796551605845693,103.20344839415431
555,1307.478,4.788136988662018,103.21186301133798
556,1309.957,8.779793884548496,103.2202061154515
557,1312.435,11.771522633785509,103.22847736621449
558,1314.912,13.76332357344964,103.23667642655036
559,1317.388,12.755197037380327,103.24480296261967
560,1319.863,9.747143356146623,103.25285664385338
561,1322.337,15.739162857013753,103.26083714298625
562,1324.811,15.731255863909809,103.26874413609019
563,1327.283,11.723422697392465,103.27657730260754
564,1329.755,10.715663674615513,103.28433632538449
565,1332.225,13.707979109295678,103.29202089070432
566,1334.695,14.700369311679182,103.29963068832082
567,1337.163,13.692834588508418,103.30716541149158
568,1339.631,15.685375242988655,103.31462475701134
569,1342.098,17.677991574754657,103.32200842524534
570,1344.564,19.670683879837355,103.32931612016264
571,1347.029,18.663452450630516,103.33654754936948
572,1349.493,21.656297575857437,103.34370242414256
573,1351.956,23.64921954053753,103.35078045946247
574,1354.418,21.64221862595305,103.35778137404695
575,1356.880,15.635295109615726,103.36470489038427
576,1359.340,20.628449265233456,103.37155073476654
577,1361.800,17.621681362676938,103.37831863732306
578,1364.258,18.61499166794634,103.38500833205366
579,1366.716,15.60838044313796,103.39161955686204
580,1369.172,13.6018479464109,103.3981520535891
581,1371.628,10.595394431953693,103.4046055680463
582,1374.083,8.58902014995104,103.41097985004896
583,1376.537,4.582725346550433,103.41727465344957
584,1378.990,5.576510263828752,103.42348973617125
585,1381.442,8.570375139759008,103.42962486024099
586,1383.893,4.564320208177023,103.43567979182298
587,1386.344,3.558345698747999,103.441654301252
588,1388.793,3.5524518369332725,103.44754816306673
589,1391.241,7.546638843956913,103.45336115604309
590,1393.689,4.540906936772444,103.45909306322756
591,1396.135,4.535256328029433,103.46474367197057
592,1398.581,5.529687226040224,103.47031277395978
593,1401.026,5.52419983474654,103.47580016525346
594,1403.470,4.518794353686232,103.48120564631377
595,1405.913,3.5134709779598268,103.48652902204017
596,1408.355,3.508229898197243,103.49177010180276
597,1410.796,2.5030713005245104,103.49692869947549
598,1413.236,5.497995366530347,103.50200463346965
599,1415.675,2.4930022732328325,103.50699772676717
600,1418.114,1.4880921930461568,103.51190780695384
601,1420.551,2.483265293747152,103.51673470625285
602,1422.988,4.478521738442055,103.52147826155795
603,1425.423,3.473861685533123,103.52613831446688
604,1427.858,3.4692852886853274,103.53071471131467
605,1430.292,8.46479269679297,103.53520730320703
606,1432.725,3.4603840539463704,103.53961594605363
607,1435.157,7.456059499398592,103.54394050060141
608,1437.588,8.451819167531951,103.54818083246805
609,1440.018,7.447663187824844,103.55233681217516
610,1442.447,6.4435916848183155,103.55640831518168
611,1444.876,10.439604778082725,103.56039522191728
612,1447.303,7.435702582184447,103.56429741781555
613,1449.730,9.431885206652481,103.56811479334752
614,1452.156,6.428152755945206,103.5718472440548
615,1454.580,9.424505329416945,103.57549467058305
616,1457.004,11.420943021284643,103.57905697871536
617,1459.427,11.417465920594609,103.58253407940539
618,1461.849,11.414074111189066,103.58592588881093
619,1464.270,9.410767671672915,103.58923232832709
620,1466.690,8.407546675380331,103.59245332461967
621,1469.110,10.404411190341406,103.5955888096586
622,1471.528,5.401361279248945,103.59863872075105
623,1473.946,3.3983969994249463,103.60160300057505
624,1476.362,4.395518402787388,103.60448159721261
625,1478.778,3.392725535816865,103.60727446418313
626,1481.193,3.390018439523189,103.60998156047681
627,1483.607,0.3873971494121946,103.6126028505878
628,1486.020,0.0,103.61513830454777
629,1488.432,0.3824121020409166,103.61758789795908
630,1490.843,3.3800483879718257,103.61995161202817
631,1493.253,0.37777056640109663,103.6222294335989
632,1495.663,2.375578644814084,103.62442135518592
633,1498.071,2.3734726249920612,103.62652737500794
634,1500.479,0.0,103.6285474970211
635,1502.886,1.36951826904766,103.63048173095234
636,1505.292,0.0,103.63233009233268
637,1507.697,2.365907397469428,103.63409260253057
638,1510.101,0.0,103.63576928878531
639,1512.504,1.3626398157597777,103.63736018424022
640,1514.906,2.361134672023823,103.63886532797618
641,1517.307,0.0,103.64028476504477
642,1519.708,0.0,103.64161854650177
643,1522.107,2.3571332705595722,103.64286672944043
644,1524.506,0.0,103.64402937702474
645,1526.904,4.3548934414771026,103.6451065585229
646,1529.301,1.3539016506594521,103.64609834934055
647,1531.697,2.3529951689457818,103.64700483105422
648,1534.092,0.3521739085554998,103.6478260914445
649,1536.486,4.35143777547043,103.64856222452957
650,1538.879,3.350786669401643,103.64921333059836
651,1541.272,4.350220483755976,103.64977951624402
652,1543.663,1.3497391056027936,103.6502608943972
653,1546.054,2.349342415640592,103.65065758435941
654,1548.444,2.3490302881637035,103.6509697118363
655,1550.832,1.3488025910289565,103.65119740897104
656,1553.220,3.348659185622239,103.65134081437776
657,1555.607,1.348599926825358,103.65140007317464
658,1557.994,1.348624662982516,103.65137533701748
659,1560.379,1.3487332358670585,103.65126676413294
660,1562.763,1.3489254806481057,103.6510745193519
661,1565.147,1.3492012258572714,103.65079877414273
662,1567.529,0.3495602933552533,103.65043970664475
663,1569.911,0.0,103.64999750170146
664,1572.292,3.35052764910607,103.64947235089393
665,1574.672,2.351135547425855,103.64886445257414
666,1577.051,0.3518259881016945,103.6481740118983
667,1579.429,0.3525987591398234,103.64740124086018
668,1581.807,1.3534536416755856,103.64654635832441
669,1584.183,0.3543904099400237,103.64560959005998
670,1586.559,0.0,103.6445911687734
671,1588.933,2.356508665857916,103.64349133414208
672,1591.307,0.3576896671522718,103.64231033284773
673,1593.680,0.35895158139037164,103.64104841860963
674,1596.052,0.36029414778198543,103.63970585221801
675,1598.423,2.361717098432621,103.63828290156738
676,1600.794,2.3632201583101704,103.63677984168983
677,1603.163,2.3648030452115734,103.63519695478843
678,1605.531,3.3664654697294907,103.63353453027051
679,1607.899,2.3682071352189666,103.63179286478103
680,1610.266,3.37002773776409,103.62997226223591
681,1612.632,0.3719269661446418,103.62807303385536
682,1614.997,3.373904501802727,103.62609549819727
683,1617.361,0.37596001880955043,103.62403998119045
684,1619.724,0.0,103.62190681616802
685,1622.086,0.0,103.6196963439008
686,1624.448,1.382591087369505,103.6174089126305
687,1626.808,0.0,103.61504487810325
688,1629.168,0.0,103.61260460360282
689,1631.527,1.3899115400160724,103.61008845998393
690,1633.885,1.3925031742942906,103.60749682570571
691,1636.242,0.0,103.60483008686487
692,1638.598,2.397911362770799,103.6020886372292
693,1640.954,2.40072712172919,103.59927287827081
694,1643.308,0.0,103.59638321919954
695,1645.662,1.4065799230038323,103.59342007699617
696,1648.014,2.4096161235540876,103.59038387644591
697,1650.366,0.0,103.58727505017168
698,1652.717,0.0,103.58409403866735
699,1655.067,0.4191587096687641,103.58084129033124
700,1657.417,1.4224827385006336,103.57751726149937
701,1659.765,0.42587758352124183,103.57412241647876
702,1662.112,2.4293427724190906,103.57065722758091
703,1664.459,0.0,103.56712217515495
704,1666.805,0.0,103.56351774762112
705,1669.150,1.4401555584959596,103.55984444150404
706,1671.494,0.0,103.5561027614661
707,1673.837,0.44770677965931327,103.55229322034069
708,1676.179,0.4515836608342738,103.54841633916573
709,1678.520,1.4555273527832355,103.54447264721676
710,1680.861,0.0,103.54046268204053
711,1683.201,0.46361301051193493,103.53638698948807
712,1685.539,1.4677538762516633,103.53224612374834
713,1687.877,0.471959352618768,103.52804064738123
714,1690.214,1.4762288686487466,103.52377113135125
715,1692.551,0.4805618449395155,103.51943815506048
716,1694.886,0.4849576936177016,103.5150423063823
717,1697.220,1.4894158183055737,103.51058418169443
718,1699.554,2.4939356140876328,103.50606438591237
719,1701.887,1.4985164674771454,103.50148353252285
720,1704.219,0.0,103.49684224361695
721,1706.550,2.5078588500764027,103.4921411499236
722,1708.880,0.5126191091571428,103.48738089084286
723,1711.209,3.5174378855207067,103.4825621144793
724,1713.537,0.5223145223247911,103.47768547767521
725,1715.865,2.527248353955855,103.47275164604414
726,1718.192,0.5322387059959368,103.46776129400406
727,1720.518,0.0,103.46271510481077
728,1722.843,1.5423862294087058,103.4576137705913
729,1725.167,1.547542007622937,103.45245799237706
730,1727.490,1.5527515198626105,103.44724848013739
731,1729.812,2.5580140471871857,103.44198595281281
732,1732.134,1.5633288616516978,103.4366711383483
733,1734.455,1.5686952262732916,103.43130477372671
734,1736.774,2.5741123949978686,103.42588760500213
735,1739.093,1.5795796126669188,103.42042038733308
736,1741.411,0.0,103.41490388501602
737,1743.729,0.5906611284814005,103.4093388715186
738,1746.045,1.596273870487039,103.40372612951296
739,1748.361,0.6019335490908162,103.39806645090918
740,1750.675,2.607639363111474,103.39236063688853
741,1752.989,0.0,103.38660949793679
742,1755.302,0.0,103.38081385387771
743,1757.614,2.625025466093831,103.37497453390617
744,1759.925,0.6309076233782349,103.36909237662177
745,1762.236,0.6368317699382118,103.36316823006179
746,1764.545,0.6427970482650665,103.35720295173493
747,1766.854,1.6488025913455573,103.35119740865444
748,1769.162,0.0,103.34515247737137
749,1771.469,0.660930955991816,103.33906904400818
750,1773.775,3.6670519957082064,103.3329480042918
751,1776.080,1.673209736412872,103.32679026358713
752,1778.385,1.679403263069645,103.32059673693036
753,1780.688,1.6856316509377791,103.31436834906222
754,1782.991,1.6918939655385543,103.30810603446145
755,1785.293,1.6981892626219661,103.30181073737803
756,1787.594,2.7045165881334725,103.29548341186653
757,1789.894,0.7108749781804562,103.28912502181954
758,1792.193,0.0,103.2827365410009
759,1794.492,0.0,103.27631895307904
760,1796.789,0.7301267483395009,103.2698732516605
761,1799.086,0.0,103.2634004403229
762,1801.382,0.7430984673513024,103.2569015326487
763,1803.677,0.0,103.25037755225819
764,1805.971,2.756170467156892,103.24382953284311
765,1808.265,0.0,103.23725851819974
766,1810.557,2.7693344377375837,103.23066556226242
767,1812.849,0.7759482708631964,103.2240517291368
768,1815.140,0.0,103.21741809313319
769,1817.430,2.7892342612001215,103.21076573879988
770,1819.719,2.7959042390434377,103.20409576095656
771,1822.007,0.0,103.19740926472755
772,1824.295,0.0,103.19070736557525
773,1826.581,1.8160088106667445,103.18399118933326
774,1828.867,1.8227381277599477,103.17726187224005
775,1831.152,0.8294794390279492,103.17052056097205
776,1833.436,1.836231587322942,103.16376841267706
777,1835.719,0.0,103.15700659500754
778,1838.002,0.8497637138459311,103.15023628615407
779,1840.283,1.8565413251214977,103.1434586748785
780,1842.564,0.8633250394524765,103.13667496054752
781,1844.844,0.0,103.12988635316584
782,1847.123,1.8769059265905383,103.12309407340946
783,1849.401,2.88370064734076,103.11629935265924
784,1851.678,1.8904965669659362,103.10950343303406
785,1853.955,0.0,103.10270756742423
786,1856.231,0.0,103.09591301952472
787,1858.506,0.9108789361313683,103.08912106386863
788,1860.780,0.917667014139468,103.08233298586053
789,1863.053,0.9244499181903052,103.0755500818097
790,1865.325,1.9312263410365347,103.06877365896347
791,1867.597,0.9379949644593779,103.06200503554062
792,1869.867,0.0,103.0552455407648
793,1872.137,2.9515034851023927,103.04849651489761
794,1874.406,2.958240690727834,103.04175930927217
795,1876.674,1.9649647136736093,103.03503528632639
796,1878.941,0.0,103.02832581963627
797,1881.208,1.9783677060506903,103.02163229394931
798,1883.473,0.0,103.01495610521778
799,1885.738,1.991701339368035,103.00829866063197
800,1888.002,1.9983386213461216,103.00166137865388
801,1890.265,1.0049543109498842,102.99504568905012
802,1892.528,2.011546967074551,102.98845303292545
803,1894.789,1.0181151372437682,102.98188486275623
804,1897.050,2.024657357576473,102.97534264242353
805,1899.310,2.031172152753385,102.96882784724662
806,1901.569,2.037658035983725,102.96234196401628
807,1903.827,3.0441135089719467,102.95588649102805
808,1906.084,3.050537061884256,102.94946293811574
809,1908.340,0.0569271733154153,102.94307282668458
810,1910.596,2.063282310255289,102.93671768974471
811,1912.851,2.0696009280555785,102.93039907194442
812,1915.105,2.0758814703965385,102.92411852960346
813,1917.358,2.082122369253426,102.91787763074657
814,1919.610,1.0883220448634177,102.91167795513658
815,1921.862,0.09447890569214223,102.90552109430786
816,1924.113,1.1005913484002718,102.89940865159973
817,1926.362,1.1066577578104102,102.89334224218959
818,1928.611,3.1126765068735267,102.88732349312647
819,1930.860,0.11864595663570299,102.8813540433643
820,1933.107,0.12456445620483692,102.87543554379516
821,1935.353,3.1304303427172755,102.86956965728272
822,1937.599,0.1362419413044904,102.86375805869551
823,1939.844,2.141997565059569,102.85800243494043
824,1942.088,3.14769551500423,102.85230448499577
825,1944.331,2.1533340800551315,102.84666591994487
826,1946.574,0.15891153699087113,102.84108846300913
827,1948.815,1.164426150418251,102.83557384958175
828,1951.056,2.1698761727392224,102.83012382726078
829,1953.296,2.1752598441176048,102.8247401558824
830,1955.535,1.1805753924454336,102.81942460755457
831,1957.773,0.18582103330996347,102.81417896669004
832,1960.011,3.190994969960073,102.80900503003993
833,1962.248,2.19609539327314,102.80390460672686
834,1964.483,2.2011204817214463,102.79887951827855
835,1966.718,3.2060684013390954,102.7939315986609
836,1968.953,2.210937305688603,102.7890626943114
837,1971.186,0.2157253358274147,102.78427466417259
838,1973.418,1.2204306202747688,102.77956937972523
839,1975.650,1.2250512749782843,102.77494872502172
840,1977.881,4.229585403280481,102.77041459671952
841,1980.111,1.2340310958856975,102.7659689041143
842,1982.340,3.2383864308265657,102.76161356917343
843,1984.569,2.2426494734308164,102.75735052656918
844,1986.797,1.2468182762877547,102.75318172371225
845,1989.023,1.2508908792150066,102.749109120785
846,1991.249,1.2548653092253517,102.74513469077465
847,1993.474,3.2587395804931134,102.74126041950689
848,1995.699,2.2625116943209775,102.73748830567902
849,1997.922,3.266179639106568,102.73382036089343
850,2000.145,3.2697413903093206,102.73025860969068
851,2002.367,1.2731949104168336,102.72680508958317
852,2004.588,3.2765381489116976,102.7234618510883
853,2006.808,3.2797690422382004,102.7202309577618
854,2009.028,4.2828855137689175,102.71711448623108
855,2011.246,4.2858854737713585,102.71411452622864
856,2013.464,2.2887668193747004,102.7112331806253
857,2015.681,3.291527434536391,102.70847256546361
858,2017.898,3.294165190008897,102.7058348099911
859,2020.113,1.2966779433061362,102.70332205669386
860,2022.328,3.29906353867041,102.70093646132959
861,2024.541,3.3013198070390217,102.69868019296098
862,2026.754,2.303444566010768,102.69655543398923
863,2028.966,2.305435619812755,102.69456438018724
864,2031.178,1.3072907592670617,102.69270924073294
865,2033.388,2.3090077617572433,102.69099223824276
866,2035.598,1.3105843911952064,102.6894156088048
867,2037.807,2.3120183979877,102.6879816020123
868,2040.015,3.3133075190031605,102.68669248099684
869,2042.222,2.3144494775381474,102.68555052246185
870,2044.429,2.315441983284174,102.68455801671583
871,2046.634,3.31628273229434,102.68371726770566
872,2048.839,2.316969406949866,102.68303059305013
873,2051.043,4.3174996759270385,102.68250032407296
874,2053.247,4.317871194163516,102.68212880583648
875,2055.449,3.3180816028252877,102.68191839717471
876,2057.651,3.3181285292731673,102.68187147072683
877,2059.851,2.3180095870295645,102.68199041297044
878,2062.052,3.3177223757449923,102.68227762425501
879,2064.251,3.3172644811649405,102.68273551883506
880,2066.449,1.3166334750963102,102.68336652490369
881,2068.647,0.31582691537428786,102.68417308462571
882,2070.844,3.314842345828879,102.68515765417112
883,2073.040,1.3136772962515693,102.68632270374843
884,2075.235,2.312329282362086,102.68767071763791
885,2077.429,2.31079580577493,102.68920419422507
886,2079.623,1.309074353966139,102.69092564603386
887,2081.815,3.3071624002398607,102.69283759976014
888,2084.007,1.305057403695173,102.69494259630483
889,2086.199,4.3027568091925446,102.69724319080746
890,2088.389,1.300258047320682,102.69974195267932
891,2090.579,4.2975585343630485,102.70244146563695
892,2092.767,3.294655672264483,102.70534432773552
893,2094.955,4.291546848598202,102.7084531514018
894,2097.143,1.2882294365320206,102.71177056346798
895,2099.329,1.2847007947952989,102.7152992052047
896,2101.514,1.2809582676454738,102.71904173235453
897,2103.699,5.276999184834935,102.72300081516507
898,2105.883,0.0,102.72717913842278
899,2108.066,1.2684205985141972,102.7315794014858
900,2110.249,0.2637956816825522,102.73620431831745
901,2112.430,2.2589433824802256,102.74105661751977
902,2114.611,0.2538609576333215,102.74613904236668
903,2116.791,0.24854564916287814,102.75145435083712
904,2118.970,2.242994684351146,102.75700531564885
905,2121.149,1.2372052757084617,102.76279472429154
906,2123.326,2.231174620940024,102.76882537905998
907,2125.503,3.224899902912483,102.77510009708752
908,2127.679,1.2183782896203468,102.78162171037965
909,2129.854,3.2116069341530675,102.78839306584693
910,2132.029,0.20458297466147712,102.79541702533852
911,2134.202,4.1973035343243055,102.8026964656757
912,2136.375,2.189765721315169,102.81023427868483
913,2138.547,4.18196662876899,102.81803337123101
914,2140.718,2.173903334748829,102.82609666525117
915,2142.889,0.0,102.83442709778767
916,2145.058,3.156972378978665,102.84302762102133
917,2147.227,3.148098797694871,102.85190120230513
918,2149.395,2.1389491758027788,102.86105082419722
919,2151.563,3.129520515505618,102.87047948449438
920,2153.729,2.119809803734526,102.88019019626547
921,2155.895,3.10981401211545,102.89018598788455
922,2158.060,4.099530096935581,102.90046990306442
923,2160.224,2.0889549991102427,102.91104500088976
924,2162.387,2.078085644149297,102.9219143558507
925,2164.550,0.06691894212400484,102.933081057876
926,2166.711,1.0554517876336291,102.94454821236637
927,2168.872,1.0436810597720836,102.95631894022792
928,2171.033,2.031603622094593,102.9683963779054
929,2173.192,3.0192163225844126,102.98078367741559
930,2175.351,1.0065159936194448,102.99348400638056
931,2177.508,2.9934994519388027,103.0065005480612
932,2179.665,3.98016349860967,103.01983650139033
933,2181.822,4.966504918993877,103.03349508100612
934,2183.977,0.9525204827144194,103.04747951728558
935,2186.132,2.9382069436224327,103.06179305637757
936,2188.285,2.9235610397635554,103.07643896023644
937,2190.439,3.908579493344746,103.09142050665525
938,2192.591,0.8932590107008878,103.10674098929911
939,2194.742,1.8775962822615355,103.12240371773846
940,2196.893,1.8615879825174204,103.13841201748258
941,2199.043,1.8452307699873245,103.15476923001268
942,2201.192,0.828521287184472,103.17147871281553
943,2203.341,2.811456160583546,103.18854383941645
944,2205.488,2.7940320005870234,103.20596799941298
945,2207.635,3.776245401491906,103.2237545985081
946,2209.781,1.7580929414565958,103.2419070585434
947,2211.926,1.739571182467273,103.26042881753273
948,2214.071,2.7206766703047975,103.2793233296952
949,2216.214,0.7014059345112287,103.29859406548877
950,2218.357,1.681755488356501,103.3182445116435
951,2220.499,1.6617218288050282,103.33827817119497
952,2222.641,1.6413014364825926,103.35869856351741
953,2224.781,3.6204907756428213,103.37950922435718
954,2226.921,2.5992862941338046,103.4007137058662
955,2229.060,1.5776844233649285,103.42231557663507
956,2231.198,0.5556815782734361,103.44431842172656
957,2233.336,1.5332741572911033,103.4667258427089
958,2235.472,2.510458542310843,103.48954145768916
959,2237.608,5.487231098653467,103.51276890134653
960,2239.743,0.0,103.53641182496568
961,2241.878,2.4395261035300706,103.56047389646993
962,2244.011,1.4150411995448735,103.58495880045513
963,2246.144,0.3901297617776436,103.60987023822236
964,2248.276,3.3647880721885315,103.63521192781147
965,2250.407,1.3390123959653124,103.66098760403469
966,2252.538,0.0,103.68720101850964
967,2254.667,2.286144060307379,103.71385593969262
968,2256.796,3.259043847087483,103.74095615291252
969,2258.924,0.2314945395966248,103.76850546040338
970,2261.052,0.0,103.7965076813383
971,2263.178,1.17503334813766,103.82496665186234
972,2265.304,1.146113774873612,103.85388622512639
973,2267.429,2.116729728679971,103.88327027132003
974,2269.553,0.08687732229503808,103.91312267770496
975,2271.677,1.0565526513512822,103.94344734864872
976,2273.800,2.025751794342554,103.97424820565745
977,2275.921,1.9944708125903219,104.00552918740968
978,2278.043,0.9627057502106595,104.03729424978934
979,2280.163,1.9304526340806376,104.06954736591936
980,2282.283,3.897707473805127,104.10229252619487
981,2284.401,1.8644662616834182,104.13553373831658
982,2286.520,0.8307249726758386,104.16927502732416
983,2288.637,1.7964795643706282,104.20352043562937
984,2290.753,0.7617259769502454,104.23827402304975
985,2292.869,1.726460133158426,104.27353986684157
986,2294.984,0.6906779382665462,104.30932206173345
987,2297.098,3.6543752800404405,104.34562471995956
988,2299.212,0.0,104.38245197129316
989,2301.325,2.5801920369204367,104.41980796307956
990,2303.437,1.542303139730194,104.4576968602698
991,2305.548,0.0,104.49612284545385
992,2307.658,1.4649098811060952,104.5350901188939
993,2309.768,1.425397101442158,104.57460289855784
994,2311.877,2.3853345798476084,104.61466542015239
995,2313.985,2.344718062843171,104.65528193715683
996,2316.092,2.3035432791442503,104.69645672085575
997,2318.199,1.2618059396271093,104.73819406037289
998,2320.304,1.219501737295687,104.78049826270431
999,2322.409,2.1766263472483445,104.82337365275166
1000,2324.514,0.13317542664454152,104.86682457335546
1001,2326.617,0.08914461467114165,104.91085538532886
1002,2328.720,0.04452953250964242,104.95547046749036
1003,2330.822,1.9993257833024103,105.00067421669759
1004,2332.923,0.9535289521194699,105.04647104788053
1005,2335.024,2.9071346059252505,105.09286539407475
1006,2337.123,1.8601382935451483,105.13986170645485
1007,2339.222,0.8125355456322154,105.18746445436778
1008,2341.320,0.7643218746336515,105.23567812536635
1009,2343.418,1.7154927747579336,105.28450722524207
1010,2345.514,0.0,105.33395627805899
1011,2347.610,1.615970173813082,105.38402982618692
1012,2349.705,0.0,105.43473243033453
1013,2351.800,0.0,105.48606866958295
1014,2353.893,1.4619568585810612,105.53804314141894
1015,2355.986,0.4093395382314071,105.59066046176859
1016,2358.078,0.35607473496997954,105.64392526503002
1017,2360.170,0.0,105.6978422041072
1018,2362.260,0.24758404955674962,105.75241595044325
1019,2364.350,2.192348805946466,105.80765119405353
1020,2366.439,1.1364473564407973,105.8635526435592
1021,2368.527,0.07987497377938269,105.92012502622062
1022,2370.615,0.022626912029636514,105.97737308797036
1023,2372.702,2.964698406553225,106.03530159344677
