# kind,background_subtracted
# version_label,v1_10
# poly_order,5
# iterations_run,7
pixel_index,raman_shift_cm-1,intensity,background_intensity
0,-224.846,1.5862239753725902,96.41377602462741
1,-221.778,1.5781363428579596,96.42186365714204
2,-218.712,2.5700943411240473,96.42990565887595
3,-215.647,2.5620977837164105,96.43790221628359
4,-212.583,2.554146484760949,96.44585351523905
5,-209.521,1.5462402589629676,96.45375974103703
6,-206.460,0.0,96.46162107839379
7,-203.399,1.530562288551934,96.46943771144807
8,-200.340,1.522790176237919,96.47720982376208
9,-197.283,2.515062401677568,96.48493759832243
10,-194.226,2.5073787824588862,96.49262121754111
11,-191.171,0.4997391367436279,96.50026086325637
12,-188.116,0.4921432832662447,96.50785671673376
13,-185.064,1.4845910413330046,96.515408958667
14,-182.012,1.4770822308210256,96.52291776917897
15,-178.961,2.469616672177281,96.53038332782272
16,-175.912,0.462194186417733,96.53780581358227
17,-172.864,0.45481459512629385,96.5451854048737
18,-169.817,0.4474777204539464,96.55252227954605
19,-166.771,1.4401833851177201,96.55981661488228
20,-163.726,2.432931412399853,96.56706858760015
21,-160.683,0.4257216261466823,96.57427837385332
22,-157.641,0.41855385076786433,96.58144614923214
23,-154.600,0.0,96.58857208876469
24,-151.560,2.4043436330822203,96.59565636691778
25,-148.521,0.3973008424022737,96.60269915759773
26,-145.484,0.3902993658485059,96.6097006341515
27,-142.447,1.3833390306324844,96.61666096936752
28,-139.412,2.3764196645232687,96.62358033547673
29,-136.379,1.369541095846543,96.63045890415346
30,-133.346,1.3627031534836078,96.63729684651639
31,-130.314,2.355905666870413,96.64409433312959
32,-127.284,1.3491484659966915,96.65085153400331
33,-124.255,1.3424313814049356,96.65756861859506
34,-121.227,1.3357542441894452,96.66424575581055
35,-118.200,1.3291168859954468,96.67088311400455
36,-115.175,1.3225191390180413,96.67748086098196
37,-112.150,0.0,96.68403916399865
38,-109.127,0.0,96.6905581897625
39,-106.105,0.3029618955657014,96.6970381044343
40,-103.084,0.29652092637128646,96.70347907362871
41,-100.065,0.2901187375847769,96.70988126241522
42,-97.046,0.28375516468088335,96.71624483531912
43,-94.029,0.0,96.72256995632235
44,-91.013,2.2711432111353815,96.72885678886462
45,-87.998,0.26489450415579086,96.73510549584421
46,-84.984,1.258683760381004,96.741316239619
47,-81.972,0.2525108179926292,96.74748918200737
48,-78.960,0.2463755157107812,96.75362448428922
49,-75.950,1.2402776927931427,96.75972230720686
50,-72.941,0.23421718903404098,96.76578281096596
51,-69.933,0.22819384476343885,96.77180615523656
52,-66.927,1.2222075008460394,96.77779249915396
53,-63.921,1.2162579986803053,96.7837420013197
54,-60.917,1.2103451801975353,96.78965481980246
55,-57.914,2.2044688878608554,96.79553111213914
56,-54.912,0.1986289646643371,96.80137103533566
57,-51.911,1.1928252541320177,96.80717474586798
58,-48.912,0.1870576003169333,96.81294239968307
59,-45.913,0.18132584780019556,96.8186741521998
60,-42.916,1.1756298416900393,96.82437015830996
61,-39.920,2.1699694276208277,96.83003057237917
62,-36.925,1.1643444517521715,96.83565554824783
63,-33.931,0.15875476076791983,96.84124523923208
64,-30.939,3.1532002018752507,96.84679979812475
65,-27.947,8.14768062280369,96.85231937719631
66,-24.957,7.1421958718041765,96.85780412819582
67,-21.968,0.13674579764811767,96.86325420235188
68,-18.980,2.1313302496264015,96.8686697503736
69,-15.993,0.12594907754851192,96.87405092245149
70,-13.008,2.1206021317414923,96.87939786825851
71,-10.023,2.1152892630491067,96.8847107369509
72,-7.040,0.11001032283074608,96.88998967716925
73,-4.058,1.1047651629606463,96.89523483703935
74,-1.077,0.09955363582676569,96.90044636417323
75,1.903,0.0,96.90562440567004
76,4.881,0.08923089188297695,96.91076910811702
77,7.859,0.08411938240952566,96.91588061759047
78,10.835,3.079040920343317,96.92095907965668
79,13.810,0.07399536062709444,96.9260046393729
80,16.784,3.068982558711724,96.93101744128828
81,19.757,1.0640023705552153,96.93599762944478
82,22.728,0.0,96.94094534737825
83,25.699,1.0541392618808203,96.94586073811918
84,28.668,1.049256055806154,96.95074394419385
85,31.636,2.044404892374871,96.95559510762513
86,34.603,1.0395856300664548,96.96041436993355
87,37.569,0.03479812786184766,96.96520187213815
88,40.534,0.0,96.96995775475749
89,43.497,2.025317842189409,96.97468215781059
90,46.460,1.0206247791821283,96.97937522081787
91,49.421,1.0159629171979105,96.98403708280209
92,52.381,1.0113321177106513,96.98866788228935
93,55.340,0.0,96.99326775731
94,58.297,0.0,96.99783684539955
95,61.254,0.9976247164002672,97.00237528359973
96,64.209,2.993116791540629,97.00688320845937
97,67.164,1.9886392439646698,97.01136075603533
98,70.117,0.0,97.0158080618935
99,73.069,1.9797747388902849,97.02022526110972
100,76.020,0.9753875117292523,97.02461248827075
101,78.969,0.9710301225247804,97.02896987747522
102,81.918,1.9667024376654325,97.03329756233457
103,84.865,1.9624043240260107,97.03759567597399
104,87.811,1.9581356489666035,97.0418643510334
105,90.757,1.9538962803316338,97.04610371966837
106,93.700,1.9496860864489065,97.0503139135511
107,96.643,1.9455049361286711,97.05449506387133
108,99.585,0.9413526986626266,97.05864730133737
109,102.525,3.9372292438230545,97.06277075617695
110,105.465,0.9331344418617675,97.06686555813823
111,108.403,0.9290681635092568,97.07093183649074
112,111.340,0.0,97.07496972002633
113,114.276,1.921020662939867,97.07897933706013
114,117.211,2.917039184568523,97.08296081543148
115,120.144,0.0,97.08691428250488
116,123.077,0.9091601348290226,97.09083986517098
117,126.008,0.905262310152537,97.09473768984746
118,128.938,0.0,97.0986078824801
119,131.868,1.8975494314564543,97.10245056854355
120,134.795,0.0,97.10626587304246
121,137.722,0.8899460794876575,97.11005392051234
122,140.648,2.88618516497948,97.11381483502052
123,143.572,1.882451259832905,97.1175487401671
124,146.496,1.878744240914088,97.12125575908591
125,149.418,0.875063985554533,97.12493601444547
126,152.339,1.8714103715501125,97.12858962844989
127,155.259,0.0,97.13221672283991
128,158.178,0.0,97.1358174188938
129,161.096,1.860608162571765,97.13939183742824
130,164.012,3.8570599012006,97.1429400987994
131,166.928,0.0,97.14646232290383
132,169.842,2.8500413708206054,97.1499586291794
133,172.755,1.8465708633937368,97.15342913660626
134,175.667,0.8431260362922046,97.1568739637078
135,178.578,0.8397067714484336,97.16029322855157
136,181.488,1.8363129512496954,97.1636870487503
137,184.397,1.8329444585372272,97.16705554146277
138,187.304,0.8296011766051947,97.1703988233948
139,190.211,0.8262829891997825,97.17371701080022
140,193.116,0.0,97.17701021948176
141,196.020,1.8197214352079385,97.18027856479206
142,198.923,1.816477838365401,97.1835221616346
143,201.825,1.8132588755353538,97.18674112446465
144,204.726,0.8100644327098081,97.18993556729019
145,207.625,1.8068943963270527,97.19310560367295
146,210.524,2.803748653270773,97.19625134672923
147,213.421,1.8006270908690425,97.19937290913096
148,216.318,1.7975295968933693,97.20247040310663
149,219.213,0.7944560595578167,97.20554394044218
150,222.107,0.7914063675179648,97.20859363248204
151,225.000,0.0,97.21161959012996
152,227.891,0.7853780761498683,97.21462192385013
153,230.782,2.7823992563320417,97.21760074366796
154,233.672,1.7794438408288613,97.22055615917114
155,236.560,0.0,97.22348827951056
156,239.447,0.7736027865987722,97.22639721340123
157,242.333,0.7707169308767163,97.22928306912328
158,245.218,0.0,97.2321459545229
159,248.102,2.7650140229867617,97.23498597701324
160,250.985,2.762196756424572,97.23780324357543
161,253.867,0.0,97.2405978607595
162,256.748,0.0,97.24336993468529
163,259.627,0.0,97.24611957104352
164,262.505,0.7511531249034107,97.24884687509659
165,265.383,1.7484480483203697,97.25155195167963
166,268.259,0.7457650947985854,97.25423490520141
167,271.134,0.0,97.25689583964535
168,274.008,0.0,97.25953485857038
169,276.880,1.7378479348880802,97.26215206511192
170,279.752,1.735252438017099,97.2647475619829
171,282.623,1.732678548525385,97.26732145147461
172,285.492,0.0,97.26987383545774
173,288.360,0.7275951846167459,97.27240481538325
174,291.228,1.7250855077166278,97.27491449228337
175,294.094,0.0,97.27740296677254
176,296.959,1.7201296609516419,97.27987033904836
177,299.823,0.7176832911074484,97.28231670889255
178,302.685,0.7152578243281198,97.28474217567188
179,305.547,1.712853161660874,97.28714683833913
180,308.408,1.7104692045659533,97.28953079543405
181,311.267,1.7081058549157149,97.29189414508429
182,314.126,1.7057630149936216,97.29423698500638
183,316.983,0.7034405874933469,97.29655941250665
184,319.839,1.7011384755177943,97.2988615244822
185,322.694,0.6988565825781308,97.30114341742187
186,325.548,0.6965948125928776,97.30340518740712
187,328.401,0.6943530698869438,97.30564693011306
188,331.253,3.692131259190674,97.30786874080933
189,334.103,3.689929285638854,97.31007071436115
190,336.953,0.0,97.31225294523014
191,339.801,0.0,97.3144155274754
192,342.649,1.6834414452456343,97.31655855475437
193,345.495,1.6813178796762145,97.31868212032379
194,348.340,0.6792136829593005,97.3207863170407
195,351.184,0.6771287626366416,97.32287123736336
196,354.027,1.6750630266478055,97.3249369733522
197,356.869,0.6730163833292409,97.32698361667076
198,359.709,1.6709887414133249,97.32901125858668
199,362.549,0.0,97.33101998997259
200,365.388,1.666990098692878,97.33300990130712
201,368.225,0.6650189173241756,97.33498108267582
202,371.061,2.6630663762278886,97.33693362377211
203,373.897,1.6611323861017695,97.33886761389823
204,376.731,1.6592168580337727,97.34078314196623
205,379.564,1.6573197035011447,97.34268029649886
206,382.396,2.6554408343694718,97.34455916563053
207,385.227,0.6535801628916573,97.34641983710834
208,388.057,2.6517376017070973,97.3482623982929
209,390.885,1.649913063840586,97.35008693615941
210,393.713,0.6481064627014916,97.35189353729851
211,396.539,1.6463177120827055,97.3536822879173
212,399.365,1.6445467261597742,97.35545327384023
213,402.189,0.642793419489891,97.35720658051011
214,405.012,0.0,97.35894229298904
215,407.835,0.6393395040406915,97.36066049595931
216,410.656,0.6376387262755401,97.36236127372446
217,413.476,1.635955289789905,97.3640447102101
218,416.295,0.6342891110350308,97.36571088896497
219,419.112,1.632640106838167,97.36735989316183
220,421.929,0.6310081944015593,97.36899180559844
221,424.745,1.6293932913015112,97.37060670869849
222,427.559,0.6277953154874751,97.37220468451252
223,430.373,0.0,97.373785814719
224,433.185,1.6246498193748948,97.3753501806251
225,435.996,1.623102136832216,97.37689786316778
226,438.807,2.621571057085319,97.37842894291468
227,441.616,0.6200564999349325,97.37994350006507
228,444.424,0.6185583855491643,97.38144161445084
229,447.231,1.6170766344626202,97.38292336553738
230,450.037,1.6156111675753806,97.38438883242462
231,452.842,0.6141619061521055,97.3858380938479
232,455.645,0.6127287718210255,97.38727122817897
233,458.448,2.611311686573046,97.38868831342695
234,461.250,2.6099105727608105,97.39008942723919
235,464.050,1.6085253530976473,97.39147464690235
236,466.849,1.6071559506567326,97.39284404934327
237,469.648,1.6058022888700805,97.39419771112992
238,472.445,0.6044642915276199,97.39553570847238
239,475.241,0.6031418827762138,97.39685811722379
240,478.036,1.6018349871187354,97.39816501288126
241,480.830,3.6005435294130876,97.39945647058691
242,483.623,2.599267434871308,97.40073256512869
243,486.415,0.5980066290585597,97.40199337094144
244,489.206,0.5967610378921933,97.4032389621078
245,491.996,2.5955305876408232,97.40446941235918
246,494.784,2.5943152049233618,97.40568479507664
247,497.572,1.5931148167080522,97.40688518329195
248,500.358,6.59192935031156,97.40807064968844
249,503.144,8.590758733397948,97.40924126660205
250,505.928,14.589602893977826,97.41039710602217
251,508.712,14.588461760407299,97.4115382395927
252,511.494,18.58733526138711,97.41266473861289
253,514.275,8.586223325961612,97.41377667403839
254,517.055,3.585125883517847,97.41487411648215
255,519.834,1.5840428637846173,97.41595713621538
256,522.612,1.5829741968315147,97.41702580316849
257,525.389,1.5819198130679553,97.41808018693204
258,528.165,2.5808796432422554,97.41912035675774
259,530.940,0.5798536184406515,97.42014638155935
260,533.713,2.5788416700864047,97.4211583299136
261,536.486,1.5778437299387633,97.42215627006124
262,539.257,1.576859730092096,97.4231402699079
263,542.028,0.575889602974911,97.42411039702509
264,544.797,2.5749332813488763,97.42506671865112
265,547.566,0.5739906983078953,97.4260093016921
266,550.333,1.5730617872771973,97.4269382127228
267,553.099,0.5721464820123003,97.4278535179877
268,555.864,0.0,97.4287552834019
269,558.629,1.5703564254479687,97.42964357455203
270,561.392,0.0,97.43051845669729
271,564.154,1.568620005229704,97.4313799947703
272,566.915,0.0,97.43222825337813
273,569.674,0.566936703196788,97.43306329680321
274,572.433,0.5661148109956997,97.4338851890043
275,575.191,0.5653060063825706,97.43469399361743
276,577.948,0.0,97.43548977395685
277,580.703,2.5637274069840146,97.43627259301599
278,583.458,2.56295748653163,97.43704251346837
279,586.211,1.5622004023313707,97.43779959766863
280,588.964,2.5614560923465746,97.43854390765343
281,591.715,1.560724494857638,97.43927550514236
282,594.466,2.5600055484610067,97.439994451539
283,597.215,1.5592991920682522,97.44070080793175
284,599.963,0.5586053649051195,97.44139463509488
285,602.710,2.557924006510575,97.44207599348942
286,605.457,3.557255056735869,97.44274494326413
287,608.202,0.0,97.44340154425645
288,610.946,1.5559541440065487,97.44404585599345
289,613.689,1.5553220623072121,97.44467793769279
290,616.431,0.0,97.44529784826364
291,619.172,0.0,97.44590564630766
292,621.911,0.5534986098800232,97.44650139011998
293,624.650,0.5529148623099616,97.44708513769004
294,627.388,1.5523430532973066,97.4476569467027
295,630.125,1.551783125460986,97.44821687453901
296,632.860,1.5512350217226611,97.44876497827734
297,635.595,1.5506986853057896,97.44930131469421
298,638.328,2.5501740597347435,97.44982594026526
299,641.061,0.0,97.45033891116626
300,643.792,0.549159716726038,97.45084028327396
301,646.523,0.548669887832844,97.45133011216716
302,649.252,0.5481915468724594,97.45180845312754
303,651.980,0.5477246388592647,97.45227536114074
304,654.708,0.5472691091028423,97.45273089089716
305,657.434,1.5468249032069394,97.45317509679306
306,660.159,0.546391967068601,97.4536080329314
307,662.883,0.0,97.45402975312284
308,665.606,1.545559689113304,97.4544403108867
309,668.328,0.0,97.45483975945186
310,671.049,2.544771848242206,97.4552281517578
311,673.769,1.544394459544577,97.45560554045542
312,676.488,2.544028022091865,97.45597197790813
313,679.206,0.0,97.45632751619272
314,681.923,0.0,97.45667220710028
315,684.639,1.5429938978627291,97.45700610213727
316,687.354,0.0,97.45732925252635
317,690.067,1.5423582907926061,97.4576417092074
318,692.780,2.5420564771615943,97.4579435228384
319,695.492,1.541765256203476,97.45823474379652
320,698.202,1.5414845778210804,97.45851542217892
321,700.912,1.5412143921962382,97.45878560780376
322,703.621,0.5409546497888442,97.45904535021116
323,706.328,0.5407053013358478,97.45929469866415
324,709.035,1.5404662978503865,97.45953370214961
325,711.740,2.5402375906207766,97.45976240937922
326,714.444,2.5400191312095757,97.45998086879042
327,717.148,0.5398108714526444,97.46018912854736
328,719.850,1.5396127634581944,97.4603872365418
329,722.552,1.5394247596058221,97.46057524039418
330,725.252,1.5392468125455565,97.46075318745444
331,727.951,0.5390788751969495,97.46092112480305
332,730.649,1.5389209007480673,97.46107909925193
333,733.347,0.0,97.46122715734542
334,736.043,1.5386346546387841,97.46136534536122
335,738.738,1.5385062906887015,97.4614937093113
336,741.432,1.5383877050570476,97.46161229494295
337,744.125,1.5382788522603619,97.46172114773964
338,746.817,0.5381796870779993,97.461820312922
339,749.508,2.5380901645512353,97.46190983544876
340,752.198,1.5380102399822277,97.46198976001777
341,754.887,1.5379398689331794,97.46206013106682
342,757.575,0.5378790072252997,97.4621209927747
343,760.262,0.5378276109378675,97.46217238906213
344,762.948,1.5377856364073352,97.46221436359266
345,765.633,0.5377530402263062,97.4622469597737
346,768.317,0.0,97.46227022075738
347,770.999,1.5377158105584385,97.46228418944156
348,773.681,1.5377110915292036,97.4622889084708
349,776.362,0.5377155797627609,97.46228442023724
350,779.042,1.5377292331183838,97.46227076688162
351,781.720,0.5377520097058408,97.46224799029416
352,784.398,0.0,97.46221613211559
353,787.075,0.0,97.46217523373804
354,789.751,0.5378746636939695,97.46212533630603
355,792.425,1.5379335192826318,97.46206648071737
356,795.099,0.0,97.46199870762419
357,797.771,0.0,97.4619220574338
358,800.443,0.0,97.46183657030969
359,803.114,0.5382577138275053,97.4617422861725
360,805.783,0.5383607552990668,97.46163924470093
361,808.452,1.5384725146672764,97.46152748533272
362,811.119,0.5385929527344473,97.46140704726555
363,813.786,1.5387220305419191,97.46127796945808
364,816.451,0.5388597093692056,97.4611402906308
365,819.116,0.5390059507329568,97.46099404926704
366,821.779,0.5391607163860499,97.46083928361395
367,824.442,1.5393239683166513,97.46067603168335
368,827.103,1.5394956687472074,97.46050433125279
369,829.763,1.5396757801335923,97.46032421986641
370,832.423,0.0,97.46013573483596
371,835.081,1.5400610867582856,97.45993891324171
372,837.739,0.540266208066555,97.45973379193344
373,840.395,1.5404795924686852,97.45952040753131
374,843.050,0.5407012035730787,97.45929879642692
375,845.705,0.5409310052158247,97.45906899478418
376,848.358,0.5411689614597464,97.45883103854025
377,851.010,1.541415036593392,97.45858496340661
378,853.662,1.5416691951301544,97.45833080486985
379,856.312,1.5419314018072612,97.45806859819274
380,858.961,0.0,97.4577983784151
381,861.610,0.5424798196451377,97.45752018035486
382,864.257,0.5427659613911402,97.45723403860886
383,866.903,0.0,97.45693998755392
384,869.549,0.0,97.45663806134776
385,872.193,0.5436717060701,97.4563282939299
386,874.836,1.5439892809773141,97.45601071902269
387,877.478,0.5443146298677988,97.4556853701322
388,880.120,0.5446477194507935,97.4553522805492
389,882.760,1.5449885166498518,97.45501148335015
390,885.399,0.5453369886019885,97.45466301139801
391,888.037,0.5456931026566423,97.45430689734336
392,890.675,2.546056826374752,97.45394317362525
393,893.311,1.5464281275278324,97.45357187247217
394,895.946,0.5468069740969668,97.45319302590303
395,898.580,0.0,97.45280666572806
396,901.214,1.5475871764501932,97.4524128235498
397,903.846,2.5479884692359462,97.45201153076405
398,906.477,1.548397181439185,97.45160281856081
399,909.107,0.5488132820748035,97.4511867179252
400,911.737,0.5492367403615361,97.45076325963846
401,914.365,2.549667525721105,97.4503324742789
402,916.992,1.5501056077772262,97.44989439222277
403,919.618,1.5505509563546127,97.44944904364539
404,922.244,0.0,97.44899645852185
405,924.868,0.5514633333718422,97.44853666662816
406,927.491,4.551930302457848,97.44806969754215
407,930.113,1.5524044193556108,97.44759558064439
408,932.735,0.5528856548808818,97.44711434511912
409,935.355,3.553373980044725,97.44662601995527
410,937.974,0.5538693660526093,97.44613063394739
411,940.592,0.5543717843034273,97.44562821569657
412,943.210,1.5548812063886146,97.44511879361139
413,945.826,0.555397604091084,97.44460239590892
414,948.441,3.5559209493843724,97.44407905061563
415,951.056,1.556451214431661,97.44354878556834
416,953.669,1.5569883715848079,97.44301162841519
417,956.281,0.5575323933834113,97.44246760661659
418,958.893,1.558083252553871,97.44191674744613
419,961.503,0.5586409220083937,97.4413590779916
420,964.112,2.5592053748441117,97.44079462515589
421,966.721,1.5597765843420603,97.44022341565794
422,969.328,3.560354523966268,97.43964547603373
423,971.935,0.5609391673628181,97.43906083263718
424,974.540,1.561530488358855,97.43846951164115
425,977.144,2.5621284609616595,97.43787153903834
426,979.748,0.5627330593577113,97.43726694064229
427,982.350,3.5633442579117087,97.43665574208829
428,984.952,1.5639620311656302,97.43603796883437
429,987.552,0.5645863538377967,97.4354136461622
430,990.152,2.565217200821891,97.43478279917811
431,992.750,0.0,97.43414545281395
432,995.348,0.0,97.43350163182814
433,997.944,1.5671486391934621,97.43285136080654
434,1000.540,1.5678053358365673,97.43219466416343
435,1003.134,1.568468433857518,97.43153156614248
436,1005.728,0.5691379091823165,97.43086209081768
437,1008.321,0.5698137379056902,97.43018626209431
438,1010.912,2.5704958962901827,97.42950410370982
439,1013.503,1.5711843607651161,97.42881563923488
440,1016.092,1.571879107925696,97.4281208920743
441,1018.681,0.572580114532073,97.42741988546793
442,1021.269,1.5732873575083488,97.42671264249165
443,1023.856,1.574000813941666,97.42599918605833
444,1026.441,0.0,97.42527953891879
445,1029.026,1.575446276337317,97.42455372366268
446,1031.610,0.0,97.42382176271953
447,1034.193,1.5769163216403967,97.4230836783596
448,1036.775,1.577660507305069,97.42233949269493
449,1039.355,1.578410772319799,97.4215892276802
450,1041.935,1.5791670948862304,97.42083290511377
451,1044.514,1.579929453361487,97.42007054663851
452,1047.092,1.5806978262570937,97.4193021737429
453,1049.669,1.5814721922381239,97.41852780776188
454,1052.245,0.0,97.41774746987778
455,1054.820,0.0,97.41696118112138
456,1057.394,4.583831037627235,97.41616896237277
457,1059.967,1.5846291656377076,97.41537083436229
458,1062.539,1.5854331823284014,97.4145668176716
459,1065.110,2.586243067265542,97.41375693273446
460,1067.681,0.5870588001621684,97.41294119983783
461,1070.250,0.5878803608772643,97.41211963912274
462,1072.818,1.5887077294147645,97.41129227058524
463,1075.385,1.5895408859226166,97.41045911407738
464,1077.951,2.5903798106918003,97.4096201893082
465,1080.517,1.591224484155461,97.40877551584454
466,1083.081,1.5920748868878292,97.40792511311217
467,1085.644,0.0,97.4070690003966
468,1088.207,1.5937928031558783,97.40620719684412
469,1090.768,2.594660278537347,97.40533972146265
470,1093.329,1.595533406877152,97.40446659312285
471,1095.888,1.5964121694411233,97.40358783055888
472,1098.447,1.5972965476304921,97.40270345236951
473,1101.004,1.598186522981024,97.40181347701898
474,1103.561,0.5990820771620093,97.40091792283799
475,1106.116,1.5999831919753689,97.40001680802463
476,1108.671,0.6008898493546724,97.39911015064533
477,1111.225,1.6018020313641443,97.39819796863586
478,1113.777,1.6027197201978254,97.39728027980217
479,1116.329,0.0,97.39635710182148
480,1118.880,0.0,97.39542845224311
481,1121.430,0.0,97.39449434848953
482,1123.979,0.6064451921428002,97.3935548078572
483,1126.527,0.6073901524823526,97.39260984751765
484,1129.074,2.608340515481686,97.39165948451831
485,1131.620,0.6092962642164537,97.39070373578355
486,1134.165,1.6102573818844235,97.38974261811558
487,1136.709,0.0,97.3887761481954
488,1139.252,0.61219565741618,97.38780434258382
489,1141.794,1.6131727822777293,97.38682721772227
490,1144.335,0.0,97.38584478993393
491,1146.875,2.61514292457548,97.38485707542452
492,1149.415,1.6161359097166326,97.38386409028337
493,1151.953,1.6171341495157492,97.38286585048425
494,1154.490,0.0,97.38186237188647
495,1157.027,0.6191463297642912,97.38085367023571
496,1159.562,1.6201602388349983,97.379839761165
497,1162.097,1.6211793398043,97.3788206601957
498,1164.630,0.6222036172615617,97.37779638273844
499,1167.163,0.6232330559059562,97.37676694409404
500,1169.695,1.624267640545483,97.37573235945452
501,1172.225,1.6253073560960445,97.37469264390396
502,1174.755,0.0,97.37364781241955
503,1177.284,0.0,97.37259787987247
504,1179.812,0.6284571389711004,97.3715428610289
505,1182.338,2.6295172294491067,97.3704827705509
506,1184.864,1.6305823770025967,97.3694176229974
507,1187.389,0.0,97.36834743282517
508,1189.913,2.6327277856102427,97.36727221438976
509,1192.436,0.0,97.3661919819464
510,1194.959,1.634893250349009,97.36510674965099
511,1197.480,0.6359834684389085,97.36401653156109
512,1200.000,2.63707865836318,97.36292134163682
513,1202.519,3.6381788062582103,97.36182119374179
514,1205.038,2.6392838983558846,97.36071610164412
515,1207.555,2.6403939209826888,97.35960607901731
516,1210.071,2.6415088605587016,97.3584911394413
517,1212.587,0.6426287035967135,97.35737129640329
518,1215.101,0.0,97.35624656329878
519,1217.615,0.644883046567486,97.35511695343251
520,1220.128,1.646017519980603,97.3539824800194
521,1222.639,2.647156843814571,97.35284315618543
522,1225.150,0.6483010050312572,97.35169899496874
523,1227.660,0.0,97.35055000932047
524,1230.169,1.6506037878942692,97.34939621210573
525,1232.677,1.651762383895445,97.34823761610456
526,1235.184,0.0,97.34707423401287
527,1237.690,1.6540939215565658,97.34590607844343
528,1240.195,0.0,97.34473316192678
529,1242.699,1.6564445030878119,97.34355549691219
530,1245.202,2.6576269042314067,97.3423730957686
531,1247.704,0.0,97.3411859707856
532,1250.206,0.6600058658256529,97.33999413417435
533,1252.706,1.6612024019314333,97.33879759806857
534,1255.206,0.6624036254745818,97.33759637452542
535,1257.704,1.6636095244734435,97.33639047552656
536,1260.202,0.6648200870210417,97.33517991297896
537,1262.698,1.666035301284012,97.33396469871599
538,1265.194,2.6672551555017066,97.3327448444983
539,1267.689,0.0,97.33152036201471
540,1270.183,1.6697087371166504,97.33029126288335
541,1272.676,2.670942441347634,97.32905755865237
542,1275.168,1.6721807391989216,97.32781926080108
543,1277.659,0.0,97.32657638074082
544,1280.149,0.6746710701841039,97.3253289298159
545,1282.638,0.6759230806954264,97.32407691930457
546,1285.126,2.677179639579961,97.32282036042004
547,1287.613,0.6784407356887385,97.32155926431126
548,1290.100,2.679706357935956,97.32029364206404
549,1292.585,1.6809764952980544,97.31902350470195
550,1295.070,1.682251136812809,97.31774886318719
551,1297.553,0.6835302715783484,97.31646972842165
552,1300.036,1.6848138887521884,97.31518611124781
553,1302.517,2.686101977550294,97.3138980224497
554,1304.998,0.6873945272461555,97.31260547275384
555,1307.478,1.6886915271697944,97.3113084728302
556,1309.957,0.6899929667068392,97.31000703329316
557,1312.435,2.691298835297573,97.30870116470243
558,1314.912,1.6926091224359823,97.30739087756402
559,1317.388,0.6939238176687894,97.30607618233121
560,1319.863,0.0,97.30475708940547
561,1322.337,3.6965663908625572,97.30343360913744
562,1324.811,2.697894248172176,97.30210575182782
563,1327.283,2.699226472271576,97.30077352772842
564,1329.755,0.0,97.299436947043
565,1332.225,0.7019039800716769,97.29809601992832
566,1334.695,2.703249243504999,97.296750756495
567,1337.163,0.7045988331914259,97.29540116680857
568,1339.631,4.705952739109691,97.29404726089031
569,1342.098,0.7073109512816984,97.2926890487183
570,1344.564,2.708673459771674,97.29132654022833
571,1347.029,2.710040254685225,97.28995974531477
572,1349.493,0.7114113261682746,97.28858867383173
573,1351.956,1.7127866644062237,97.28721333559378
574,1354.418,1.7141662596229992,97.285833740377
575,1356.880,0.7155501020799875,97.28444989792001
576,1359.340,0.716938182075225,97.28306181792478
577,1361.800,2.7183304899423746,97.28166951005763
578,1364.258,0.7197270160497737,97.28027298395023
579,1366.716,0.0,97.27887224920052
580,1369.172,0.7225326846264011,97.2774673153736
581,1371.628,1.7239418079972069,97.2760581920028
582,1374.083,1.7253551114094847,97.27464488859052
583,1376.537,1.726772585390762,97.27322741460924
584,1378.990,2.728194220497528,97.27180577950247
585,1381.442,0.7296200073143382,97.27037999268566
586,1383.893,0.0,97.26895006354721
587,1386.344,0.7324839985506486,97.26751600144935
588,1388.793,1.7339221842708241,97.26607781572918
589,1391.241,2.73536448430049,97.26463551569951
590,1393.689,0.736810889350096,97.2631891106499
591,1396.135,0.7382613901523882,97.26173860984761
592,1398.581,0.7397159774615147,97.26028402253849
593,1401.026,1.7411746420520728,97.25882535794793
594,1403.470,1.742637374718086,97.25736262528191
595,1405.913,0.7441041662721517,97.25589583372785
596,1408.355,0.7455750075444172,97.25442499245558
597,1410.796,1.7470498893816568,97.25295011061834
598,1413.236,0.7485288026463337,97.25147119735367
599,1415.675,0.7500117382156049,97.2499882617844
600,1418.114,1.7514986869804545,97.24850131301955
601,1420.551,1.7529896398446283,97.24701036015537
602,1422.988,0.0,97.24551541227622
603,1425.423,1.755983521544465,97.24401647845553
604,1427.858,0.7574864322432546,97.24251356775675
605,1430.292,1.7589933107656606,97.24100668923434
606,1432.725,0.0,97.23949585193465
607,1435.157,1.7620189351030433,97.23798106489696
608,1437.588,0.7635376628456783,97.23646233715432
609,1440.018,2.765060322265356,97.23493967773464
610,1442.447,0.0,97.2334130956615
611,1444.876,0.7681174000448152,97.23188259995518
612,1447.303,2.7696518003663897,97.23034819963361
613,1449.730,1.771190096286702,97.2288099037133
614,1452.156,1.7727322787897322,97.22726772121027
615,1454.580,0.7742783388589487,97.22572166114105
616,1457.004,2.775828267476385,97.22417173252362
617,1459.427,1.7773820556217004,97.2226179443783
618,1461.849,1.7789396942712017,97.2210603057288
619,1464.270,0.7805011743969033,97.2194988256031
620,1466.690,2.782066486965604,97.2179335130344
621,1469.110,1.7836356229378936,97.2163643770621
622,1471.528,0.0,97.21479142673277
623,1473.946,0.0,97.21321467110104
624,1476.362,0.0,97.21163411923058
625,1478.778,1.789950219804922,97.21004978019508
626,1481.193,0.7915383369208797,97.20846166307912
627,1483.607,2.7931302230207535,97.20686977697925
628,1486.020,0.7947258689952008,97.2052741310048
629,1488.432,0.7963252657210944,97.2036747342789
630,1490.843,1.7979284040605137,97.20207159593949
631,1493.253,0.0,97.20046472514012
632,1495.663,0.8011458689489501,97.19885413105105
633,1498.071,0.0,97.19723982286011
634,1500.479,0.8043781902263305,97.19562180977367
635,1502.886,1.8059998989823924,97.19400010101761
636,1505.292,1.8076252941617241,97.19237470583828
637,1507.697,1.8092543664966172,97.19074563350338
638,1510.101,0.0,97.18911289330303
639,1512.504,1.8125235054494198,97.18747649455058
640,1514.906,1.8141635534163214,97.18583644658368
641,1517.307,0.8158072412348361,97.18419275876516
642,1519.708,0.8174545595159941,97.182545440484
643,1522.107,1.819105498843669,97.18089450115633
644,1524.506,0.0,97.17923995022626
645,1526.904,1.822418202833049,97.17758179716695
646,1529.301,0.0,97.17592005148153
647,1531.697,0.8257452772960221,97.17425472270398
648,1534.092,0.8274141795997991,97.1725858204002
649,1536.486,2.8290866458311257,97.17091335416887
650,1538.879,0.830762666357586,97.16923733364241
651,1541.272,1.8324422315120188,97.16755776848798
652,1543.663,0.8341253315916219,97.16587466840838
653,1546.054,1.835811956856972,97.16418804314303
654,1548.444,0.0,97.16249790246889
655,1550.832,0.0,97.16080425620147
656,1553.220,1.84089288580428,97.15910711419572
657,1555.607,1.8425935136530143,97.15740648634699
658,1557.994,0.844297617408003,97.155702382592
659,1560.379,0.0,97.15399481290981
660,1562.763,1.847716212677284,97.15228378732272
661,1565.147,1.8494306841027708,97.15056931589723
662,1567.529,1.8511485912549546,97.14885140874505
663,1569.911,1.8528699239760442,97.14713007602396
664,1572.292,1.854594672061154,97.14540532793885
665,1574.672,0.856322825257422,97.14367717474258
666,1577.051,3.8580543732629593,97.14194562673704
667,1579.429,1.8597893057260393,97.14021069427396
668,1581.807,0.8615276122439752,97.13847238775602
669,1584.183,2.8632692823623245,97.13673071763768
670,1586.559,0.8650143055738653,97.13498569442613
671,1588.933,0.0,97.13323732868238
672,1591.307,1.868514368977955,97.13148563102204
673,1593.680,1.8702693878836527,97.12973061211635
674,1596.052,0.0,97.12797228269314
675,1598.423,0.0,97.12621065353774
676,1600.794,0.8755542645060075,97.12444573549399
677,1603.163,0.877322460534856,97.12267753946514
678,1605.531,0.0,97.12090607641481
679,1607.899,0.0,97.11913135736795
680,1610.266,0.8826466065882244,97.11735339341178
681,1612.632,1.8844278043032432,97.11557219569676
682,1614.997,0.8862122245624988,97.1137877754375
683,1617.361,1.8879998560862106,97.11200014391379
684,1619.724,1.8897906875285315,97.11020931247147
685,1622.086,1.8915847074766106,97.10841529252339
686,1624.448,0.8933819044495834,97.10661809555042
687,1626.808,0.8951822668976632,97.10481773310234
688,1629.168,0.8969857832011883,97.10301421679881
689,1631.527,1.89879244166967,97.10120755833033
690,1633.885,0.9006022305408123,97.09939776945919
691,1636.242,0.0,97.0975848620204
692,1638.598,0.9042311520773438,97.09576884792266
693,1640.954,2.906050260850705,97.0939497391493
694,1643.308,1.9078724522407526,97.09212754775925
695,1645.662,0.0,97.09030228588796
696,1648.014,0.911526034251608,97.08847396574839
697,1650.366,0.9133574003680849,97.08664259963192
698,1652.717,0.915191800090696,97.0848081999093
699,1655.067,0.9170292209683311,97.08297077903167
700,1657.417,0.9188696504685936,97.0811303495314
701,1659.765,0.9207130759768347,97.07928692402317
702,1662.112,1.9225594847952152,97.07744051520478
703,1664.459,1.9244088641417818,97.07559113585822
704,1666.805,0.9262612011494724,97.07373879885053
705,1669.150,1.9281164828651498,97.07188351713485
706,1671.494,1.9299746962487347,97.07002530375127
707,1673.837,0.0,97.06816417182782
708,1676.179,3.9336998654185464,97.06630013458145
709,1678.520,1.935566794681037,97.06443320531896
710,1680.861,0.0,97.06256339743793
711,1683.201,0.9393092755723274,97.06069072442767
712,1685.539,1.9411848001297898,97.05881519987021
713,1687.877,0.943063162558758,97.05693683744124
714,1690.214,0.0,97.05505565091102
715,1692.551,0.9468283458546409,97.05317165414536
716,1694.886,0.948715138893391,97.05128486110661
717,1697.220,0.0,97.0493952858545
718,1699.554,1.9524970574527458,97.04750294254725
719,1701.887,0.9543921545576524,97.04560784544235
720,1704.219,1.9562899911023663,97.04371000889763
721,1706.550,0.0,97.04180944737219
722,1708.880,0.9600938245727093,97.03990617542729
723,1711.209,1.9619997922726213,97.03800020772738
724,1713.537,0.0,97.036091559041
725,1715.865,0.9658197557582611,97.03418024424174
726,1718.192,0.9677337216907915,97.03226627830921
727,1720.518,1.9696503236700522,97.03034967632995
728,1722.843,1.9715695465015415,97.02843045349846
729,1725.167,1.9734913748819594,97.02650862511804
730,1727.490,0.975415793398156,97.02458420660184
731,1729.812,0.0,97.02265721347375
732,1732.134,0.0,97.02072766136936
733,1734.455,0.9812044339630575,97.01879556603694
734,1736.774,0.9831390566616278,97.01686094333837
735,1739.093,0.0,97.01492380925009
736,1741.411,2.987015820135966,97.01298417986403
737,1743.729,0.9889579286113843,97.01104207138862
738,1746.045,1.9909024998503355,97.00909750014966
739,1748.361,0.9928495174086436,97.00715048259136
740,1750.675,0.9947989647227757,97.00520103527722
741,1752.989,1.9967508251089754,97.00324917489102
742,1755.302,1.9987050817622816,97.00129491823772
743,1757.614,1.0006617177555057,96.9993382822445
744,1759.925,3.0026207160383933,96.9973792839616
745,1762.236,0.0,96.9954179405634
746,1764.545,2.0065457306507852,96.99345426934921
747,1766.854,2.0085117122556113,96.99148828774439
748,1769.162,2.01047998669884,96.98952001330116
749,1771.469,0.012450536300349313,96.98754946369965
750,1773.775,1.0144233432511953,96.9855766567488
751,1776.080,0.016398389612675146,96.98360161038732
752,1778.385,1.0183756573153602,96.98162434268464
753,1780.688,0.0,96.97964487184186
754,1782.991,1.0223367838073045,96.9776632161927
755,1785.293,1.0243206057955234,96.97567939420448
756,1787.594,1.0263065755209908,96.97369342447901
757,1789.894,1.028294674246382,96.97170532575362
758,1792.193,1.0302848830979912,96.96971511690201
759,1794.492,1.0322771830646928,96.96772281693531
760,1796.789,0.0,96.96572844500294
761,1799.086,1.036267979606393,96.9637320203936
762,1801.382,2.038266437463733,96.96173356253627
763,1803.677,1.040266908998973,96.95973309100103
764,1805.971,2.0422693744998526,96.95773062550015
765,1808.265,1.0442738141110368,96.95572618588896
766,1810.557,2.046280207833192,96.95371979216681
767,1812.849,1.0482885355219338,96.95171146447807
768,1815.140,1.0502987768870184,96.94970122311298
769,1817.430,1.0523109114912899,96.94768908850871
770,1819.719,1.0543249187497281,96.94567508125027
771,1822.007,1.0563407779285683,96.94365922207143
772,1824.295,1.0583584681442915,96.94164153185571
773,1826.581,0.0,96.93962203163728
774,1828.867,0.0,96.937600742602
775,1831.152,0.06442231391172015,96.93557768608828
776,1833.436,1.0664471164119078,96.93355288358809
777,1835.719,0.06847364325213334,96.93152635674787
778,1838.002,1.0705018726305013,96.9294981273695
779,1840.283,0.07253178258874016,96.92746821741126
780,1842.564,2.0745633510112356,96.92543664898876
781,1844.844,1.0765965556240644,96.92340344437594
782,1847.123,2.0786313739941136,96.92136862600589
783,1849.401,2.080667783528014,96.91933221647199
784,1851.678,2.0827057614712885,96.91729423852871
785,1853.955,1.0847452849073704,96.91525471509263
786,1856.231,3.086786330756638,96.91321366924336
787,1858.506,2.0888288757754623,96.91117112422454
788,1860.780,1.090872896555311,96.90912710344469
789,1863.053,3.092918369521726,96.90708163047827
790,1865.325,2.094965270933386,96.90503472906661
791,1867.597,2.097013576881224,96.90298642311878
792,1869.867,3.0990632632873627,96.90093673671264
793,1872.137,2.101114305904275,96.89888569409572
794,1874.406,1.1031666803137625,96.89683331968624
795,1876.674,1.105220361926044,96.89477963807396
796,1878.941,1.1072753259787618,96.89272467402124
797,1881.208,2.1093315475360868,96.89066845246391
798,1883.473,2.111389001487723,96.88861099851228
799,1885.738,0.11344766254796923,96.88655233745203
800,1888.002,2.1155075052547687,96.88449249474523
801,1890.265,0.1175685039687977,96.8824314960312
802,1892.528,0.11963063287241482,96.88036936712759
803,1894.789,1.1216938659688367,96.87830613403116
804,1897.050,2.123758177081072,96.87624182291893
805,1899.310,2.1258235398510834,96.87417646014892
806,1901.569,0.1278899277387069,96.8721100722613
807,1903.827,0.1299573140208281,96.87004268597917
808,1906.084,2.132025671790359,96.86797432820964
809,1908.340,1.1340949739552855,96.86590502604471
810,1910.596,0.13616519323774412,96.86383480676226
811,1912.851,0.0,96.86176369782693
812,1915.105,1.1403082731088432,96.85969172689116
813,1917.358,2.142381078203911,96.85761892179609
814,1919.610,1.1444546894274765,96.85554531057252
815,1921.862,0.0,96.85347092144188
816,1924.113,1.1486042171828785,96.85139578281712
817,1926.362,0.15068007669623285,96.84931992330377
818,1928.611,0.15275662829927228,96.84724337170073
819,1930.860,1.1548338429985847,96.84516615700142
820,1933.107,2.1569116916054583,96.84308830839454
821,1935.353,1.1589901447348439,96.84100985526516
822,1937.599,0.16106917280440314,96.8389308271956
823,1939.844,0.1631487460336274,96.83685125396637
824,1942.088,2.1652288344428143,96.83477116555719
825,1944.331,0.16730940785213022,96.83269059214787
826,1946.574,1.1693904358806861,96.83060956411931
827,1948.815,0.0,96.82852811205441
828,1951.056,0.0,96.82644626673907
829,1953.296,2.1756359408369406,96.82436405916306
830,1955.535,1.1777184794789406,96.82228152052106
831,1957.773,0.17980131778642772,96.82019868221357
832,1960.011,0.18188442415213046,96.81811557584787
833,1962.248,3.1839677667610857,96.81603223323891
834,1964.483,2.1860513135896014,96.8139486864104
835,1966.718,2.1881350324044035,96.8118649675956
836,1968.953,2.190218890761628,96.80978110923837
837,1971.186,1.192302856005881,96.80769714399412
838,1973.418,2.1943868952692895,96.80561310473071
839,1975.650,1.196470975470561,96.80352902452944
840,1977.881,2.1985550633140463,96.80144493668595
841,1980.111,0.0,96.79936087471128
842,1982.340,1.2027231276672978,96.7972768723327
843,1984.569,2.2048070365053007,96.7951929634947
844,1986.797,2.20689081764003,96.79310918235997
845,1989.023,2.208974436689644,96.79102556331036
846,1991.249,2.2110578590522465,96.78894214094775
847,1993.474,3.2131410499049196,96.78685895009508
848,1995.699,0.0,96.78477602579726
849,1997.922,1.217306596677858,96.78269340332214
850,2000.145,1.2193888818385261,96.78061111816147
851,2002.367,2.2214707939681944,96.7785292060318
852,2004.588,1.2235522971244848,96.77644770287552
853,2006.808,1.2256333551383278,96.77436664486167
854,2009.028,2.2277139316129393,96.77228606838706
855,2011.246,0.22979398992289646,96.7702060100771
856,2013.464,2.2318734932132145,96.76812650678679
857,2015.681,0.2339524043983232,96.76604759560168
858,2017.898,0.23603068616121448,96.76396931383879
859,2020.113,0.23810830095241897,96.76189169904758
860,2022.328,0.2401852109890541,96.75981478901095
861,2024.541,0.2422613782539429,96.75773862174606
862,2026.754,0.0,96.75566323550542
863,2028.966,1.2464113312222196,96.75358866877778
864,2031.178,1.2484850397109568,96.75151496028904
865,2033.388,1.2505578509966853,96.74944214900331
866,2035.598,1.2526297258762753,96.74737027412372
867,2037.807,1.254700624906505,96.7452993750935
868,2040.015,2.25677050840315,96.74322949159685
869,2042.222,1.2588393364400616,96.74116066355994
870,2044.429,0.2609070688481978,96.7390929311518
871,2046.634,0.26297366521467325,96.73702633478533
872,2048.839,1.2650390848817636,96.73496091511824
873,2051.043,1.2671032869460532,96.73289671305395
874,2053.247,1.269166230257369,96.73083376974263
875,2055.449,1.271227873417942,96.72877212658206
876,2057.651,3.2732881747813707,96.72671182521863
877,2059.851,2.2753470924517103,96.72465290754829
878,2062.052,0.2774045842825217,96.72259541571748
879,2064.251,1.2794606078758903,96.72053939212411
880,2066.449,0.28151512058151695,96.71848487941848
881,2068.647,1.2835680794957653,96.71643192050423
882,2070.844,2.2856194414606392,96.71438055853936
883,2073.040,1.2876691630629722,96.71233083693703
884,2075.235,2.289717200633291,96.71028279936671
885,2077.429,2.2917635102450618,96.70823648975494
886,2079.623,2.2938080477135827,96.70619195228642
887,2081.815,0.0,96.7041492314049
888,2084.007,1.2978916281858943,96.7021083718141
889,2086.199,2.299930581521238,96.70006941847876
890,2088.389,2.3019675833745197,96.69803241662548
891,2090.579,0.0,96.69599741174375
892,2092.767,1.3060355504131707,96.69396444958683
893,2094.955,1.3080664238271993,96.6919335761728
894,2097.143,0.3100951622145942,96.6899048377854
895,2099.329,0.0,96.68787828097507
896,2101.514,2.3141460474401754,96.68585395255982
897,2103.699,1.3161681003737158,96.68383189962628
898,2105.883,2.3181878304694408,96.68181216953056
899,2108.066,0.0,96.67979480989924
900,2110.249,0.0,96.67777986863028
901,2112.430,1.324232606105923,96.67576739389408
902,2114.611,1.326242565865698,96.6737574341343
903,2116.791,2.328249961931107,96.6717500380689
904,2118.970,0.33025474530896304,96.66974525469104
905,2121.149,3.3322568667299635,96.66774313327004
906,2123.326,1.3342562766476362,96.66574372335236
907,2125.503,2.336252925237474,96.66374707476253
908,2127.679,1.3382467623959116,96.66175323760409
909,2129.854,0.3402377377394572,96.65976226226054
910,2132.029,0.34222580060367136,96.65777419939633
911,2134.202,2.3442109000422278,96.65578909995777
912,2136.375,0.34619298482601835,96.65380701517398
913,2138.547,2.348172003442116,96.65182799655788
914,2140.718,1.350147904092907,96.6498520959071
915,2142.889,1.3521206346950834,96.64787936530492
916,2145.058,0.0,96.6459098571213
917,2147.227,3.3560563759862703,96.64394362401373
918,2149.395,1.3580192810717477,96.64198071892825
919,2151.563,2.359978804899626,96.64002119510037
920,2153.729,1.3619348939439533,96.63806510605605
921,2155.895,0.36388749438741286,96.63611250561259
922,2158.060,2.3658365521203706,96.63416344787963
923,2160.224,1.3677820127398945,96.6322179872601
924,2162.387,1.369723821548817,96.63027617845118
925,2164.550,1.3716619235547967,96.6283380764452
926,2166.711,0.37359626346936636,96.62640373653063
927,2168.872,0.37552678570698106,96.62447321429302
928,2171.033,0.377453434384023,96.62254656561598
929,2173.192,1.3793761533179492,96.62062384668205
930,2175.351,0.3812948860262253,96.61870511397377
931,2177.508,1.3832095757254876,96.61679042427451
932,2179.665,1.3851201653304912,96.61487983466951
933,2181.822,0.38702659745321455,96.61297340254679
934,2183.977,0.38892881440193605,96.61107118559806
935,2186.132,1.3908267581801823,96.60917324181982
936,2188.285,0.3927203704859039,96.6072796295141
937,2190.439,1.3946095927104096,96.60539040728959
938,2192.591,0.0,96.60350563406249
939,2194.742,0.3983746309424987,96.6016253690575
940,2196.893,2.400250328191248,96.59974967180875
941,2199.043,0.40212139783922396,96.59787860216078
942,2201.192,0.40398777973057065,96.59601222026943
943,2203.341,0.0,96.59415058660291
944,2205.488,2.407706238057415,96.59229376194259
945,2207.635,2.4095581926159184,96.59044180738408
946,2209.781,0.4114052156618726,96.58859478433813
947,2211.926,0.41324724546842617,96.58675275453157
948,2214.071,0.415084219991698,96.5849157800083
949,2216.214,2.4169160768697964,96.5830839231302
950,2218.357,0.0,96.5812572465781
951,2220.499,0.4205641866472831,96.57943581335272
952,2222.641,1.4223803132243518,96.57761968677565
953,2224.781,1.4241910695097602,96.57580893049024
954,2226.921,3.4259963915373532,96.57400360846265
955,2229.060,1.427796215017338,96.57220378498266
956,2231.198,1.4295904753352175,96.57040952466478
957,2233.336,0.0,96.56862089244909
958,2235.472,0.0,96.5668379536022
959,2237.608,0.43493922628175596,96.56506077371824
960,2239.743,0.43671058128018103,96.56328941871982
961,2241.878,0.43847604514108696,96.56152395485891
962,2244.011,1.4402355512821288,96.55976444871787
963,2246.144,2.441989032789664,96.55801096721034
964,2248.276,1.4437364224177855,96.55626357758221
965,2250.407,0.44547765258738536,96.55452234741261
966,2252.538,0.4472126553851865,96.55278734461481
967,2254.667,0.0,96.5510586374372
968,2256.796,0.4506637055358169,96.54933629446418
969,2258.924,0.4523796153827675,96.54762038461723
970,2261.052,1.4540890228442578,96.54591097715574
971,2263.178,4.455791858321987,96.54420814167801
972,2265.304,2.457488051877746,96.54251194812225
973,2267.429,2.4591775332325767,96.54082246676742
974,2269.553,0.0,96.53913976823428
975,2271.677,1.4625360765137145,96.53746392348629
976,2273.800,0.46420499616942834,96.53579500383057
977,2275.921,2.4658669190811224,96.53413308091888
978,2278.043,0.0,96.53247822674851
979,2280.163,1.4691694863367246,96.53083051366328
980,2282.283,3.4708099856455163,96.52919001435448
981,2284.401,1.472443198138194,96.5275568018618
982,2286.520,0.47406905042565484,96.52593094957435
983,2288.637,1.4756874687685269,96.52431253123147
984,2290.753,2.47729837907616,96.52270162092384
985,2292.869,2.47890170690566,96.52109829309434
986,2294.984,1.480497377460992,96.51950262253901
987,2297.098,0.48208531559198775,96.51791468440801
988,2299.212,1.4836654457934202,96.51633455420658
989,2301.325,1.4852376922040094,96.51476230779599
990,2303.437,3.486801978605527,96.51319802139447
991,2305.548,0.48835822842184484,96.51164177157816
992,2307.658,1.4899063647179105,96.51009363528209
993,2309.768,2.4914463101988815,96.50855368980112
994,2311.877,0.4929779872091302,96.50702201279087
995,2313.985,0.0,96.50549868226871
996,2316.092,0.496016223385368,96.50398377661463
997,2318.199,2.4975226254276635,96.50247737457234
998,2320.304,0.49902044474998775,96.50097955525001
999,2322.409,0.500509601878548,96.49949039812145
1000,2324.514,0.5019900169731102,96.49800998302689
1001,2326.617,0.5034616098260187,96.49653839017398
1002,2328.720,0.0,96.49507570013878
1003,2330.822,1.5063780061333318,96.49362199386667
1004,2332.923,2.507822647326705,96.4921773526733
1005,2335.024,0.5092581417544295,96.49074185824557
1006,2337.123,1.510684407357445,96.48931559264255
1007,2339.222,0.0,96.48789863829644
1008,2341.320,1.5135089219864426,96.48649107801356
1009,2343.418,2.5149070050247957,96.4850929949752
1010,2345.514,2.5162955272613203,96.48370447273868
1011,2347.610,0.5176744047617348,96.48232559523827
1012,2349.705,0.0,96.48095644678607
1013,2351.800,1.5204028879269487,96.47959711207305
1014,2353.893,1.5217523238300146,96.47824767616999
1015,2355.986,0.5230917754716558,96.47690822452834
1016,2358.078,1.5244211570186508,96.47557884298135
1017,2360.170,0.0,96.47425961774478
1018,2362.260,1.5270493645819414,96.47295063541806
1019,2364.350,1.5283480170148351,96.47165198298516
1020,2366.439,1.5296362521845026,96.4703637478155
1021,2368.527,0.530913982335008,96.46908601766499
1022,2370.615,1.532181119323127,96.46781888067687
1023,2372.702,2.5334375746171816,96.46656242538282
