pixel_index,raman_shift_cm-1,intensity
0,200.0,13.839621769893846
1,201.0,13.736473017945674
2,202.0,13.633289838547512
3,203.0,13.530071495971885
4,204.0,13.426818254491288
5,205.0,13.323530378378234
6,206.0,13.22020913190525
7,207.0,13.116852779344832
8,208.0,13.013463584969497
9,209.0,12.910041813051752
10,210.0,12.806585727864114
11,211.0,12.703097593679082
12,212.0,12.599577674769176
13,213.0,12.4960242354069
14,214.0,12.392440539864786
15,215.0,12.288824852415317
16,216.0,12.185177437331014
17,217.0,12.081499558884396
18,218.0,11.977791481347968
19,219.0,11.874052468994229
20,220.0,11.770283786095703
21,221.0,11.666485696924902
22,222.0,11.562658465754339
23,223.0,11.458802356856523
24,224.0,11.354916634503947
25,225.0,11.251002562969134
26,226.0,11.147061406524607
27,227.0,11.04309142944286
28,228.0,10.939093895996415
29,229.0,10.835070070457775
30,230.0,10.731018217099454
31,231.0,10.626940600193961
32,232.0,10.522836484013808
33,233.0,10.418707132831507
34,234.0,10.314550810919574
35,235.0,10.2103697825505
36,236.0,10.106164311996817
37,237.0,10.001933663531034
38,238.0,9.897678101425647
39,239.0,9.793398889953185
40,240.0,9.689096293386143
41,241.0,9.584769575997033
42,242.0,9.48042000205838
43,243.0,9.376047835842684
44,244.0,9.271653341622454
45,245.0,9.167235783670215
46,246.0,9.062797426258463
47,247.0,8.958336533659697
48,248.0,8.853855370146462
49,249.0,8.74935219999125
50,250.0,8.644829287466564
51,251.0,8.540285896844935
52,252.0,8.435723292398862
53,253.0,8.331139738400843
54,254.0,8.226537499123403
55,255.0,8.121916838839063
56,256.0,8.017277021820313
57,257.0,7.912618312339674
58,258.0,7.807941974669667
59,259.0,7.703248273082785
60,260.0,7.598537471851536
61,261.0,7.493809835248442
62,262.0,7.389064627546027
63,263.0,7.284304113016773
64,264.0,7.179526555933215
65,265.0,7.074734220567855
66,266.0,6.969925371193192
67,267.0,6.8651022720817565
68,268.0,6.760265187506043
69,269.0,6.655413381738562
70,270.0,6.550547119051856
71,271.0,6.445667663718389
72,272.0,6.340774280010699
73,273.0,6.235868232201298
74,274.0,6.130949784562688
75,275.0,6.026019201367376
76,276.0,5.921075746887894
77,277.0,5.816121685396723
78,278.0,5.711156281166396
79,279.0,5.6061797984694195
80,280.0,5.501192501578295
81,281.0,5.396195654765549
82,282.0,5.291188522303678
83,283.0,5.186171368465189
84,284.0,5.081146457522621
85,285.0,4.976112053748459
86,286.0,4.871068421415217
87,287.0,4.766017824795405
88,288.0,4.660959528161527
89,289.0,4.555893795786126
90,290.0,4.450819891941691
91,291.0,4.34574108090073
92,292.0,4.240654626935758
93,293.0,4.135563794319275
94,294.0,4.030465847323811
95,295.0,3.9253640502218587
96,296.0,3.820256667285946
97,297.0,3.715144962788571
98,298.0,3.6100292010022557
99,299.0,3.504910646199498
100,300.0,3.3997875626528113
101,301.0,3.2946622146347195
102,302.0,3.1895348664177163
103,303.0,3.0844047822743192
104,304.0,2.979273226477048
105,305.0,2.8741394632984054
106,306.0,2.769005757010895
107,307.0,2.6638713718870477
108,308.0,2.5587365721993507
109,309.0,2.4536016222203116
110,310.0,2.3484677862224785
111,311.0,2.2433343284783334
112,312.0,2.138203513260386
113,313.0,2.0330736048411637
114,314.0,1.9279458674931576
115,315.0,1.8228205654888896
116,316.0,1.7176989631008723
117,317.0,1.612580324601609
118,318.0,1.507465914263605
119,319.0,1.4023559963593968
120,320.0,1.2972498351614874
121,321.0,1.1921496949423585
122,322.0,1.087054839974563
123,323.0,0.9819655345305591
124,324.0,0.8768830428829091
125,325.0,0.7718066293040948
126,326.0,0.6667385580666476
127,327.0,0.5616770934430804
128,328.0,0.4566244997058675
129,329.0,0.3515810411275382
130,330.0,0.24654598198061706
131,331.0,0.14151958653759777
132,332.0,0.036504119070997376
133,333.0,-0.06850115614665242
134,334.0,-0.17349597484287216
135,335.0,-0.27847907274513517
136,336.0,-0.3834501855809478
137,337.0,-0.4884090490777737
138,338.0,-0.5933553989631264
139,339.0,-0.6982889709644766
140,340.0,-0.8032085008092977
141,341.0,-0.9081137242251245
142,342.0,-1.013004376939442
143,343.0,-1.1178801946796995
144,344.0,-1.2227409131734177
145,345.0,-1.3275842681480512
146,346.0,-1.4324119953311154
147,347.0,-1.5372218304501146
148,348.0,-1.6420145092325171
149,349.0,-1.7467887674058176
150,350.0,-1.851544340697501
151,351.0,-1.9562809648350665
152,352.0,-2.0609973755459876
153,353.0,-2.1656933085577563
154,354.0,-2.2703694995978765
155,355.0,-2.375023684393817
156,356.0,-2.479655598673091
157,357.0,-2.5842659781631596
158,358.0,-2.688852558591563
159,359.0,-2.793416075685734
160,360.0,-2.897954265173162
161,361.0,-3.0024688627813703
162,362.0,-3.1069576042378415
163,363.0,-3.211421225270051
164,364.0,-3.3158574616055176
165,365.0,-3.4202670489716667
166,366.0,-3.5246477230960664
167,367.0,-3.629001219706133
168,368.0,-3.7333252745294203
169,369.0,-3.837620623293354
170,370.0,-3.941885001725474
171,371.0,-4.046118145553287
172,372.0,-4.1503207905042245
173,373.0,-4.25448967230578
174,374.0,-4.358627526685467
175,375.0,-4.4627300893707655
176,376.0,-4.566800096089196
177,377.0,-4.670834282568194
178,378.0,-4.7748323845353156
179,379.0,-4.878795137717972
180,380.0,-4.982720277843697
181,381.0,-5.0866075406399744
182,382.0,-5.190456661834276
183,383.0,-5.2942663771541305
184,384.0,-5.39803542232697
185,385.0,-5.501764533080362
186,386.0,-5.605451445141725
187,387.0,-5.709096894238584
188,388.0,-5.812698616098402
189,389.0,-5.916256346448691
190,390.0,-6.019768821016939
191,391.0,-6.1232367755306285
192,392.0,-6.226656945717281
193,393.0,-6.330031067304304
194,394.0,-6.433355876019263
195,395.0,-6.536632107589611
196,396.0,-6.639858497742836
197,397.0,-6.743033782206467
198,398.0,-6.846157696707962
199,399.0,-6.949227976974811
200,400.0,-7.0522453587344955
201,401.0,-7.155206577714495
202,402.0,-7.258113369642359
203,403.0,-7.360963470245508
204,404.0,-7.463755615251486
205,405.0,-7.566488540387709
206,406.0,-7.669161981381777
207,407.0,-7.7717736739610785
208,408.0,-7.87432435385314
209,409.0,-7.9768117567854375
210,410.0,-8.079234618485472
211,411.0,-8.181591674680732
212,412.0,-8.283882661098744
213,413.0,-8.386106313466954
214,414.0,-8.48826036751285
215,415.0,-8.590343558963923
216,416.0,-8.692355623547641
217,417.0,-8.794295296991564
218,418.0,-8.896160315023138
219,419.0,-8.997950413369821
220,420.0,-9.099663327759188
221,421.0,-9.201297793918627
222,422.0,-9.302852547575668
223,423.0,-9.404326324457827
224,424.0,-9.505716860292551
225,425.0,-9.607023890807369
226,426.0,-9.708245151729756
227,427.0,-9.809378378787187
228,428.0,-9.910423307707177
229,429.0,-10.011377674217186
230,430.0,-10.112239214044706
231,431.0,-10.21300766291725
232,432.0,-10.313679756562294
233,433.0,-10.4142542307073
234,434.0,-10.51472982107984
235,435.0,-10.61510326340732
236,436.0,-10.715374293417241
237,437.0,-10.81553964683711
238,438.0,-10.915598059394426
239,439.0,-11.015547266816668
240,440.0,-11.11538500483131
241,441.0,-11.215109009165914
242,442.0,-11.314717015547828
243,443.0,-11.414207759704638
244,444.0,-11.513576977363854
245,445.0,-11.61282440425289
246,446.0,-11.711945776099327
247,447.0,-11.810939828630595
248,448.0,-11.909803297574143
249,449.0,-12.008533918657534
250,450.0,-12.107128427608217
251,451.0,-12.205584560153696
252,452.0,-12.303899052021464
253,453.0,-12.402069638939011
254,454.0,-12.500093056633816
255,455.0,-12.597965040833401
256,456.0,-12.695684327265198
257,457.0,-12.793245651656719
258,458.0,-12.890646749735467
259,459.0,-12.987885357228933
260,460.0,-13.084955209864589
261,461.0,-13.181854043369938
262,462.0,-13.27857859347246
263,463.0,-13.375124595899635
264,464.0,-13.471486786378975
265,465.0,-13.567662900637956
266,466.0,-13.663647674404046
267,467.0,-13.759436843404771
268,468.0,-13.855026143367652
269,469.0,-13.950410310020104
270,470.0,-14.045586079089617
271,471.0,-14.140546186303737
272,472.0,-14.235287367389915
273,473.0,-14.329803358075651
274,474.0,-14.424088894088428
275,475.0,-14.518138711155785
276,476.0,-14.611946545005111
277,477.0,-14.705506131364004
278,478.0,-14.798812205959862
279,479.0,-14.891858504520187
280,480.0,-14.984636762772524
281,481.0,-15.077141716444359
282,482.0,-15.169365101263125
283,483.0,-15.26130065295635
284,484.0,-15.352940107251513
285,485.0,-15.444275199876088
286,486.0,-15.535298666557566
287,487.0,-15.626001243023481
288,488.0,-15.716374665001268
289,489.0,-15.806409668218478
290,490.0,-15.896096988402547
291,491.0,-15.98542736128097
292,492.0,-16.074389522581228
293,493.0,-16.16297320803085
294,494.0,-16.251167153357272
295,495.0,-16.338961094288052
296,496.0,-16.42634176655065
297,497.0,-16.513298905872517
298,498.0,-16.59981724798118
299,499.0,-16.68588552860409
300,500.0,-16.771488483468787
301,501.0,-16.85661284830276
302,502.0,-16.94124235883345
303,503.0,-17.02536275078839
304,504.0,-17.108956759895037
305,505.0,-17.192007121880934
306,506.0,-17.27449757247348
307,507.0,-17.35640784740022
308,508.0,-17.437720682388658
309,509.0,-17.51841381316629
310,510.0,-17.598466975460568
311,511.0,-17.677857904998973
312,512.0,-17.756564337509005
313,513.0,-17.834562008718166
314,514.0,-17.91182565435396
315,515.0,-17.98832801014383
316,516.0,-18.064042811815327
317,517.0,-18.138939795095922
318,518.0,-18.212989695713034
319,519.0,-18.286159249394217
320,520.0,-18.35841619186698
321,521.0,-18.429726258858764
322,522.0,-18.50005018609707
323,523.0,-18.569351709309387
324,524.0,-18.637587564223253
325,525.0,-18.70471748656604
326,526.0,-18.770694212065393
327,527.0,-18.83547147644866
328,528.0,-18.898999015443437
329,529.0,-18.961223564777114
330,530.0,-19.022089860177275
331,531.0,-19.081538637371395
332,532.0,-19.139507632086875
333,533.0,-19.19593158005128
334,534.0,-19.250741216992054
335,535.0,-19.303863278636754
336,536.0,-19.355219500712792
337,537.0,-19.404726618947734
338,538.0,-19.452297369069072
339,539.0,-19.497840486804193
340,540.0,-19.54125570788065
341,541.0,-19.58243876802598
342,542.0,-19.621277402967564
343,543.0,-19.657655348432968
344,544.0,-19.691443340149675
345,545.0,-19.72250911384515
346,546.0,-19.750706405246888
347,547.0,-19.775883950082374
348,548.0,-19.797876484079154
349,549.0,-19.8165087429646
350,550.0,-19.831593462466344
351,551.0,-19.84292837831174
352,552.0,-19.850297226228406
353,553.0,-19.853467741943746
354,554.0,-19.852191661185202
355,555.0,-19.846199719680385
356,556.0,-19.8352026531567
357,557.0,-19.818888197341693
358,558.0,-19.796921087962858
359,559.0,-19.768935060747623
360,560.0,-19.734536851423485
361,561.0,-19.693300195717967
362,562.0,-19.644761829358544
363,563.0,-19.58841648807271
364,564.0,-19.523717907587923
365,565.0,-19.450069823631736
366,566.0,-19.366818971931593
367,567.0,-19.273255088214995
368,568.0,-19.16859890820939
369,569.0,-19.051997167642355
370,570.0,-18.922510602241317
371,571.0,-18.779107947733735
372,572.0,-18.620653939847244
373,573.0,-18.445891314309137
374,574.0,-18.253431806847033
375,575.0,-18.041737153188365
376,576.0,-17.80909608906066
377,577.0,-17.55360635019133
378,578.0,-17.273143672308038
379,579.0,-16.96533279113811
380,580.0,-16.627511442409002
381,581.0,-16.25668636184838
382,582.0,-15.849485285183619
383,583.0,-15.402094948142178
384,584.0,-14.910197086451632
385,585.0,-14.368879435839432
386,586.0,-13.772540732033093
387,587.0,-13.114771710760095
388,588.0,-12.38821410774787
389,589.0,-11.584387658723955
390,590.0,-10.693482099415803
391,591.0,-9.704105165550999
392,592.0,-8.602966592856887
393,593.0,-7.374503117061096
394,594.0,-6.000395473891075
395,595.0,-4.458983399074242
396,596.0,-2.724521628338209
397,597.0,-0.7662528974103111
398,598.0,1.452775057981853
399,599.0,3.977210502110836
400,600.0,6.8613196992491226
401,601.0,10.17146591366918
402,602.0,13.989305409643663
403,603.0,18.415943451444974
404,604.0,23.577330303345633
405,605.0,29.631265229618094
406,606.0,36.776447494535034
407,607.0,45.2640143623687
408,608.0,55.41188309739192
409,609.0,67.62166296387699
410,610.0,82.39653122609661
411,611.0,100.35504314832298
412,612.0,122.22856999482889
413,613.0,148.81530202988677
414,614.0,180.837413517769
415,615.0,218.61081372274828
416,616.0,261.4158249090971
417,617.0,306.5513123410879
418,618.0,348.4561162829931
419,619.0,379.00965499908546
420,620.0,390.2659827536372
421,621.0,378.8196948109212
422,622.0,348.07619743520956
423,623.0,305.98143589077506
424,624.0,260.6559934418901
425,625.0,217.6610303528273
426,626.0,179.69768188785895
427,627.0,147.48562831125793
428,628.0,120.70895888729632
429,629.0,98.64550188024691
430,630.0,80.49706855438211
431,631.0,65.53228617397451
432,632.0,53.1326010032966
433,633.0,42.79483830662082
434,634.0,34.117386348219696
435,635.0,26.782332392365703
436,636.0,20.538537703331514
437,637.0,15.187305545389478
438,638.0,10.570835182812203
439,639.0,6.563178879872197
440,640.0,3.0632319008419415
441,641.0,-0.010661490006157237
442,642.0,-2.724863028399426
443,643.0,-5.133639450065459
444,644.0,-7.281636490731643
445,645.0,-9.20580588612549
446,646.0,-10.936905371974603
447,647.0,-12.500678684006346
448,648.0,-13.918784557948271
449,649.0,-15.209540729527902
450,650.0,-16.38851293447263
451,651.0,-17.468986908510033
452,652.0,-18.462356387367493
453,653.0,-19.378429106772558
454,654.0,-20.225684802452776
455,655.0,-21.01148321013565
456,656.0,-21.74223006554854
457,657.0,-22.423526104418983
458,658.0,-23.06028306247444
459,659.0,-23.656818675442565
460,660.0,-24.216945679050582
461,661.0,-24.744033809026206
462,662.0,-25.24107680109691
463,663.0,-25.710735390990095
464,664.0,-26.15538531443312
465,665.0,-26.57714730715381
466,666.0,-26.977925104879347
467,667.0,-27.359428443337464
468,668.0,-27.723194058255416
469,669.0,-28.070610685360975
470,670.0,-28.402932060381318
471,671.0,-28.721294919044084
472,672.0,-29.02672999707687
473,673.0,-29.320173030206888
474,674.0,-29.602478754161865
475,675.0,-29.8744239046693
476,676.0,-30.1367202174566
477,677.0,-30.39001642825113
478,678.0,-30.63491027278056
479,679.0,-30.871946486772316
480,680.0,-31.101629805953934
481,681.0,-31.324421966052796
482,682.0,-31.540747702796494
483,683.0,-31.751001751912526
484,684.0,-31.955546849128297
485,685.0,-32.154717730171285
486,686.0,-32.34882713076908
487,687.0,-32.53816178664914
488,688.0,-32.72298943353886
489,689.0,-32.903559807165806
490,690.0,-33.08010264325762
491,691.0,-33.252833677541446
492,692.0,-33.42195364574508
493,693.0,-33.58764828359594
494,694.0,-33.750093326821315
495,695.0,-33.90945051114895
496,696.0,-34.06587457230623
497,697.0,-34.219505246020674
498,698.0,-34.370479268019665
499,699.0,-34.518919374030816
500,700.0,-34.66494429978155
501,701.0,-34.80866478099941
502,702.0,-34.95018355341182
503,703.0,-35.08959935274626
504,704.0,-35.227002914730406
505,705.0,-35.36248097509153
506,706.0,-35.49611526955718
507,707.0,-35.62798153385489
508,708.0,-35.75815350371204
509,709.0,-35.88669891485628
510,710.0,-36.013681503014936
511,711.0,-36.13916400391571
512,712.0,-36.2632021532859
513,713.0,-36.38585268685304
514,714.0,-36.507164340344644
515,715.0,-36.62718884948819
516,716.0,-36.74597095001113
517,717.0,-36.863555377641035
518,718.0,-36.979982868105395
519,719.0,-37.095294157131576
520,720.0,-37.209524980447156
521,721.0,-37.322713073779624
522,722.0,-37.43489117285648
523,723.0,-37.546091013405174
524,724.0,-37.65634433115318
525,725.0,-37.76567886182812
526,726.0,-37.87412334115737
527,727.0,-37.98170450486833
528,728.0,-38.08844508868867
529,729.0,-38.19437182834582
530,730.0,-38.29950545956717
531,731.0,-38.40386871808033
532,732.0,-38.507481339612866
533,733.0,-38.61036405989199
534,734.0,-38.71253461464539
535,735.0,-38.81401173960057
536,736.0,-38.914812170484936
537,737.0,-39.014951643025995
538,738.0,-39.11444589295127
539,739.0,-39.213310655988266
540,740.0,-39.3115596678644
541,741.0,-39.409205664307194
542,742.0,-39.50626238104405
543,743.0,-39.60274155380267
544,744.0,-39.69865591831041
545,745.0,-39.794015210294674
546,746.0,-39.88883016548317
547,747.0,-39.983112519603196
548,748.0,-40.076871008382284
549,749.0,-40.17011536754802
550,750.0,-40.262853332827774
551,751.0,-40.35509463994913
552,752.0,-40.44684702463951
553,753.0,-40.538117222626454
554,754.0,-40.628913969637324
555,755.0,-40.71924300139972
556,756.0,-40.80911205364117
557,757.0,-40.89852686208917
558,758.0,-40.987493162471026
559,759.0,-41.07601769051439
560,760.0,-41.16410518194675
561,761.0,-41.25176037249554
562,762.0,-41.338987997888296
563,763.0,-41.42579379385239
564,764.0,-41.512181496115375
565,765.0,-41.5981558404049
566,766.0,-41.68371956244829
567,767.0,-41.76887739797297
568,768.0,-41.853632082706554
569,769.0,-41.937987352376524
570,770.0,-42.02194694271037
571,771.0,-42.10551158943554
572,772.0,-42.188686028279506
573,773.0,-42.27147099496983
574,774.0,-42.35387022523395
575,775.0,-42.43588545479929
576,776.0,-42.517518419393525
577,777.0,-42.598770854743975
578,778.0,-42.679644496578135
579,779.0,-42.76014108062367
580,780.0,-42.840260342607905
581,781.0,-42.92000501825834
582,782.0,-42.99937584330257
583,783.0,-43.078373553467884
584,784.0,-43.15699788448194
585,785.0,-43.23525057207223
586,786.0,-43.313131351966206
587,787.0,-43.39064095989136
588,788.0,-43.46777813157513
589,789.0,-43.54454460274502
590,790.0,-43.62093910912853
591,791.0,-43.69696138645321
592,792.0,-43.772611170446396
593,793.0,-43.84788719683581
594,794.0,-43.922790201348846
595,795.0,-43.997318919712825
596,796.0,-44.07147108765554
597,797.0,-44.1452464409042
598,798.0,-44.218643715186374
599,799.0,-44.29166164622967
600,800.0,-44.36429796976148
601,801.0,-44.43655242150925
602,802.0,-44.50842173720059
603,803.0,-44.57990465256296
604,804.0,-44.650998903323625
605,805.0,-44.721702225210436
606,806.0,-44.79201335395055
607,807.0,-44.86192802527182
608,808.0,-44.93144397490147
609,809.0,-45.00055993856694
610,810.0,-45.069271651995905
611,811.0,-45.13757685091571
612,812.0,-45.205471271053966
613,813.0,-45.27295164813813
614,814.0,-45.3400157178956
615,815.0,-45.40665921605404
616,816.0,-45.47287787834074
617,817.0,-45.538668440483434
618,818.0,-45.60402563820918
619,819.0,-45.668946207245995
620,820.0,-45.73342588332099
621,821.0,-45.79745840216191
622,822.0,-45.86104149949608
623,823.0,-45.92416691105092
624,824.0,-45.98683237255409
625,825.0,-46.049031619733
626,826.0,-46.11075738831511
627,827.0,-46.17200641402803
628,828.0,-46.23277143259918
629,829.0,-46.29304617975606
630,830.0,-46.35282339122608
631,831.0,-46.41209880273681
632,832.0,-46.4708641500157
633,833.0,-46.52911216879028
634,834.0,-46.58683559478794
635,835.0,-46.64402616373644
636,836.0,-46.70067761136295
637,837.0,-46.756781673395096
638,838.0,-46.81232808556035
639,839.0,-46.86731058358629
640,840.0,-46.92171790320015
641,841.0,-46.97554278012973
642,842.0,-47.02877395010228
643,843.0,-47.08140214884554
644,844.0,-47.133418112086815
645,845.0,-47.18481057555363
646,846.0,-47.23556727497328
647,847.0,-47.28567894607369
648,848.0,-47.33513332458199
649,849.0,-47.38391714622594
650,850.0,-47.43201914673267
651,851.0,-47.479426061829884
652,852.0,-47.52612462724517
653,853.0,-47.572100578705886
654,854.0,-47.617340651939514
655,855.0,-47.66182958267353
656,856.0,-47.70555110663554
657,857.0,-47.74848995955307
658,858.0,-47.79063087715332
659,859.0,-47.831955595164004
660,860.0,-47.87244684931255
661,861.0,-47.91208637532651
662,862.0,-47.95085590893325
663,863.0,-47.988736185860546
664,864.0,-48.0257059418355
665,865.0,-48.06174391258577
666,866.0,-48.09682983383891
667,867.0,-48.13094044132225
668,868.0,-48.164052470763465
669,869.0,-48.19614165788988
670,870.0,-48.227183738429176
671,871.0,-48.25715144810874
672,872.0,-48.286018522656036
673,873.0,-48.31375569779851
674,874.0,-48.3403357092638
675,875.0,-48.365726292779186
676,876.0,-48.38989818407231
677,877.0,-48.412817118870805
678,878.0,-48.434449832901805
679,879.0,-48.454760061892955
680,880.0,-48.473712541571786
681,881.0,-48.49126700766584
682,882.0,-48.507386195902484
683,883.0,-48.52202684200921
684,884.0,-48.53514568171374
685,885.0,-48.54669845074318
686,886.0,-48.55663888482525
687,887.0,-48.56491771968746
688,888.0,-48.57148269105721
689,889.0,-48.576282534662084
690,890.0,-48.57925998622949
691,891.0,-48.58035878148695
692,892.0,-48.57951865616184
693,893.0,-48.57667434598187
694,894.0,-48.57176158667437
695,895.0,-48.56471111396684
696,896.0,-48.55544966358684
697,897.0,-48.54390297126184
698,898.0,-48.5299907727192
699,899.0,-48.513630803686624
700,900.0,-48.49473679989137
701,901.0,-48.47321649706123
702,902.0,-48.44897463092332
703,903.0,-48.42191193720549
704,904.0,-48.391923151634956
705,905.0,-48.35889700993948
706,906.0,-48.322717247846185
707,907.0,-48.28326260108287
708,908.0,-48.24040380537684
709,909.0,-48.19400659645572
710,910.0,-48.143928710046964
711,911.0,-48.090018881877825
712,912.0,-48.03212084767631
713,913.0,-47.970066343169435
714,914.0,-47.90368010408491
715,915.0,-47.83277586615009
716,916.0,-47.75715736509261
717,917.0,-47.676616336639825
718,918.0,-47.59093451651927
719,919.0,-47.499876640458695
720,920.0,-47.40319844418508
721,921.0,-47.3006366634263
722,922.0,-47.19191403390977
723,923.0,-47.076736291362806
724,924.0,-46.95479017151314
725,925.0,-46.82574241008797
726,926.0,-46.689238742815235
727,927.0,-46.544899905422085
728,928.0,-46.39232563363595
729,929.0,-46.231084663184504
730,930.0,-46.06071772979516
731,931.0,-45.880735569195394
732,932.0,-45.690612917113015
733,933.0,-45.48978650927489
734,934.0,-45.27765608140896
735,935.0,-45.05357236924266
736,936.0,-44.816842108503295
737,937.0,-44.56671803491855
738,938.0,-44.3023958842158
739,939.0,-44.02300839212256
740,940.0,-43.72762029436643
741,941.0,-43.41522132667484
742,942.0,-43.084718224774974
743,943.0,-42.73492772439488
744,944.0,-42.364563561261605
745,945.0,-41.972233471102754
746,946.0,-41.55642018964613
747,947.0,-41.115471452618635
748,948.0,-40.647584995748105
749,949.0,-40.15079255476206
750,950.0,-39.62293886538788
751,951.0,-39.061664663353156
752,952.0,-38.46437568438529
753,953.0,-37.82821866421182
754,954.0,-37.15005133856039
755,955.0,-36.42640244315788
756,956.0,-35.653429713732464
757,957.0,-34.82687588601135
758,958.0,-33.94200769572217
759,959.0,-32.99355387859214
760,960.0,-31.975630170349064
761,961.0,-30.881651306720073
762,962.0,-29.70422802343296
763,963.0,-28.43504605621513
764,964.0,-27.064727140794048
765,965.0,-25.58265901289724
766,966.0,-23.97679640825197
767,967.0,-22.233425062586093
768,968.0,-20.336876711627042
769,969.0,-18.26919009110202
770,970.0,-16.009696936738692
771,971.0,-13.534524984264635
772,972.0,-10.815988969407158
773,973.0,-7.821843627893827
774,974.0,-4.514367695452279
775,975.0,-0.8492319078096671
776,976.0,3.225920999306254
777,977.0,7.773239290167908
778,978.0,12.866887229048075
779,979.0,18.595867080219136
780,980.0,25.067601107953692
781,981.0,32.412523576523995
782,982.0,40.78999275020283
783,983.0,50.39591789326266
784,984.0,61.47267026997588
785,985.0,74.32194814461525
786,986.0,89.32148078145303
787,987.0,106.94660144476177
788,988.0,127.79775139881383
789,989.0,152.63465090788213
790,990.0,182.4166292362388
791,991.0,218.3452126481567
792,992.0,261.897070407908
793,993.0,314.81798177976543
794,994.0,379.0133930280015
795,995.0,456.20841941688843
796,996.0,547.1616642106991
797,997.0,650.166940673706
798,998.0,758.8013690701812
799,999.0,859.8337306643976
800,1000.0,933.9404137206279
801,1001.0,962.2153455031442
802,1002.0,936.5653422762188
803,1003.0,865.115913304125
804,1004.0,766.8063628511347
805,1005.0,660.9954021815208
806,1006.0,560.9522545595554
807,1007.0,473.1419092495113
808,1008.0,399.318170515661
809,1009.0,338.7772606222767
810,1010.0,289.85819183363117
811,1011.0,250.731578413997
812,1012.0,219.74296562764653
813,1013.0,195.52653773885243
814,1014.0,177.0166610118871
815,1015.0,163.42205371102307
816,1016.0,154.19242410053266
817,1017.0,148.99003044468873
818,1018.0,147.67065400776357
819,1019.0,150.27490105402978
820,1020.0,157.0288188477599
821,1021.0,168.35060465322624
822,1022.0,184.85585573470155
823,1023.0,207.34432035645818
824,1024.0,236.73204578276886
825,1025.0,273.85843527790576
826,1026.0,319.0492071061417
827,1027.0,371.288695531749
828,1028.0,426.97841281900037
829,1029.0,478.78431923216806
830,1030.0,516.0287120355246
831,1031.0,528.2691314933428
832,1032.0,511.0144868698949
833,1033.0,468.69711942945355
834,1034.0,411.69908543629094
835,1035.0,350.6342981546802
836,1036.0,292.7677148488933
837,1037.0,241.6212877832029
838,1038.0,198.12412522188163
839,1039.0,161.85085242920184
840,1040.0,131.84548866943624
841,1041.0,107.05372220685717
842,1042.0,86.50978430573718
843,1043.0,69.3965462303488
844,1044.0,55.048760244964456
845,1045.0,42.934863613856805
846,1046.0,32.63349660129825
847,1047.0,23.81126847156122
848,1048.0,16.203920488918584
849,1049.0,9.601160917642574
850,1050.0,3.834764022005629
851,1051.0,-1.2306429337196505
852,1052.0,-5.704681685260766
853,1053.0,-9.676693968344921
854,1054.0,-13.219959518700193
855,1055.0,-16.39495907205344
856,1056.0,-19.251916364132512
857,1057.0,-21.832786130665
858,1058.0,-24.172807107378162
859,1059.0,-26.301745029999665
860,1060.0,-28.244866634256596
861,1061.0,-30.023730655876875
862,1062.0,-31.656813830587907
863,1063.0,-33.1600248941171
864,1064.0,-34.547120582191724
865,1065.0,-35.83004163053988
866,1066.0,-37.01919477488855
867,1067.0,-38.12368075096538
868,1068.0,-39.15148629449777
869,1069.0,-40.10964714121326
870,1070.0,-41.004372026839405
871,1071.0,-41.84116468710374
872,1072.0,-42.62491085773365
873,1073.0,-43.35996227445662
874,1074.0,-44.05020467299994
875,1075.0,-44.699110789091606
876,1076.0,-45.30979835845858
877,1077.0,-45.88506511682874
878,1078.0,-46.427428799929544
879,1079.0,-46.93915814348827
880,1080.0,-47.42229988323231
881,1081.0,-47.87870475488944
882,1082.0,-48.310044494187196
883,1083.0,-48.71783283685272
884,1084.0,-49.10343851861376
885,1085.0,-49.468101275197796
886,1086.0,-49.81294384233229
887,1087.0,-50.13897795574462
888,1088.0,-50.44712135116254
889,1089.0,-50.73819576431322
890,1090.0,-51.01294393092428
891,1091.0,-51.2720275867232
892,1092.0,-51.51603746743774
893,1093.0,-51.74549530879494
894,1094.0,-51.96085584652246
895,1095.0,-52.162515816347764
896,1096.0,-52.35080995399858
897,1097.0,-52.526014995202104
898,1098.0,-52.68835367568602
899,1099.0,-52.837989731177686
900,1100.0,-52.975033897404614
901,1101.0,-53.099539910094336
902,1102.0,-53.2115045049743
903,1103.0,-53.310864417771995
904,1104.0,-53.39749738421483
905,1105.0,-53.4712181400306
906,1106.0,-53.531769420946716
907,1107.0,-53.5788259626903
908,1108.0,-53.61198250098903
909,1109.0,-53.63074977157066
910,1110.0,-53.63454551016241
911,1111.0,-53.622686452491735
912,1112.0,-53.59437333428616
913,1113.0,-53.548681891273645
914,1114.0,-53.48454785918079
915,1115.0,-53.40074397373564
916,1116.0,-53.295860970665785
917,1117.0,-53.16828258569842
918,1118.0,-53.016157554561005
919,1119.0,-52.837355612981355
920,1120.0,-52.62943349668683
921,1121.0,-52.38957894140492
922,1122.0,-52.11455168286284
923,1123.0,-51.8006064567885
924,1124.0,-51.443404998909045
925,1125.0,-51.0379100449519
926,1126.0,-50.57824633064513
927,1127.0,-50.05754559171578
928,1128.0,-49.467739563891314
929,1129.0,-48.79931498289932
930,1130.0,-48.04100258446738
931,1131.0,-47.17939410432268
932,1132.0,-46.19844727819304
933,1133.0,-45.07887484180594
934,1134.0,-43.797355530888694
935,1135.0,-42.32552508116896
936,1136.0,-40.62868222837392
937,1137.0,-38.66410970823142
938,1138.0,-36.37890325646879
939,1139.0,-33.70714060881335
940,1140.0,-30.566214500993055
941,1141.0,-26.852091668734715
942,1142.0,-22.433270847766494
943,1143.0,-17.143267773815523
944,1144.0,-10.771757182609235
945,1145.0,-3.0552108098754616
946,1146.0,6.3303386086586215
947,1147.0,17.767952337265456
948,1148.0,31.67569464021733
949,1149.0,48.431811781787246
950,1150.0,68.20174902624728
951,1151.0,90.60849963786995
952,1152.0,114.23715188092808
953,1153.0,136.1746900196939
954,1154.0,152.16744631843994
955,1155.0,158.05323304143906
956,1156.0,152.04823845296323
957,1157.0,135.93622281728528
958,1158.0,113.8793233986778
959,1159.0,90.13115646141318
960,1160.0,67.60468726976387
961,1161.0,47.7147740880024
962,1162.0,30.838373180401163
963,1163.0,16.809984811232994
964,1164.0,5.25131124477025
965,1165.0,-4.255767254714669
966,1166.0,-12.094367422948949
967,1167.0,-18.588511995660497
968,1168.0,-24.001784708576793
969,1169.0,-28.544570297424798
970,1170.0,-32.38341149793246
971,1171.0,-35.649870045827015
972,1172.0,-38.44804267683617
973,1173.0,-40.86059912668725
974,1174.0,-42.953527131107876
975,1175.0,-44.779798425825675
976,1176.0,-46.38219974656772
977,1177.0,-47.79550182906178
978,1178.0,-49.04814440903522
979,1179.0,-50.16352522221575
980,1180.0,-51.161010004330365
981,1181.0,-52.05672149110717
982,1182.0,-52.864154418273415
983,1183.0,-53.594664521556524
984,1184.0,-54.25785753668379
985,1185.0,-54.861895199383184
986,1186.0,-55.41374724538173
987,1187.0,-55.91939041040712
988,1188.0,-56.383970430187105
989,1189.0,-56.811939040448806
990,1190.0,-57.207156976919805
991,1191.0,-57.57298997532757
992,1192.0,-57.91237877139952
993,1193.0,-58.227902100863275
994,1194.0,-58.521831699446466
995,1195.0,-58.79617030287636
996,1196.0,-59.05268964688048
997,1197.0,-59.29296446718638
998,1198.0,-59.5183954995216
999,1199.0,-59.730232479613164
1000,1200.0,-59.92959414318932
1001,1201.0,-60.1174822259768
1002,1202.0,-60.29479646370385
1003,1203.0,-60.46235059209755
1004,1204.0,-60.6208753468851
1005,1205.0,-60.771033463794424
1006,1206.0,-60.913423678553045
1007,1207.0,-61.04859272688827
1008,1208.0,-61.17703534452744
1009,1209.0,-61.29920326719832
1010,1210.0,-61.41550723062835
1011,1211.0,-61.52632597054492
1012,1212.0,-61.63200222267551
1013,1213.0,-61.73285272274768
1014,1214.0,-61.82916820648893
1015,1215.0,-61.92121640962671
1016,1216.0,-62.00924106788864
1017,1217.0,-62.093471917002034
1018,1218.0,-62.1741156926945
1019,1219.0,-62.251367130693325
1020,1220.0,-62.32540596672618
1021,1221.0,-62.39639693652043
1022,1222.0,-62.4644947758037
1023,1223.0,-62.529843220303405
1024,1224.0,-62.59257300574723
1025,1225.0,-62.6528108678624
1026,1226.0,-62.71067054237642
1027,1227.0,-62.766259765017026
1028,1228.0,-62.81967827151141
1029,1229.0,-62.871021797587105
1030,1230.0,-62.9203760789718
1031,1231.0,-62.967823851392836
1032,1232.0,-63.01344285057792
1033,1233.0,-63.057304812254074
1034,1234.0,-63.09947647214915
1035,1235.0,-63.140022565990535
1036,1236.0,-63.17900182950575
1037,1237.0,-63.21646999842244
1038,1238.0,-63.25248180846779
1039,1239.0,-63.287084995369355
1040,1240.0,-63.32032729485479
1041,1241.0,-63.35225244265132
1042,1242.0,-63.38290317448673
1043,1243.0,-63.412316226088365
1044,1244.0,-63.440531333183685
1045,1245.0,-63.467582231500614
1046,1246.0,-63.49350265676571
1047,1247.0,-63.518323344707255
1048,1248.0,-63.54207403105249
1049,1249.0,-63.56478245152891
1050,1250.0,-63.58647634186377
1051,1251.0,-63.60717843778525
1052,1252.0,-63.62691547502004
1053,1253.0,-63.64570718929599
1054,1254.0,-63.663576316340595
1055,1255.0,-63.68054359188136
1056,1256.0,-63.69662675164557
1057,1257.0,-63.71184553136095
1058,1258.0,-63.72621666675491
1059,1259.0,-63.73975489355519
1060,1260.0,-63.75247794748884
1061,1261.0,-63.764399564283394
1062,1262.0,-63.77553347966659
1063,1263.0,-63.785893429365615
1064,1264.0,-63.79549214910844
1065,1265.0,-63.80433937462237
1066,1266.0,-63.81244884163448
1067,1267.0,-63.81983028587274
1068,1268.0,-63.82649444306435
1069,1269.0,-63.832449048937065
1070,1270.0,-63.83770483921796
1071,1271.0,-63.84226854963515
1072,1272.0,-63.84614991591559
1073,1273.0,-63.849355673787045
1074,1274.0,-63.851893558976826
1075,1275.0,-63.853769307212474
1076,1276.0,-63.85498965422164
1077,1277.0,-63.85556033573141
1078,1278.0,-63.85548708746978
1079,1279.0,-63.85477364516419
1080,1280.0,-63.85342674454159
1081,1281.0,-63.851450121330004
1082,1282.0,-63.84884751125651
1083,1283.0,-63.84562265004888
1084,1284.0,-63.84177927343478
1085,1285.0,-63.837319117141305
1086,1286.0,-63.832246916896224
1087,1287.0,-63.82656440842686
1088,1288.0,-63.82027332746077
1089,1289.0,-63.81337640972538
1090,1290.0,-63.80587339094802
1091,1291.0,-63.797768006856586
1092,1292.0,-63.78905999317851
1093,1293.0,-63.779750085641126
1094,1294.0,-63.769840019971525
1095,1295.0,-63.75932853189806
1096,1296.0,-63.7482153571475
1097,1297.0,-63.73650123144773
1098,1298.0,-63.724185890525746
1099,1299.0,-63.711268070109895
1100,1300.0,-63.69774550592717
1101,1301.0,-63.68361893370468
1102,1302.0,-63.668885089170544
1103,1303.0,-63.65354170805199
1104,1304.0,-63.63758852607634
1105,1305.0,-63.6210212789714
1106,1306.0,-63.6038387024646
1107,1307.0,-63.58603653228329
1108,1308.0,-63.56761250415502
1109,1309.0,-63.54856135380726
1110,1310.0,-63.52888081696756
1111,1311.0,-63.508566629363145
1112,1312.0,-63.48761352672193
1113,1313.0,-63.46601624477114
1114,1314.0,-63.44377051923857
1115,1315.0,-63.42087008585122
1116,1316.0,-63.397310680336886
1117,1317.0,-63.37308403842269
1118,1318.0,-63.34818489583665
1119,1319.0,-63.322604988306125
1120,1320.0,-63.29633905155845
1121,1321.0,-63.269377821321314
1122,1322.0,-63.24171303332207
1123,1323.0,-63.213336423287956
1124,1324.0,-63.18423972694711
1125,1325.0,-63.1544116800261
1126,1326.0,-63.123844018253294
1127,1327.0,-63.09252547735548
1128,1328.0,-63.06044579306081
1129,1329.0,-63.027591701096526
1130,1330.0,-62.99395193718988
1131,1331.0,-62.95951423706833
1132,1332.0,-62.924265336459484
1133,1333.0,-62.88819097109149
1134,1334.0,-62.85127487669092
1135,1335.0,-62.8135037889856
1136,1336.0,-62.774861443703
1137,1337.0,-62.73532957657062
1138,1338.0,-62.694891923315936
1139,1339.0,-62.65352821966644
1140,1340.0,-62.61122020134985
1141,1341.0,-62.56794760409343
1142,1342.0,-62.523688163624456
1143,1343.0,-62.478419615670646
1144,1344.0,-62.432118695959616
1145,1345.0,-62.38476014021876
1146,1346.0,-62.33631768417558
1147,1347.0,-62.28676506355737
1148,1348.0,-62.23607301409197
1149,1349.0,-62.184211271506456
1150,1350.0,-62.131147571528345
1151,1351.0,-62.07684964988562
1152,1352.0,-62.02128224230569
1153,1353.0,-61.96440808451507
1154,1354.0,-61.90618891224267
1155,1355.0,-61.84658246121512
1156,1356.0,-61.785547467160086
1157,1357.0,-61.72303766580512
1158,1358.0,-61.65900479287734
1159,1359.0,-61.593399584104645
1160,1360.0,-61.52616677521473
1161,1361.0,-61.45725110193416
1162,1362.0,-61.386593299992
1163,1363.0,-61.31413110511403
1164,1364.0,-61.239796253029
1165,1365.0,-61.163518479463164
1166,1366.0,-61.0852245201454
1167,1367.0,-61.00483411080245
1168,1368.0,-60.92226298716173
1169,1369.0,-60.83742388495102
1170,1370.0,-60.750219539897444
1171,1371.0,-60.66055168772891
1172,1372.0,-60.5683130641728
1173,1373.0,-60.47338940495638
1174,1374.0,-60.3756584458074
1175,1375.0,-60.274992922453066
1176,1376.0,-60.171253570621275
1177,1377.0,-60.06429412603916
1178,1378.0,-59.953957324434214
1179,1379.0,-59.84007390153397
1180,1380.0,-59.722463593066095
1181,1381.0,-59.60093413475806
1182,1382.0,-59.47527926233715
1183,1383.0,-59.345274711531374
1184,1384.0,-59.210683218067516
1185,1385.0,-59.071245517673105
1186,1386.0,-58.926687346076505
1187,1387.0,-58.77670843900387
1188,1388.0,-58.62098653218368
1189,1389.0,-58.459173361343574
1190,1390.0,-58.29089266221058
1191,1391.0,-58.11573517051147
1192,1392.0,-57.933257621975145
1193,1393.0,-57.74297875232833
1194,1394.0,-57.5443752972983
1195,1395.0,-57.3368769926135
1196,1396.0,-57.11986057399986
1197,1397.0,-56.892646777186656
1198,1398.0,-56.65449133790048
1199,1399.0,-56.40457899186822
1200,1400.0,-56.14201347481844
1201,1401.0,-55.86580952247823
1202,1402.0,-55.57488287057504
1203,1403.0,-55.26803525483615
1204,1404.0,-54.943940410989626
1205,1405.0,-54.601130074762295
1206,1406.0,-54.237972981882194
1207,1407.0,-53.85265286807612
1208,1408.0,-53.44314546907208
1209,1409.0,-53.00718352059789
1210,1410.0,-52.54222875838036
1211,1411.0,-52.045427918147425
1212,1412.0,-51.51356473562646
1213,1413.0,-50.94300394654442
1214,1414.0,-50.32963028662971
1215,1415.0,-49.66875949160908
1216,1416.0,-48.955054297210836
1217,1417.0,-48.18240743916158
1218,1418.0,-47.34380565318929
1219,1419.0,-46.431167675021015
1220,1420.0,-45.435146240385166
1221,1421.0,-44.34488708500817
1222,1422.0,-43.147727944618055
1223,1423.0,-41.8288415549423
1224,1424.0,-40.370776651708184
1225,1425.0,-38.75289697064363
1226,1426.0,-36.950679247476046
1227,1427.0,-34.93482521793203
1228,1428.0,-32.67013561774024
1229,1429.0,-30.11408318262761
1230,1430.0,-27.214977648321565
1231,1431.0,-23.909612750550195
1232,1432.0,-20.12021122503984
1233,1433.0,-15.750475807519024
1234,1434.0,-10.68044723371463
1235,1435.0,-4.759833239354748
1236,1436.0,2.200612439833776
1237,1437.0,10.440075068122951
1238,1438.0,20.261339909785647
1239,1439.0,32.04690322909369
1240,1440.0,46.27598829032081
1241,1441.0,63.53770335773834
1242,1442.0,84.5286046956196
1243,1443.0,110.00888256823669
1244,1444.0,140.6663292398623
1245,1445.0,176.8018239747687
1246,1446.0,217.72996903722833
1247,1447.0,260.8782656915141
1248,1448.0,300.9503842018985
1249,1449.0,330.2124478326539
1250,1450.0,341.09690284805265
1251,1451.0,330.3605175123678
1252,1452.0,301.246551089871
1253,1453.0,261.3225828448351
1254,1454.0,218.32251704153282
1255,1455.0,177.54271194423677
1256,1456.0,141.55569081721956
1257,1457.0,111.04688092475317
1258,1458.0,85.71543053111031
1259,1459.0,64.8735749005632
1260,1460.0,47.76115129738514
1261,1461.0,33.681633985848066
1262,1462.0,22.045942230224682
1263,1463.0,12.374883294787423
1264,1464.0,4.285989443808603
1265,1465.0,-2.5234910584388217
1266,1466.0,-8.292714947682725
1267,1467.0,-13.210894959650432
1268,1468.0,-17.428292830069495
1269,1469.0,-21.064832294667212
1270,1470.0,-24.216777089171273
1271,1471.0,-26.961868949308837
1272,1472.0,-29.36327961080815
1273,1473.0,-31.47265980939642
1274,1474.0,-33.332501280800216
1275,1475.0,-34.97796176074826
1276,1476.0,-36.43829998496699
1277,1477.0,-37.737997689184795
1278,1478.0,-38.89764760912885
1279,1479.0,-39.93465348052655
1280,1480.0,-40.8638000391054
1281,1481.0,-41.69769902059329
1282,1482.0,-42.44715616071676
1283,1483.0,-43.12146619520422
1284,1484.0,-43.72865585978252
1285,1485.0,-44.27568289017972
1286,1486.0,-44.76859502212301
1287,1487.0,-45.21267099133979
1288,1488.0,-45.61252853355768
1289,1489.0,-45.97221938450434
1290,1490.0,-46.295308279906976
1291,1491.0,-46.58493795549316
1292,1492.0,-46.843887146990255
1293,1493.0,-47.074614590125975
1294,1494.0,-47.27930402062816
1295,1495.0,-47.459892174223114
1296,1496.0,-47.61810478663938
1297,1497.0,-47.75547559360439
1298,1498.0,-47.873372330845086
1299,1499.0,-47.97301473408925
1300,1500.0,-48.05548853906453
1301,1501.0,-48.12176048149877
1302,1502.0,-48.17269129711826
1303,1503.0,-48.20904572165114
1304,1504.0,-48.23149949082517
1305,1505.0,-48.240649340367554
1306,1506.0,-48.23702200600587
1307,1507.0,-48.22107422346767
1308,1508.0,-48.19320172848029
1309,1509.0,-48.15374325677112
1310,1510.0,-48.10298554406813
1311,1511.0,-48.04116132609829
1312,1512.0,-47.968458338589244
1313,1513.0,-47.88501731726865
1314,1514.0,-47.790935997863926
1315,1515.0,-47.6862671161025
1316,1516.0,-47.57102440771155
1317,1517.0,-47.445177608419044
1318,1518.0,-47.308658453952376
1319,1519.0,-47.16135468003881
1320,1520.0,-47.00311402240618
1321,1521.0,-46.83373921678185
1322,1522.0,-46.65299299889307
1323,1523.0,-46.460589104467545
1324,1524.0,-46.256194269232765
1325,1525.0,-46.03942722891588
1326,1526.0,-45.809851719245216
1327,1527.0,-45.56697447594752
1328,1528.0,-45.310244234750826
1329,1529.0,-45.039043731381526
1330,1530.0,-44.75268370156846
1331,1531.0,-44.450398881038154
1332,1532.0,-44.13134200551849
1333,1533.0,-43.79457381073712
1334,1534.0,-43.439051032421276
1335,1535.0,-43.06362340629835
1336,1536.0,-42.66701366809684
1337,1537.0,-42.24781055354242
1338,1538.0,-41.804445798363986
1339,1539.0,-41.33518313828813
1340,1540.0,-40.83809330904364
1341,1541.0,-40.31102804635634
1342,1542.0,-39.75159708595538
1343,1543.0,-39.157130163566535
1344,1544.0,-38.524643014918865
1345,1545.0,-37.850790375738825
1346,1546.0,-37.13181398175425
1347,1547.0,-36.36348056869315
1348,1548.0,-35.541012872281954
1349,1549.0,-34.65899762824847
1350,1550.0,-33.711285572321
1351,1551.0,-32.69087144022615
1352,1552.0,-31.58973996769214
1353,1553.0,-30.398692890445318
1354,1554.0,-29.107131944214416
1355,1555.0,-27.702790864726012
1356,1556.0,-26.1714183877084
1357,1557.0,-24.496376248888282
1358,1558.0,-22.658146183993495
1359,1559.0,-20.633714928751715
1360,1560.0,-18.39580321889025
1361,1561.0,-15.911894790136557
1362,1562.0,-13.142998378217953
1363,1563.0,-10.042078718862285
1364,1564.0,-6.5520345477971205
1365,1565.0,-2.603097600749834
1366,1566.0,1.8905303865528822
1367,1567.0,7.0350426783827515
1368,1568.0,12.962677539011793
1369,1569.0,19.838999232713604
1370,1570.0,27.87218002375971
1371,1571.0,37.32451417642369
1372,1572.0,48.52601895497719
1373,1573.0,61.88885362369297
1374,1574.0,77.91862844684397
1375,1575.0,97.21295768870164
1376,1576.0,120.42601961353989
1377,1577.0,148.15720048563026
1378,1578.0,180.69270856924504
1379,1579.0,217.5124751286578
1380,1580.0,256.54871842813986
1381,1581.0,293.49785473196516
1382,1582.0,322.05952430440493
1383,1583.0,336.0884404097317
1384,1584.0,333.02945831221905
1385,1585.0,315.7074972761384
1386,1586.0,290.55171656576294
1387,1587.0,264.17550844536527
1388,1588.0,241.24166817921719
1389,1589.0,224.24323403159178
1390,1590.0,214.21496626676117
1391,1591.0,211.50149614899829
1392,1592.0,216.27817994257498
1393,1593.0,228.83096791176467
1394,1594.0,249.66484832083938
1395,1595.0,279.4720894340717
1396,1596.0,318.92339751573377
1397,1597.0,368.1695598300987
1398,1598.0,425.89839964143835
1399,1599.0,487.9251972140262
1400,1600.0,545.8844988121336
1401,1601.0,587.6647867000343
1402,1602.0,601.4373671419996
1403,1603.0,582.0957714023025
1404,1604.0,534.6028607452158
1405,1605.0,470.63622243501163
1406,1606.0,402.1407387359625
1407,1607.0,337.2906579123412
1408,1608.0,280.0443342284202
1409,1609.0,231.439979948472
1410,1610.0,190.99102033676922
1411,1611.0,157.6143696575832
1412,1612.0,130.11735217518822
1413,1613.0,107.40809015385571
1414,1614.0,88.56303685785838
1415,1615.0,72.83045555146919
1416,1616.0,59.609779498960506
1417,1617.0,48.425041964604134
1418,1618.0,38.899733212673254
1419,1619.0,30.735495507439964
1420,1620.0,23.694985113177154
1421,1621.0,17.588417294157352
1422,1622.0,12.263144314652436
1423,1623.0,7.595629438935703
1424,1624.0,3.4852579312794205
1425,1625.0,-0.15043194404415772
1426,1626.0,-3.3794419227622257
1427,1627.0,-6.25818774060258
1428,1628.0,-8.833743133292273
1429,1629.0,-11.145607836559293
1430,1630.0,-13.227101586130402
1431,1631.0,-15.106476117733791
1432,1632.0,-16.807802167096952
1433,1633.0,-18.351680469947496
1434,1634.0,-19.755823762011232
1435,1635.0,-21.035525779018144
1436,1636.0,-22.204042256694038
1437,1637.0,-23.27290693076702
1438,1638.0,-24.252193536964796
1439,1639.0,-25.150730811014455
1440,1640.0,-25.976279488643286
1441,1641.0,-26.735686305579293
1442,1642.0,-27.435009997549514
1443,1643.0,-28.079624300281694
1444,1644.0,-28.674312949503246
1445,1645.0,-29.22334168094153
1446,1646.0,-29.730526230324813
1447,1647.0,-30.199288333379855
1448,1648.0,-30.632701725834295
1449,1649.0,-31.033536143415176
1450,1650.0,-31.404292321850335
1451,1651.0,-31.747229996867418
1452,1652.0,-32.06439790419404
1453,1653.0,-32.357657779557485
1454,1654.0,-32.62870235868559
1455,1655.0,-32.87907237730474
1456,1656.0,-33.11017857114325
1457,1657.0,-33.323307675928845
1458,1658.0,-33.51963842738883
1459,1659.0,-33.70025356125029
1460,1660.0,-33.8661468132409
1461,1661.0,-34.01823191908875
1462,1662.0,-34.15735161452062
1463,1663.0,-34.28428263526348
1464,1664.0,-34.39974371704625
1465,1665.0,-34.50439759559549
1466,1666.0,-34.59885900663903
1467,1667.0,-34.683698685904574
1468,1668.0,-34.75944436911868
1469,1669.0,-34.826588792009716
1470,1670.0,-34.88558869030476
1471,1671.0,-34.93686979973131
1472,1672.0,-34.98082785601696
1473,1673.0,-35.01783559488945
1474,1674.0,-35.0482357520757
1475,1675.0,-35.07235506330426
1476,1676.0,-35.090493264301585
1477,1677.0,-35.10293509079497
1478,1678.0,-35.10994527851244
1479,1679.0,-35.111773563181714
1480,1680.0,-35.1086536805301
1481,1681.0,-35.10080536628493
1482,1682.0,-35.08843535617393
1483,1683.0,-35.071737385923825
1484,1684.0,-35.05089619126329
1485,1685.0,-35.02608450791877
1486,1686.0,-34.99746307161854
1487,1687.0,-34.96518761808966
1488,1688.0,-34.929401883059654
1489,1689.0,-34.890243602256305
1490,1690.0,-34.847842511406725
1491,1691.0,-34.8023223462385
1492,1692.0,-34.753796842479005
1493,1693.0,-34.70237873585597
1494,1694.0,-34.64817076209715
1495,1695.0,-34.59127265692973
1496,1696.0,-34.53177815608092
1497,1697.0,-34.46977599527827
1498,1698.0,-34.405351910249465
1499,1699.0,-34.3385856367222
1500,1700.0,-34.26955491042372
1501,1701.0,-34.19833046708118
1502,1702.0,-34.12498404242342
1503,1703.0,-34.049580372176024
1504,1704.0,-33.972183192067405
1505,1705.0,-33.8928512378252
1506,1706.0,-33.81164324517681
1507,1707.0,-33.72861394984943
1508,1708.0,-33.64381408757117
1509,1709.0,-33.557294394069004
1510,1710.0,-33.4691026050707
1511,1711.0,-33.37928345630303
1512,1712.0,-33.287881683494106
1513,1713.0,-33.194937022371505
1514,1714.0,-33.10049120866256
1515,1715.0,-33.004581978095075
1516,1716.0,-32.90724506639617
1517,1717.0,-32.808516209292975
1518,1718.0,-32.70842814251387
1519,1719.0,-32.60701360178564
1520,1720.0,-32.50430232283543
1521,1721.0,-32.400326041391736
1522,1722.0,-32.29511149318205
1523,1723.0,-32.18868541393317
1524,1724.0,-32.08107553937248
1525,1725.0,-31.97230660522837
1526,1726.0,-31.862402347227317
1527,1727.0,-31.751385501097502
1528,1728.0,-31.639278802566423
1529,1729.0,-31.52610398736101
1530,1730.0,-31.411881791209225
1531,1731.0,-31.296631949838
1532,1732.0,-31.18037319897553
1533,1733.0,-31.063124274349093
1534,1734.0,-30.944902911686086
1535,1735.0,-30.825725846714022
1536,1736.0,-30.705610815160526
1537,1737.0,-30.584571552752777
1538,1738.0,-30.462624795217835
1539,1739.0,-30.339785278284808
1540,1740.0,-30.216066737679284
1541,1741.0,-30.091482909130264
1542,1742.0,-29.966047528364243
1543,1743.0,-29.8397733311092
1544,1744.0,-29.712672053092547
1545,1745.0,-29.584756430041807
1546,1746.0,-29.456037197684054
1547,1747.0,-29.326526091747155
1548,1748.0,-29.196232847958527
1549,1749.0,-29.06516920204558
1550,1750.0,-28.933344889736418
1551,1751.0,-28.800768646757888
1552,1752.0,-28.667451208837292
1553,1753.0,-28.533400311702508
1554,1754.0,-28.398625691080724
1555,1755.0,-28.263136082700157
1556,1756.0,-28.12693922228732
1557,1757.0,-27.990042845570315
1558,1758.0,-27.85245468827725
1559,1759.0,-27.714182486133723
1560,1760.0,-27.575233974868752
1561,1761.0,-27.435614890209536
1562,1762.0,-27.29533296788327
1563,1763.0,-27.154394943617717
1564,1764.0,-27.012806553140535
1565,1765.0,-26.870574532179035
1566,1766.0,-26.72770461645996
1567,1767.0,-26.58420154171199
1568,1768.0,-26.440073043662096
1569,1769.0,-26.295323858037364
1570,1770.0,-26.14995772056568
1571,1771.0,-26.003982366974924
1572,1772.0,-25.857400532992415
1573,1773.0,-25.710217954345126
1574,1774.0,-25.562440366760484
1575,1775.0,-25.41407050596672
1576,1776.0,-25.265113107690695
1577,1777.0,-25.11557390766029
1578,1778.0,-24.965455641603285
1579,1779.0,-24.81476304524631
1580,1780.0,-24.66349985431725
1581,1781.0,-24.511669804543544
1582,1782.0,-24.359276631653074
1583,1783.0,-24.206324071372592
1584,1784.0,-24.05281585943021
1585,1785.0,-23.898754731553254
1586,1786.0,-23.74414442346938
1587,1787.0,-23.588988670905337
1588,1788.0,-23.43328920958993
1589,1789.0,-23.277050775249336
1590,1790.0,-23.120275103611448
1591,1791.0,-22.962965930403925
1592,1792.0,-22.805124991354887
1593,1793.0,-22.64675502219052
1594,1794.0,-22.487859758638933
1595,1795.0,-22.328441936427907
1596,1796.0,-22.168502291284312
1597,1797.0,-22.008044558936035
1598,1798.0,-21.847071475110624
1599,1799.0,-21.685584775535972
1600,1800.0,-21.52358619593815
1601,1801.0,-21.3610784720463
1602,1802.0,-21.19806333958627
1603,1803.0,-21.034543534287195
1604,1804.0,-20.870519791875495
1605,1805.0,-20.70599584807951
1606,1806.0,-20.540973438625542
1607,1807.0,-20.375452299241942
1608,1808.0,-20.209436165655916
1609,1809.0,-20.0429267735949
1610,1810.0,-19.875924858786675
1611,1811.0,-19.708432156958224
1612,1812.0,-19.54045140383755
1613,1813.0,-19.371982335152552
1614,1814.0,-19.20302868662975
1615,1815.0,-19.033590193997043
1616,1816.0,-18.86366959298175
1617,1817.0,-18.693267619310973
1618,1818.0,-18.522385008713172
1619,1819.0,-18.351024496916125
1620,1820.0,-18.17918681964602
1621,1821.0,-18.006872712630866
1622,1822.0,-17.8340839115981
1623,1823.0,-17.660821152275275
1624,1824.0,-17.48708717039017
1625,1825.0,-17.312880701669656
1626,1826.0,-17.138204481841967
1627,1827.0,-16.963059246634202
1628,1828.0,-16.78744573177346
1629,1829.0,-16.611365672988086
1630,1830.0,-16.434819806004725
1631,1831.0,-16.257808866551386
1632,1832.0,-16.08033359035562
1633,1833.0,-15.902394713144986
1634,1834.0,-15.7239949706468
1635,1835.0,-15.545132098587601
1636,1836.0,-15.365809832695504
1637,1837.0,-15.186027908699089
1638,1838.0,-15.005787062324998
1639,1839.0,-14.825088029299877
1640,1840.0,-14.643931545353098
1641,1841.0,-14.46231834621085
1642,1842.0,-14.280249167600687
1643,1843.0,-14.097725745250045
1644,1844.0,-13.914746814887167
1645,1845.0,-13.731315112238462
1646,1846.0,-13.547429373032628
1647,1847.0,-13.363091332996191
1648,1848.0,-13.178300727856822
1649,1849.0,-12.993060293342296
1650,1850.0,-12.80736776518006
1651,1851.0,-12.621225879096983
1652,1852.0,-12.434633370821757
1653,1853.0,-12.247592976080796
1654,1854.0,-12.060102430602
1655,1855.0,-11.872165470113032
1656,1856.0,-11.683779830340882
1657,1857.0,-11.494947247013442
1658,1858.0,-11.305667455857929
1659,1859.0,-11.115942192602233
1660,1860.0,-10.92577119297357
1661,1861.0,-10.73515419270052
1662,1862.0,-10.544091927508362
1663,1863.0,-10.352586133125897
1664,1864.0,-10.160635545280002
1665,1865.0,-9.96824089969914
1666,1866.0,-9.77540293211041
1667,1867.0,-9.582122378241365
1668,1868.0,-9.388397973818428
1669,1869.0,-9.194231454571309
1670,1870.0,-8.999623556224833
1671,1871.0,-8.804573014508605
1672,1872.0,-8.609080565148815
1673,1873.0,-8.413146943873926
1674,1874.0,-8.216772886410581
1675,1875.0,-8.01995812848736
1676,1876.0,-7.822702405830114
1677,1877.0,-7.62500645416776
1678,1878.0,-7.426871009227398
1679,1879.0,-7.228294806735903
1680,1880.0,-7.0292795824220775
1681,1881.0,-6.829825072012227
1682,1882.0,-6.629931011233566
1683,1883.0,-6.4295991358153515
1684,1884.0,-6.2288271814832115
1685,1885.0,-6.027616883965493
1686,1886.0,-5.825968978989749
1687,1887.0,-5.623882202282857
1688,1888.0,-5.42135728957328
1689,1889.0,-5.218393976587777
1690,1890.0,-5.014993999054241
1691,1891.0,-4.811156092699548
1692,1892.0,-4.606879993251368
1693,1893.0,-4.402166436438165
1694,1894.0,-4.197016157986127
1695,1895.0,-3.9914288936238336
1696,1896.0,-3.785404379078045
1697,1897.0,-3.5789423500764315
1698,1898.0,-3.372044542345975
1699,1899.0,-3.164708691615033
1700,1900.0,-2.9569365336105875
1701,1901.0,-2.7487288040601925
1702,1902.0,-2.5400832386912953
1703,1903.0,-2.3310015732326974
1704,1904.0,-2.1214835434102497
1705,1905.0,-1.9115288849507124
1706,1906.0,-1.7011383335839128
1707,1907.0,-1.4903116250352468
1708,1908.0,-1.2790484950342034
1709,1909.0,-1.0673486793066331
1710,1910.0,-0.8552129135809992
1711,1911.0,-0.6426419335834908
1712,1912.0,-0.42963347504337435
1713,1913.0,-0.21618927368717777
1714,1914.0,-0.002310065241999837
1715,1915.0,0.21200641456380254
1716,1916.0,0.42675843000324676
1717,1917.0,0.6419472453485469
1718,1918.0,0.8575711248727202
1719,1919.0,1.073631332847981
1720,1920.0,1.2901281335462045
1721,1921.0,1.5070607912412015
1722,1922.0,1.7244295702043928
1723,1923.0,1.9422337347086795
1724,1924.0,2.1604755490266143
1725,1925.0,2.3791522774313307
1726,1926.0,2.598266184194017
1727,1927.0,2.817815533587691
1728,1928.0,3.0378015898854756
1729,1929.0,3.258223617359363
1730,1930.0,3.479082880281112
1731,1931.0,3.70037764292465
1732,1932.0,3.922109169562191
1733,1933.0,4.144277724466065
1734,1934.0,4.366882571907809
1735,1935.0,4.5899239761620265
1736,1936.0,4.813402201498775
1737,1937.0,5.037316512192319
1738,1938.0,5.2616691725147575
1739,1939.0,5.486457446737859
1740,1940.0,5.71168359913554
1741,1941.0,5.937345893979
1742,1942.0,6.1634465955417
1743,1943.0,6.389983968095294
1744,1944.0,6.616958275912566
1745,1945.0,6.8443707832666405
1746,1946.0,7.07221975442917
1747,1947.0,7.300507453673163
1748,1948.0,7.529232145271635
1749,1949.0,7.758395093495437
1750,1950.0,7.987995562618835
1751,1951.0,8.218034816914042
1752,1952.0,8.448511120651801
1753,1953.0,8.679425738107057
1754,1954.0,8.910779933551112
1755,1955.0,9.142570971256646
1756,1956.0,9.374801115495757
1757,1957.0,9.607470630541684
1758,1958.0,9.84057778066608
1759,1959.0,10.07412483014241
1760,1960.0,10.308110043243232
1761,1961.0,10.542535684239738
1762,1962.0,10.777399017405514
1763,1963.0,11.012702307013114
1764,1964.0,11.248445817334414
1765,1965.0,11.484628812642768
1766,1966.0,11.72125055720926
1767,1967.0,11.958313315307805
1768,1968.0,12.195815351210513
1769,1969.0,12.433757929189596
1770,1970.0,12.672141313517841
1771,1971.0,12.910963768468264
1772,1972.0,13.150228558311937
1773,1973.0,13.389932947322905
1774,1974.0,13.630078199772925
1775,1975.0,13.870665579934212
1776,1976.0,14.111693352080238
1777,1977.0,14.353161780482878
1778,1978.0,14.595073129414232
1779,1979.0,14.837424663147885
1780,1980.0,15.080218645955483
1781,1981.0,15.32345534210981
1782,1982.0,15.567133015882973
1783,1983.0,15.811253931548436
1784,1984.0,16.055816353378304
1785,1985.0,16.300821545644794
1786,1986.0,16.54626977261978
1787,1987.0,16.792161298576957
1788,1988.0,17.038495387789226
1789,1989.0,17.285272304527552
1790,1990.0,17.532493313065515
1791,1991.0,17.780157677675106
1792,1992.0,18.028265662629565
1793,1993.0,18.276817532199402
1794,1994.0,18.52581455065956
1795,1995.0,18.775253982282265
1796,1996.0,19.025139091338588
1797,1997.0,19.275468142102454
1798,1998.0,19.52624239884517
1799,1999.0,19.777462125839975
1800,2000.0,20.029125587358976
