raman_shift_cm-1,intensity
200.000000,0.01076438662
201.000000,0.01171667578
202.000000,0.01073453607
203.000000,0.007467571057
204.000000,0.01188482205
205.000000,0.01096708546
206.000000,0.009000657043
207.000000,0.01123702814
208.000000,0.01080416638
209.000000,0.01066351747
210.000000,0.01013232909
211.000000,0.01116914397
212.000000,0.00860304449
213.000000,0.009750368709
214.000000,0.009112187209
215.000000,0.01127435679
216.000000,0.01015634842
217.000000,0.009492231864
218.000000,0.008513570935
219.000000,0.009563247215
220.000000,0.01009416125
221.000000,0.009526917633
222.000000,0.01266649901
223.000000,0.01209206933
224.000000,0.004656546465
225.000000,0.006301097065
226.000000,0.009729832932
227.000000,0.009235251288
228.000000,0.01050717455
229.000000,0.01051479032
230.000000,0.01431608335
231.000000,0.007856625175
232.000000,0.009325719048
233.000000,0.01416673615
234.000000,0.01137486433
235.000000,0.01140785202
236.000000,0.009053981015
237.000000,0.00678611347
238.000000,0.01041746493
239.000000,0.01030083684
240.000000,0.00762837939
241.000000,0.008716906627
242.000000,0.009939550678
243.000000,0.008194414528
244.000000,0.00988765924
245.000000,0.01027544831
246.000000,0.01015593951
247.000000,0.009072470201
248.000000,0.01127283787
249.000000,0.01186796559
250.000000,0.01072762
251.000000,0.008449756416
252.000000,0.01154981671
253.000000,0.00908392918
254.000000,0.01184542935
255.000000,0.007943834019
256.000000,0.01191664585
257.000000,0.010047889
258.000000,0.007590824489
259.000000,0.009460831592
260.000000,0.01019714529
261.000000,0.01063483554
262.000000,0.008125190716
263.000000,0.007875136953
264.000000,0.0104893702
265.000000,0.009157021998
266.000000,0.0105618546
267.000000,0.01161020662
268.000000,0.006793919117
269.000000,0.01060059846
270.000000,0.01254144666
271.000000,0.009497431667
272.000000,0.008471190984
273.000000,0.01159764478
274.000000,0.01060038934
275.000000,0.01188560385
276.000000,0.009403749944
277.000000,0.007130890737
278.000000,0.009874853968
279.000000,0.009203569719
280.000000,0.01164622653
281.000000,0.01048319981
282.000000,0.006834593264
283.000000,0.007706325591
284.000000,0.01186459228
285.000000,0.01145690916
286.000000,0.00881725979
287.000000,0.01009601884
288.000000,0.01098963598
289.000000,0.01103567256
290.000000,0.01185172587
291.000000,0.01061259294
292.000000,0.009910347867
293.000000,0.00958269394
294.000000,0.01221226389
295.000000,0.005599460695
296.000000,0.009824252303
297.000000,0.01016795966
298.000000,0.007251660835
299.000000,0.01076838814
300.000000,0.00880060392
301.000000,0.01182846348
302.000000,0.009852800595
303.000000,0.0114427051
304.000000,0.01254250268
305.000000,0.01087109452
306.000000,0.008354216033
307.000000,0.007077447122
308.000000,0.01361328182
309.000000,0.00988436158
310.000000,0.008730251657
311.000000,0.01039633456
312.000000,0.009725439837
313.000000,0.01181299246
314.000000,0.01017701308
315.000000,0.01013710807
316.000000,0.008680905076
317.000000,0.01104965981
318.000000,0.008043252766
319.000000,0.01144323125
320.000000,0.01315979714
321.000000,0.007063023431
322.000000,0.005180414112
323.000000,0.01134711088
324.000000,0.01520963355
325.000000,0.008112476594
326.000000,0.007613427
327.000000,0.01129325251
328.000000,0.008434371543
329.000000,0.00910426783
330.000000,0.009420591985
331.000000,0.01118134331
332.000000,0.00930725077
333.000000,0.01067414173
334.000000,0.00976583433
335.000000,0.00843008774
336.000000,0.009480310884
337.000000,0.008219701928
338.000000,0.01013407355
339.000000,0.007873857961
340.000000,0.007936353089
341.000000,0.0130366215
342.000000,0.01001689017
343.000000,0.01001602004
344.000000,0.01114746723
345.000000,0.009283255555
346.000000,0.009668478933
347.000000,0.01097643225
348.000000,0.01069155663
349.000000,0.007808726799
350.000000,0.01179460595
351.000000,0.008947656642
352.000000,0.008016979738
353.000000,0.008328804017
354.000000,0.009349285467
355.000000,0.01338560422
356.000000,0.007780565083
357.000000,0.01045242757
358.000000,0.005857271737
359.000000,0.01013043712
360.000000,0.0119333603
361.000000,0.009661563323
362.000000,0.008876848729
363.000000,0.01059925551
364.000000,0.01153721796
365.000000,0.01146491706
366.000000,0.01408324353
367.000000,0.01055733122
368.000000,0.008954883179
369.000000,0.009888458835
370.000000,0.009996140795
371.000000,0.01035934026
372.000000,0.0100825445
373.000000,0.01049127378
374.000000,0.006802390789
375.000000,0.01180410518
376.000000,0.008996132545
377.000000,0.007800065069
378.000000,0.01142266384
379.000000,0.01278260039
380.000000,0.01113479943
381.000000,0.01047186455
382.000000,0.00828591626
383.000000,0.01589431077
384.000000,0.01191252096
385.000000,0.00787425054
386.000000,0.008594408875
387.000000,0.01032849683
388.000000,0.007045938638
389.000000,0.01049353336
390.000000,0.009239010306
391.000000,0.01261058486
392.000000,0.01208325274
393.000000,0.004737281972
394.000000,0.01024417728
395.000000,0.006926766354
396.000000,0.01238191675
397.000000,0.0104998022
398.000000,0.01126136157
399.000000,0.008035272069
400.000000,0.0138233637
401.000000,0.01420764268
402.000000,0.008038957779
403.000000,0.01091514542
404.000000,0.008823937225
405.000000,0.0101244409
406.000000,0.007641357486
407.000000,0.01390798534
408.000000,0.008236410567
409.000000,0.009583689857
410.000000,0.01117992409
411.000000,0.008882950684
412.000000,0.009700574297
413.000000,0.009053060118
414.000000,0.009914572739
415.000000,0.007841577446
416.000000,0.009307869319
417.000000,0.009771256921
418.000000,0.009518802876
419.000000,0.01030086199
420.000000,0.009602520208
421.000000,0.01169640568
422.000000,0.009544865174
423.000000,0.009919248242
424.000000,0.008864291727
425.000000,0.009142148554
426.000000,0.007667533682
427.000000,0.01123544766
428.000000,0.007914218208
429.000000,0.008708936086
430.000000,0.0109205514
431.000000,0.01100864098
432.000000,0.00940471622
433.000000,0.006167885277
434.000000,0.01104893475
435.000000,0.01072854688
436.000000,0.007386190239
437.000000,0.0117531509
438.000000,0.008811882993
439.000000,0.007963304467
440.000000,0.01040876294
441.000000,0.00986200466
442.000000,0.01062586121
443.000000,0.007010808958
444.000000,0.01384848187
445.000000,0.009020446211
446.000000,0.007148212402
447.000000,0.01146700932
448.000000,0.009521537519
449.000000,0.01088271111
450.000000,0.009555653757
451.000000,0.01011729514
452.000000,0.01073025619
453.000000,0.008747369458
454.000000,0.0116001499
455.000000,0.009304897454
456.000000,0.008507382507
457.000000,0.01040291373
458.000000,0.01114105725
459.000000,0.009794976334
460.000000,0.008530291105
461.000000,0.01149713366
462.000000,0.006739173842
463.000000,0.008200410013
464.000000,0.01034352981
465.000000,0.007544750819
466.000000,0.01032528456
467.000000,0.01016203807
468.000000,0.01207175506
469.000000,0.008447249942
470.000000,0.009027617882
471.000000,0.01094844086
472.000000,0.005369644343
473.000000,0.01648759887
474.000000,0.008893005555
475.000000,0.008833480975
476.000000,0.01201830286
477.000000,0.01021933501
478.000000,0.006743147892
479.000000,0.01155892341
480.000000,0.01201894651
481.000000,0.009411480772
482.000000,0.009751417054
483.000000,0.01128989514
484.000000,0.008503739144
485.000000,0.01120151788
486.000000,0.01072684823
487.000000,0.008981967801
488.000000,0.007551284569
489.000000,0.009888007572
490.000000,0.00859218352
491.000000,0.01234973752
492.000000,0.01063905949
493.000000,0.01191911467
494.000000,0.01062833418
495.000000,0.01088912777
496.000000,0.008801656302
497.000000,0.01170817392
498.000000,0.01394599995
499.000000,0.009761855235
500.000000,0.009200414165
501.000000,0.01007513209
502.000000,0.009433200229
503.000000,0.008997874286
504.000000,0.01068241298
505.000000,0.009829508249
506.000000,0.01329453723
507.000000,0.01042277361
508.000000,0.0110759128
509.000000,0.0123379942
510.000000,0.009838448573
511.000000,0.01331959669
512.000000,0.00918705762
513.000000,0.008842277993
514.000000,0.009733057737
515.000000,0.01024299279
516.000000,0.00767681108
517.000000,0.01041646896
518.000000,0.007159094893
519.000000,0.01328596065
520.000000,0.01034752006
521.000000,0.009233651476
522.000000,0.008709175464
523.000000,0.009765516745
524.000000,0.01009699587
525.000000,0.008463171517
526.000000,0.00872191441
527.000000,0.0101967498
528.000000,0.009539423766
529.000000,0.01246961802
530.000000,0.01287745576
531.000000,0.0106446176
532.000000,0.01157098662
533.000000,0.00796499111
534.000000,0.01192216869
535.000000,0.01059853469
536.000000,0.01164182855
537.000000,0.01388643651
538.000000,0.006137704448
539.000000,0.01123549808
540.000000,0.008530055475
541.000000,0.01192791456
542.000000,0.008132684809
543.000000,0.009784894964
544.000000,0.01119816682
545.000000,0.01203737903
546.000000,0.01097830029
547.000000,0.009262130539
548.000000,0.009760576912
549.000000,0.01265730766
550.000000,0.01089882083
551.000000,0.007564616471
552.000000,0.01264295589
553.000000,0.01181252958
554.000000,0.01275234402
555.000000,0.01035888241
556.000000,0.01271628994
557.000000,0.008966978451
558.000000,0.01225961397
559.000000,0.01017082407
560.000000,0.01253381975
561.000000,0.01323160277
562.000000,0.009785313242
563.000000,0.01119371866
564.000000,0.01141501128
565.000000,0.01375954394
566.000000,0.01284679174
567.000000,0.009035106923
568.000000,0.01243958327
569.000000,0.01306818006
570.000000,0.01588241143
571.000000,0.008336719076
572.000000,0.01068623301
573.000000,0.01449361598
574.000000,0.009189031332
575.000000,0.009577296269
576.000000,0.01309260269
577.000000,0.01418312931
578.000000,0.01090301118
579.000000,0.01342147118
580.000000,0.01268342838
581.000000,0.01560353005
582.000000,0.01268857734
583.000000,0.01480772788
584.000000,0.0111677544
585.000000,0.01276338258
586.000000,0.01311271137
587.000000,0.01577279564
588.000000,0.01485964633
589.000000,0.01242233624
590.000000,0.01553733974
591.000000,0.01598735381
592.000000,0.01452411436
593.000000,0.01456615152
594.000000,0.01506558788
595.000000,0.01247840544
596.000000,0.01671153852
597.000000,0.01732776819
598.000000,0.01572125287
599.000000,0.01961256454
600.000000,0.01615420629
601.000000,0.01868527847
602.000000,0.01986758121
603.000000,0.02599293896
604.000000,0.02022911517
605.000000,0.02622215314
606.000000,0.02897585958
607.000000,0.03025344561
608.000000,0.03479480943
609.000000,0.03404092452
610.000000,0.03599412255
611.000000,0.04777814677
612.000000,0.05111869387
613.000000,0.06223060197
614.000000,0.07269212169
615.000000,0.09290879871
616.000000,0.1125354931
617.000000,0.1334305906
618.000000,0.1623734857
619.000000,0.1820311065
620.000000,0.1899823057
621.000000,0.1819072988
622.000000,0.1601688315
623.000000,0.1361124736
624.000000,0.1114415533
625.000000,0.0901247711
626.000000,0.07708584611
627.000000,0.06168790877
628.000000,0.05411562109
629.000000,0.04712417978
630.000000,0.04355157666
631.000000,0.03507881616
632.000000,0.03596464629
633.000000,0.02990161497
634.000000,0.02675896758
635.000000,0.02381128959
636.000000,0.02466346422
637.000000,0.02218325431
638.000000,0.01868235583
639.000000,0.01760879664
640.000000,0.01786890318
641.000000,0.01685962005
642.000000,0.01972105868
643.000000,0.01970204364
644.000000,0.01816776538
645.000000,0.01668499021
646.000000,0.01470187977
647.000000,0.01529993663
648.000000,0.01663068025
649.000000,0.01882629822
650.000000,0.0161219045
651.000000,0.01349219841
652.000000,0.01390816956
653.000000,0.01266575042
654.000000,0.01188218905
655.000000,0.01291017362
656.000000,0.01351543608
657.000000,0.016654002
658.000000,0.01295544544
659.000000,0.01544536888
660.000000,0.01615402707
661.000000,0.01267333198
662.000000,0.01563549791
663.000000,0.01376080187
664.000000,0.0114131428
665.000000,0.01270157593
666.000000,0.01214521924
667.000000,0.01156785294
668.000000,0.01157247345
669.000000,0.01220005308
670.000000,0.01272537889
671.000000,0.01003613853
672.000000,0.0117392627
673.000000,0.008668484107
674.000000,0.0121927531
675.000000,0.01287895124
676.000000,0.01192270175
677.000000,0.01213183039
678.000000,0.01270749092
679.000000,0.01016690101
680.000000,0.0109904003
681.000000,0.01246352487
682.000000,0.01342032181
683.000000,0.01218285719
684.000000,0.01647670713
685.000000,0.01116767323
686.000000,0.01333048223
687.000000,0.01384667921
688.000000,0.01102898209
689.000000,0.00963997432
690.000000,0.008901402403
691.000000,0.01157785405
692.000000,0.01346161704
693.000000,0.01177310564
694.000000,0.01156518409
695.000000,0.01045168259
696.000000,0.01232371451
697.000000,0.006922417669
698.000000,0.01165210747
699.000000,0.01123773021
700.000000,0.008435730522
701.000000,0.01552334076
702.000000,0.00839383868
703.000000,0.009010918736
704.000000,0.008762292518
705.000000,0.01338356983
706.000000,0.009386230517
707.000000,0.01250002557
708.000000,0.01233878991
709.000000,0.01168491141
710.000000,0.008552959534
711.000000,0.009947200694
712.000000,0.01452169431
713.000000,0.008598768729
714.000000,0.00952255242
715.000000,0.01086773721
716.000000,0.01281737498
717.000000,0.01171065018
718.000000,0.01270026745
719.000000,0.009091248725
720.000000,0.01312592199
721.000000,0.01238585705
722.000000,0.008071028113
723.000000,0.01435330576
724.000000,0.01587257775
725.000000,0.009765966109
726.000000,0.01143083648
727.000000,0.01413190221
728.000000,0.008393267991
729.000000,0.007395937909
730.000000,0.008802957371
731.000000,0.01028523956
732.000000,0.01028642582
733.000000,0.01268342657
734.000000,0.01203279383
735.000000,0.009032211658
736.000000,0.01268952488
737.000000,0.01533518627
738.000000,0.01401536667
739.000000,0.0136398101
740.000000,0.01173652928
741.000000,0.01370440721
742.000000,0.009848408745
743.000000,0.01332897496
744.000000,0.01170166184
745.000000,0.0141903452
746.000000,0.01291633508
747.000000,0.009864007714
748.000000,0.01236317603
749.000000,0.0146113537
750.000000,0.009988825624
751.000000,0.01120646322
752.000000,0.0108703646
753.000000,0.009505408113
754.000000,0.01451481125
755.000000,0.01531706152
756.000000,0.0144058739
757.000000,0.01341037846
758.000000,0.01295026116
759.000000,0.01367283349
760.000000,0.0118825408
761.000000,0.01529808659
762.000000,0.01578081044
763.000000,0.01575078178
764.000000,0.01303812363
765.000000,0.0144919451
766.000000,0.01426219376
767.000000,0.01845618937
768.000000,0.01555408716
769.000000,0.01178093903
770.000000,0.01673236583
771.000000,0.02013617709
772.000000,0.01823162507
773.000000,0.01917199846
774.000000,0.0181096931
775.000000,0.01480500934
776.000000,0.01593897668
777.000000,0.01800022833
778.000000,0.02131609148
779.000000,0.02344237164
780.000000,0.02566638045
781.000000,0.02533168098
782.000000,0.02997116236
783.000000,0.0299378686
784.000000,0.03201942643
785.000000,0.03867350886
786.000000,0.03944121093
787.000000,0.04104399801
788.000000,0.05073655804
789.000000,0.06069327674
790.000000,0.06336248763
791.000000,0.07902449974
792.000000,0.08984544772
793.000000,0.09765840339
794.000000,0.1048453578
795.000000,0.1095899611
796.000000,0.1067198651
797.000000,0.1030385542
798.000000,0.09127045859
799.000000,0.07659187262
800.000000,0.06783205345
801.000000,0.06193746193
802.000000,0.05667435722
803.000000,0.04730481327
804.000000,0.04192489057
805.000000,0.04072881748
806.000000,0.03342387708
807.000000,0.02992371143
808.000000,0.02527909203
809.000000,0.02503859548
810.000000,0.02870075982
811.000000,0.02003843293
812.000000,0.02165544664
813.000000,0.01774255152
814.000000,0.01988730971
815.000000,0.02059774146
816.000000,0.01762873302
817.000000,0.01895600717
818.000000,0.01838905798
819.000000,0.01735562508
820.000000,0.0194616271
821.000000,0.01720039022
822.000000,0.01468628012
823.000000,0.01362278033
824.000000,0.01301242687
825.000000,0.01540006585
826.000000,0.01356969569
827.000000,0.01946508749
828.000000,0.01749973434
829.000000,0.01321033099
830.000000,0.01282036006
831.000000,0.01671139875
832.000000,0.00942859686
833.000000,0.01216716526
834.000000,0.0148563857
835.000000,0.01102402898
836.000000,0.01179586335
837.000000,0.01195577653
838.000000,0.01389481598
839.000000,0.0127694342
840.000000,0.01322527467
841.000000,0.0135434739
842.000000,0.01234927207
843.000000,0.01445133578
844.000000,0.01071708403
845.000000,0.009251251652
846.000000,0.008521670506
847.000000,0.008788497918
848.000000,0.01088755299
849.000000,0.01400950861
850.000000,0.01226115985
851.000000,0.01068155964
852.000000,0.009707031598
853.000000,0.01075918625
854.000000,0.01098183765
855.000000,0.01063306652
856.000000,0.008874047168
857.000000,0.01076506868
858.000000,0.0137300935
859.000000,0.007327246301
860.000000,0.01117732015
861.000000,0.007399274838
862.000000,0.01199279752
863.000000,0.01011769205
864.000000,0.007428447568
865.000000,0.011789513
866.000000,0.01521229279
867.000000,0.01178568415
868.000000,0.0138829098
869.000000,0.01140871493
870.000000,0.007229877479
871.000000,0.01252027013
872.000000,0.01069786984
873.000000,0.008606240292
874.000000,0.01309689893
875.000000,0.01209856939
876.000000,0.01047245838
877.000000,0.01325861805
878.000000,0.009778300119
879.000000,0.01281002384
880.000000,0.009643692118
881.000000,0.01259470539
882.000000,0.009328203332
883.000000,0.01451169259
884.000000,0.01204625623
885.000000,0.01440842044
886.000000,0.00990350832
887.000000,0.01060262514
888.000000,0.01324128837
889.000000,0.006082353635
890.000000,0.009444737868
891.000000,0.01365391108
892.000000,0.01252772405
893.000000,0.01356570886
894.000000,0.01100003688
895.000000,0.01275967798
896.000000,0.01018285298
897.000000,0.008914235771
898.000000,0.008282946453
899.000000,0.01058427563
900.000000,0.01060576372
901.000000,0.01046165331
902.000000,0.004640387266
903.000000,0.007759225957
904.000000,0.01071047183
905.000000,0.0123699639
906.000000,0.01065945359
907.000000,0.01008529291
908.000000,0.007245157191
909.000000,0.01592911628
910.000000,0.009708939563
911.000000,0.01530406281
912.000000,0.01508584847
913.000000,0.01254068016
914.000000,0.01087712804
915.000000,0.01231752599
916.000000,0.009779029017
917.000000,0.01263991097
918.000000,0.01215906547
919.000000,0.01325323734
920.000000,0.01412780344
921.000000,0.01573178908
922.000000,0.01153028457
923.000000,0.01443619187
924.000000,0.01081034708
925.000000,0.01065068297
926.000000,0.01125177067
927.000000,0.01057406166
928.000000,0.01455077107
929.000000,0.01449122256
930.000000,0.01524622599
931.000000,0.01271035274
932.000000,0.01337168944
933.000000,0.0117308101
934.000000,0.01065339812
935.000000,0.01392009729
936.000000,0.01363680925
937.000000,0.01096349174
938.000000,0.0144292982
939.000000,0.009860176364
940.000000,0.01307475568
941.000000,0.01226563124
942.000000,0.01256588003
943.000000,0.0115606644
944.000000,0.01574102254
945.000000,0.01508205456
946.000000,0.01643718656
947.000000,0.01445802342
948.000000,0.0117345696
949.000000,0.01371380273
950.000000,0.01223794452
951.000000,0.01567241075
952.000000,0.01734342116
953.000000,0.01575548018
954.000000,0.01408648027
955.000000,0.01474494346
956.000000,0.01610544718
957.000000,0.01303079087
958.000000,0.01646294256
959.000000,0.01681965422
960.000000,0.0156093637
961.000000,0.01615901892
962.000000,0.01765407066
963.000000,0.01601341017
964.000000,0.01637954746
965.000000,0.01998069397
966.000000,0.01930089292
967.000000,0.02268180647
968.000000,0.01786015736
969.000000,0.01683217454
970.000000,0.02288187209
971.000000,0.02358184561
972.000000,0.02092544553
973.000000,0.02027674983
974.000000,0.02401822633
975.000000,0.02160762981
976.000000,0.02554282918
977.000000,0.02311176811
978.000000,0.02840914628
979.000000,0.02624063719
980.000000,0.03182564049
981.000000,0.03741733973
982.000000,0.036251384
983.000000,0.04111629877
984.000000,0.04156209876
985.000000,0.04492259257
986.000000,0.04831788338
987.000000,0.05895020372
988.000000,0.06353575897
989.000000,0.0752897559
990.000000,0.08023615099
991.000000,0.09563780049
992.000000,0.1138375359
993.000000,0.1399682248
994.000000,0.1728640096
995.000000,0.2129581237
996.000000,0.2769201029
997.000000,0.3712545624
998.000000,0.51766956
999.000000,0.7074228546
1000.000000,0.9143156368
1001.000000,1.015863312
1002.000000,0.9112405361
1003.000000,0.7056466758
1004.000000,0.5191416055
1005.000000,0.3785989501
1006.000000,0.2834136506
1007.000000,0.217079285
1008.000000,0.1761918505
1009.000000,0.1475528827
1010.000000,0.1192452028
1011.000000,0.1054239824
1012.000000,0.09249283988
1013.000000,0.08519696074
1014.000000,0.07802194096
1015.000000,0.07314437073
1016.000000,0.06874242712
1017.000000,0.06899882938
1018.000000,0.06772422872
1019.000000,0.07003099543
1020.000000,0.07318128363
1021.000000,0.07952471346
1022.000000,0.08438945754
1023.000000,0.09546786348
1024.000000,0.1132602634
1025.000000,0.1319718847
1026.000000,0.162188462
1027.000000,0.2073914345
1028.000000,0.2652625619
1029.000000,0.3385564596
1030.000000,0.4097444588
1031.000000,0.4378416805
1032.000000,0.4089282872
1033.000000,0.3384121525
1034.000000,0.2619160602
1035.000000,0.1971840327
1036.000000,0.1564373056
1037.000000,0.12218145
1038.000000,0.100548498
1039.000000,0.08440718629
1040.000000,0.06915849271
1041.000000,0.0645951009
1042.000000,0.0543023125
1043.000000,0.0501000846
1044.000000,0.04501896454
1045.000000,0.0425486608
1046.000000,0.03903024462
1047.000000,0.03101211374
1048.000000,0.03177697192
1049.000000,0.02548590108
1050.000000,0.02719772254
1051.000000,0.02807892347
1052.000000,0.02721934699
1053.000000,0.02686456701
1054.000000,0.02255669091
1055.000000,0.02308503446
1056.000000,0.02186683976
1057.000000,0.023513634
1058.000000,0.02353313198
1059.000000,0.01907617535
1060.000000,0.02685205587
1061.000000,0.01881266487
1062.000000,0.01766389929
1063.000000,0.01921060756
1064.000000,0.01917489932
1065.000000,0.01842623184
1066.000000,0.01573606902
1067.000000,0.01970679145
1068.000000,0.01661570077
1069.000000,0.01934898202
1070.000000,0.01884254799
1071.000000,0.01330896522
1072.000000,0.01370982227
1073.000000,0.01349508299
1074.000000,0.01583507326
1075.000000,0.01529384036
1076.000000,0.01558394089
1077.000000,0.0132922806
1078.000000,0.01564997084
1079.000000,0.01749232022
1080.000000,0.01190927897
1081.000000,0.01409067518
1082.000000,0.01488908181
1083.000000,0.01404839371
1084.000000,0.01383593786
1085.000000,0.01769638236
1086.000000,0.01665933907
1087.000000,0.01573078698
1088.000000,0.01245361839
1089.000000,0.01840828941
1090.000000,0.01460281334
1091.000000,0.01268372077
1092.000000,0.01312819663
1093.000000,0.01279208895
1094.000000,0.01798605409
1095.000000,0.01413197218
1096.000000,0.01382920072
1097.000000,0.009382628338
1098.000000,0.01515309477
1099.000000,0.01155645629
1100.000000,0.01141190363
1101.000000,0.01489975922
1102.000000,0.01195519744
1103.000000,0.01536570741
1104.000000,0.01595463238
1105.000000,0.01015381036
1106.000000,0.01348726754
1107.000000,0.01064409157
1108.000000,0.01370570488
1109.000000,0.01569770986
1110.000000,0.01119562755
1111.000000,0.0175841753
1112.000000,0.01342018107
1113.000000,0.01174545698
1114.000000,0.01394116159
1115.000000,0.01586125137
1116.000000,0.01161915528
1117.000000,0.01448403409
1118.000000,0.01185163124
1119.000000,0.01713723632
1120.000000,0.01518217676
1121.000000,0.01418012455
1122.000000,0.01727588905
1123.000000,0.01282129774
1124.000000,0.0148250424
1125.000000,0.01954008886
1126.000000,0.01586114819
1127.000000,0.01911356529
1128.000000,0.01711393794
1129.000000,0.01568473878
1130.000000,0.01699607982
1131.000000,0.01809651831
1132.000000,0.01763425348
1133.000000,0.01738357452
1134.000000,0.0181255994
1135.000000,0.01747183135
1136.000000,0.0215199672
1137.000000,0.02307947457
1138.000000,0.02494358145
1139.000000,0.0211824943
1140.000000,0.02799369818
1141.000000,0.02823315598
1142.000000,0.02766744668
1143.000000,0.03344766083
1144.000000,0.03820801985
1145.000000,0.04172173054
1146.000000,0.04722407429
1147.000000,0.05405645178
1148.000000,0.0620230935
1149.000000,0.07034347413
1150.000000,0.07898690019
1151.000000,0.09712464068
1152.000000,0.1170708192
1153.000000,0.1333225693
1154.000000,0.1497300103
1155.000000,0.1555300188
1156.000000,0.1488590648
1157.000000,0.1388349047
1158.000000,0.1156440923
1159.000000,0.1021829114
1160.000000,0.0843501963
1161.000000,0.07149820099
1162.000000,0.06459836295
1163.000000,0.05472432444
1164.000000,0.05195114089
1165.000000,0.04355883685
1166.000000,0.04272695168
1167.000000,0.03863907975
1168.000000,0.03829225295
1169.000000,0.03713637648
1170.000000,0.03538287349
1171.000000,0.03935496573
1172.000000,0.03664779501
1173.000000,0.03905865139
1174.000000,0.04562732093
1175.000000,0.04979629908
1176.000000,0.05470314631
1177.000000,0.06151820449
1178.000000,0.07533254928
1179.000000,0.08119085518
1180.000000,0.09772215094
1181.000000,0.1139542511
1182.000000,0.1315308149
1183.000000,0.1356368144
1184.000000,0.1313464925
1185.000000,0.1166611679
1186.000000,0.09689882694
1187.000000,0.07945155961
1188.000000,0.06557396414
1189.000000,0.06129844204
1190.000000,0.05053364386
1191.000000,0.04338339546
1192.000000,0.03653464932
1193.000000,0.03289278856
1194.000000,0.02947503938
1195.000000,0.02699334156
1196.000000,0.02077415499
1197.000000,0.02375737518
1198.000000,0.02169509638
1199.000000,0.02184170106
1200.000000,0.02066257642
1201.000000,0.02107621822
1202.000000,0.0185878178
1203.000000,0.01955010796
1204.000000,0.01225791309
1205.000000,0.01466933501
1206.000000,0.01987323591
1207.000000,0.01358214882
1208.000000,0.01510353945
1209.000000,0.01675262139
1210.000000,0.01328269984
1211.000000,0.0162290172
1212.000000,0.01168787353
1213.000000,0.01049858806
1214.000000,0.01146654141
1215.000000,0.01063407889
1216.000000,0.01373717028
1217.000000,0.01298122539
1218.000000,0.01412965336
1219.000000,0.01126789689
1220.000000,0.01830134471
1221.000000,0.0129093785
1222.000000,0.01290141954
1223.000000,0.01380434377
1224.000000,0.01231209958
1225.000000,0.01144848044
1226.000000,0.01280079074
1227.000000,0.01438942324
1228.000000,0.01381066354
1229.000000,0.01429482702
1230.000000,0.01121854546
1231.000000,0.01073657119
1232.000000,0.01623793902
1233.000000,0.01169737806
1234.000000,0.0130810021
1235.000000,0.01355262096
1236.000000,0.01487146915
1237.000000,0.009284054048
1238.000000,0.01098462549
1239.000000,0.0110384992
1240.000000,0.01126518714
1241.000000,0.007006964498
1242.000000,0.0116060442
1243.000000,0.00597830732
1244.000000,0.01233178188
1245.000000,0.01278167043
1246.000000,0.01287455949
1247.000000,0.009242578174
1248.000000,0.01353708296
1249.000000,0.009874574806
1250.000000,0.009125234723
1251.000000,0.009596773954
1252.000000,0.009840890682
1253.000000,0.01186146648
1254.000000,0.01314685034
1255.000000,0.007275957804
1256.000000,0.01037957785
1257.000000,0.01324892223
1258.000000,0.01183696699
1259.000000,0.01243244137
1260.000000,0.008404560369
1261.000000,0.01329704665
1262.000000,0.008247988853
1263.000000,0.01175293685
1264.000000,0.01408281371
1265.000000,0.01510707136
1266.000000,0.01236006161
1267.000000,0.01308807198
1268.000000,0.01010312451
1269.000000,0.01034304591
1270.000000,0.01363540358
1271.000000,0.01129085351
1272.000000,0.01102454417
1273.000000,0.008450020554
1274.000000,0.01156470503
1275.000000,0.01254804584
1276.000000,0.009661174611
1277.000000,0.01022893666
1278.000000,0.01439797068
1279.000000,0.01158792026
1280.000000,0.01064889185
1281.000000,0.008947157396
1282.000000,0.009977353857
1283.000000,0.01071224643
1284.000000,0.01394655314
1285.000000,0.009983691896
1286.000000,0.01479005634
1287.000000,0.009341027054
1288.000000,0.01048055643
1289.000000,0.01288044964
1290.000000,0.01071090559
1291.000000,0.009529001501
1292.000000,0.01092436246
1293.000000,0.01208428841
1294.000000,0.007754496784
1295.000000,0.01068827949
1296.000000,0.0109663489
1297.000000,0.01037747772
1298.000000,0.01265591601
1299.000000,0.01004860842
1300.000000,0.01045746919
1301.000000,0.0112628467
1302.000000,0.0126465984
1303.000000,0.01074818953
1304.000000,0.01422559982
1305.000000,0.00937913549
1306.000000,0.01377004454
1307.000000,0.009484094293
1308.000000,0.01087660497
1309.000000,0.01193411124
1310.000000,0.01531926161
1311.000000,0.01300508127
1312.000000,0.01040583665
1313.000000,0.01382022277
1314.000000,0.01079928852
1315.000000,0.009648815105
1316.000000,0.01213438274
1317.000000,0.01143156333
1318.000000,0.01315586833
1319.000000,0.0101552828
1320.000000,0.01202430501
1321.000000,0.01253725466
1322.000000,0.01183142982
1323.000000,0.01122488467
1324.000000,0.009895464289
1325.000000,0.01310639651
1326.000000,0.0115818831
1327.000000,0.01230893957
1328.000000,0.01062403652
1329.000000,0.01136124951
1330.000000,0.009270783378
1331.000000,0.01152669208
1332.000000,0.01289686245
1333.000000,0.01156363662
1334.000000,0.01310806214
1335.000000,0.012027153
1336.000000,0.01414154124
1337.000000,0.01104667705
1338.000000,0.008162929188
1339.000000,0.01231905764
1340.000000,0.01113808587
1341.000000,0.009534768498
1342.000000,0.01280129852
1343.000000,0.0120433769
1344.000000,0.0124219019
1345.000000,0.010883552
1346.000000,0.01196006933
1347.000000,0.01209293584
1348.000000,0.01515248313
1349.000000,0.01025482283
1350.000000,0.01162200067
1351.000000,0.01239165687
1352.000000,0.008236038541
1353.000000,0.008502104615
1354.000000,0.01606288915
1355.000000,0.008221037462
1356.000000,0.01292999997
1357.000000,0.01010943369
1358.000000,0.01030621861
1359.000000,0.00789509177
1360.000000,0.01008725466
1361.000000,0.01348710796
1362.000000,0.009171556277
1363.000000,0.01317170536
1364.000000,0.01264042398
1365.000000,0.01608462888
1366.000000,0.01113442662
1367.000000,0.01464712314
1368.000000,0.01393622764
1369.000000,0.01162480636
1370.000000,0.00891341295
1371.000000,0.01530098955
1372.000000,0.009597795547
1373.000000,0.01142597035
1374.000000,0.01418723766
1375.000000,0.01470282645
1376.000000,0.01083210242
1377.000000,0.01251323092
1378.000000,0.01211658953
1379.000000,0.01505577302
1380.000000,0.01776336186
1381.000000,0.009158432388
1382.000000,0.01471798669
1383.000000,0.007238712241
1384.000000,0.01305628077
1385.000000,0.01088701579
1386.000000,0.01716821445
1387.000000,0.01360108044
1388.000000,0.01188257755
1389.000000,0.01244953984
1390.000000,0.01239416197
1391.000000,0.01402280762
1392.000000,0.01343648624
1393.000000,0.01517667368
1394.000000,0.01706344813
1395.000000,0.01551009514
1396.000000,0.01178638696
1397.000000,0.01112917549
1398.000000,0.0130121638
1399.000000,0.0167840603
1400.000000,0.01417122686
1401.000000,0.01367965534
1402.000000,0.01547541865
1403.000000,0.01256330061
1404.000000,0.01332360554
1405.000000,0.01684429602
1406.000000,0.01545338082
1407.000000,0.01540523115
1408.000000,0.01721642735
1409.000000,0.01569994171
1410.000000,0.01580653214
1411.000000,0.01659188049
1412.000000,0.01907439423
1413.000000,0.01837431478
1414.000000,0.01628181563
1415.000000,0.01851538576
1416.000000,0.02090638652
1417.000000,0.02388216414
1418.000000,0.01843391464
1419.000000,0.02202659021
1420.000000,0.02152241601
1421.000000,0.02444842874
1422.000000,0.02452987089
1423.000000,0.02749464649
1424.000000,0.02660690112
1425.000000,0.02560777219
1426.000000,0.02687976676
1427.000000,0.03017571427
1428.000000,0.03173438888
1429.000000,0.03752063058
1430.000000,0.03809185464
1431.000000,0.03468146422
1432.000000,0.04034298529
1433.000000,0.03997917715
1434.000000,0.04278664662
1435.000000,0.05159011543
1436.000000,0.05586982097
1437.000000,0.05814525177
1438.000000,0.06992181754
1439.000000,0.07224298156
1440.000000,0.08080689119
1441.000000,0.09502883293
1442.000000,0.1066479627
1443.000000,0.1204943507
1444.000000,0.1375124552
1445.000000,0.1569542096
1446.000000,0.1764059898
1447.000000,0.1963643125
1448.000000,0.2104600222
1449.000000,0.2237804463
1450.000000,0.2320951372
1451.000000,0.2250737201
1452.000000,0.2153782393
1453.000000,0.1992341542
1454.000000,0.1760471735
1455.000000,0.1571625398
1456.000000,0.141907656
1457.000000,0.1223315472
1458.000000,0.110034416
1459.000000,0.09695335929
1460.000000,0.08483048774
1461.000000,0.07417433999
1462.000000,0.06516917904
1463.000000,0.05823657086
1464.000000,0.05599557496
1465.000000,0.05131516032
1466.000000,0.04604388562
1467.000000,0.04465277082
1468.000000,0.03876790616
1469.000000,0.0396034874
1470.000000,0.03519385202
1471.000000,0.03304722358
1472.000000,0.03135981559
1473.000000,0.02960431298
1474.000000,0.03339168407
1475.000000,0.02395479828
1476.000000,0.02642425348
1477.000000,0.02756263517
1478.000000,0.02561260778
1479.000000,0.02276312608
1480.000000,0.02611354279
1481.000000,0.01982983934
1482.000000,0.01874770368
1483.000000,0.0219433154
1484.000000,0.01739284975
1485.000000,0.01508330744
1486.000000,0.02118089316
1487.000000,0.02054845755
1488.000000,0.0201323802
1489.000000,0.01736341029
1490.000000,0.01840071332
1491.000000,0.01582428069
1492.000000,0.02096537279
1493.000000,0.01884028314
1494.000000,0.01852253927
1495.000000,0.01293465127
1496.000000,0.01826134431
1497.000000,0.01946118831
1498.000000,0.01874563442
1499.000000,0.01774368165
1500.000000,0.01602743879
1501.000000,0.01522050161
1502.000000,0.01699248268
1503.000000,0.0164493913
1504.000000,0.01606034069
1505.000000,0.01488148669
1506.000000,0.01878296927
1507.000000,0.01301308094
1508.000000,0.01523926298
1509.000000,0.01406707199
1510.000000,0.0172413033
1511.000000,0.01799460667
1512.000000,0.01758468715
1513.000000,0.0165764546
1514.000000,0.01223568517
1515.000000,0.01918460103
1516.000000,0.01604267662
1517.000000,0.01478533823
1518.000000,0.01504403055
1519.000000,0.01432651635
1520.000000,0.01586360106
1521.000000,0.01565224343
1522.000000,0.01433360409
1523.000000,0.009941815725
1524.000000,0.01504514229
1525.000000,0.01610895416
1526.000000,0.01625377133
1527.000000,0.01494708773
1528.000000,0.01621985969
1529.000000,0.01743594326
1530.000000,0.01451200839
1531.000000,0.01846570012
1532.000000,0.01171122769
1533.000000,0.01319600034
1534.000000,0.01401293905
1535.000000,0.01104848354
1536.000000,0.01406166993
1537.000000,0.01869190301
1538.000000,0.01882303092
1539.000000,0.0166910942
1540.000000,0.02010720339
1541.000000,0.01732634357
1542.000000,0.01604827758
1543.000000,0.01773923328
1544.000000,0.01721057896
1545.000000,0.01920392921
1546.000000,0.01499308504
1547.000000,0.02028693105
1548.000000,0.01768185596
1549.000000,0.02065064484
1550.000000,0.0162260088
1551.000000,0.01886977204
1552.000000,0.02030029155
1553.000000,0.02242272783
1554.000000,0.01870494717
1555.000000,0.02504512725
1556.000000,0.02330227073
1557.000000,0.0219761169
1558.000000,0.02622590724
1559.000000,0.02484381491
1560.000000,0.02789810566
1561.000000,0.03128205069
1562.000000,0.02935642509
1563.000000,0.02810120569
1564.000000,0.02981718161
1565.000000,0.03356028062
1566.000000,0.034952152
1567.000000,0.0349989712
1568.000000,0.03799225608
1569.000000,0.0437844455
1570.000000,0.05084320706
1571.000000,0.04530414036
1572.000000,0.05733733996
1573.000000,0.06195439021
1574.000000,0.07191802866
1575.000000,0.08200868103
1576.000000,0.09277533387
1577.000000,0.1061669746
1578.000000,0.1247078503
1579.000000,0.147139443
1580.000000,0.1800680428
1581.000000,0.2044157083
1582.000000,0.2257780609
1583.000000,0.2364527646
1584.000000,0.2294910818
1585.000000,0.2162243159
1586.000000,0.1968345625
1587.000000,0.1760489479
1588.000000,0.1543112538
1589.000000,0.1489578541
1590.000000,0.1386728598
1591.000000,0.1353883351
1592.000000,0.140845917
1593.000000,0.1509450851
1594.000000,0.1688351704
1595.000000,0.190732293
1596.000000,0.2241097132
1597.000000,0.2746273033
1598.000000,0.3444214447
1599.000000,0.4237556644
1600.000000,0.5234121129
1601.000000,0.6085693878
1602.000000,0.6488164592
1603.000000,0.6020382004
1604.000000,0.5194547383
1605.000000,0.4145886522
1606.000000,0.3283626709
1607.000000,0.2605936558
1608.000000,0.2153442518
1609.000000,0.1687268962
1610.000000,0.1373528021
1611.000000,0.1215370244
1612.000000,0.1001008404
1613.000000,0.08781137098
1614.000000,0.07750081809
1615.000000,0.0690548424
1616.000000,0.06140828439
1617.000000,0.0563938831
1618.000000,0.05170330171
1619.000000,0.04847067376
1620.000000,0.04235734422
1621.000000,0.03866314363
1622.000000,0.03539260458
1623.000000,0.03640406593
1624.000000,0.03310879413
1625.000000,0.03252934759
1626.000000,0.03092324315
1627.000000,0.03181512336
1628.000000,0.02760301932
1629.000000,0.02756522005
1630.000000,0.02263866545
1631.000000,0.02196329667
1632.000000,0.02266516543
1633.000000,0.02009444227
1634.000000,0.02321209926
1635.000000,0.01853018157
1636.000000,0.02074833946
1637.000000,0.01515701857
1638.000000,0.01736680403
1639.000000,0.01843874799
1640.000000,0.01817280499
1641.000000,0.01471202614
1642.000000,0.01814459789
1643.000000,0.01953391072
1644.000000,0.01856032491
1645.000000,0.01564708329
1646.000000,0.0155090258
1647.000000,0.01404776257
1648.000000,0.01743262988
1649.000000,0.01882372738
1650.000000,0.01466936484
1651.000000,0.01211897351
1652.000000,0.01571947664
1653.000000,0.01655053528
1654.000000,0.009516170291
1655.000000,0.01507173835
1656.000000,0.01896695113
1657.000000,0.01613057773
1658.000000,0.0154487219
1659.000000,0.01501749217
1660.000000,0.0162089638
1661.000000,0.01208080378
1662.000000,0.01215610784
1663.000000,0.01455088773
1664.000000,0.01225905124
1665.000000,0.01404577009
1666.000000,0.009606311957
1667.000000,0.01485457658
1668.000000,0.01494376007
1669.000000,0.01325202077
1670.000000,0.01341185002
1671.000000,0.01624594494
1672.000000,0.01076321276
1673.000000,0.01103080179
1674.000000,0.01060001375
1675.000000,0.01187132991
1676.000000,0.01063417097
1677.000000,0.0126686376
1678.000000,0.01123340683
1679.000000,0.009579080064
1680.000000,0.009321573727
1681.000000,0.0147917487
1682.000000,0.0121790438
1683.000000,0.01181226714
1684.000000,0.01227191558
1685.000000,0.01200750066
1686.000000,0.01363944113
1687.000000,0.01320819672
1688.000000,0.01086213456
1689.000000,0.01035371391
1690.000000,0.009787832891
1691.000000,0.009420751843
1692.000000,0.01469022718
1693.000000,0.0100169111
1694.000000,0.00777703716
1695.000000,0.01009434019
1696.000000,0.01017176525
1697.000000,0.01237633062
1698.000000,0.009913722289
1699.000000,0.01272513893
1700.000000,0.01240348306
1701.000000,0.01413170283
1702.000000,0.01590443194
1703.000000,0.01724141376
1704.000000,0.01421916406
1705.000000,0.00917268608
1706.000000,0.01065895692
1707.000000,0.01193856956
1708.000000,0.01555608307
1709.000000,0.01275022643
1710.000000,0.01378147389
1711.000000,0.01100513387
1712.000000,0.01251246092
1713.000000,0.01274765783
1714.000000,0.01037854698
1715.000000,0.01282620271
1716.000000,0.0133940266
1717.000000,0.01091699268
1718.000000,0.01325178104
1719.000000,0.01449359188
1720.000000,0.01131289366
1721.000000,0.01116395303
1722.000000,0.01052747978
1723.000000,0.009891879742
1724.000000,0.01142695206
1725.000000,0.0102755027
1726.000000,0.01046004639
1727.000000,0.009522210684
1728.000000,0.007982606743
1729.000000,0.009166038984
1730.000000,0.01168465146
1731.000000,0.00864680555
1732.000000,0.009703847832
1733.000000,0.01427110851
1734.000000,0.01322708374
1735.000000,0.009574747649
1736.000000,0.0121561223
1737.000000,0.009636824219
1738.000000,0.01418084915
1739.000000,0.009742793497
1740.000000,0.01106635327
1741.000000,0.01366149877
1742.000000,0.009225306364
1743.000000,0.0134795175
1744.000000,0.009225140859
1745.000000,0.0113262293
1746.000000,0.01024859728
1747.000000,0.01065299496
1748.000000,0.0111405486
1749.000000,0.01066222205
1750.000000,0.00876696211
1751.000000,0.0125256775
1752.000000,0.01222465196
1753.000000,0.01335446417
1754.000000,0.01353606357
1755.000000,0.008069762173
1756.000000,0.0133204016
1757.000000,0.01333667655
1758.000000,0.009668692402
1759.000000,0.01280009956
1760.000000,0.01365400087
1761.000000,0.009632249089
1762.000000,0.007944913207
1763.000000,0.009975997852
1764.000000,0.01627324826
1765.000000,0.01115323962
1766.000000,0.008245302968
1767.000000,0.01016094634
1768.000000,0.008671968694
1769.000000,0.009854854844
1770.000000,0.01083715538
1771.000000,0.005517230016
1772.000000,0.01135488591
1773.000000,0.0134571851
1774.000000,0.01022696864
1775.000000,0.009850273617
1776.000000,0.01279689626
1777.000000,0.008070582689
1778.000000,0.008106314825
1779.000000,0.007811347059
1780.000000,0.01027207414
1781.000000,0.01136937993
1782.000000,0.01039475928
1783.000000,0.01167011834
1784.000000,0.01222680088
1785.000000,0.01155329582
1786.000000,0.008937713086
1787.000000,0.0100138158
1788.000000,0.01304152959
1789.000000,0.008446778101
1790.000000,0.01002849059
1791.000000,0.009696046307
1792.000000,0.0101657404
1793.000000,0.008369971042
1794.000000,0.007818096543
1795.000000,0.01562421098
1796.000000,0.01239966737
1797.000000,0.009078274418
1798.000000,0.01038128295
1799.000000,0.01184839312
1800.000000,0.009803475374
1801.000000,0.01171972267
1802.000000,0.009252040246
1803.000000,0.009761540279
1804.000000,0.01030510384
1805.000000,0.009555745947
1806.000000,0.005561239466
1807.000000,0.01050538701
1808.000000,0.01098257526
1809.000000,0.01140802164
1810.000000,0.008464004356
1811.000000,0.01113686211
1812.000000,0.01087620806
1813.000000,0.006903656311
1814.000000,0.006033951472
1815.000000,0.01138733735
1816.000000,0.008522642912
1817.000000,0.01243208619
1818.000000,0.01470511788
1819.000000,0.009255664322
1820.000000,0.009039111848
1821.000000,0.01039133203
1822.000000,0.01176107957
1823.000000,0.008136888085
1824.000000,0.01289636784
1825.000000,0.01238484276
1826.000000,0.0117216241
1827.000000,0.00931677658
1828.000000,0.01222614539
1829.000000,0.01210508425
1830.000000,0.007985868185
1831.000000,0.01456536358
1832.000000,0.00978115833
1833.000000,0.01111783543
1834.000000,0.00932843505
1835.000000,0.01114385335
1836.000000,0.01269156946
1837.000000,0.008754042573
1838.000000,0.007055333386
1839.000000,0.009463648873
1840.000000,0.007748991576
1841.000000,0.008841430481
1842.000000,0.01010313039
1843.000000,0.01022532976
1844.000000,0.01293267793
1845.000000,0.008319225583
1846.000000,0.01105186782
1847.000000,0.009328970872
1848.000000,0.01307190026
1849.000000,0.01539488885
1850.000000,0.01094410187
1851.000000,0.01368335955
1852.000000,0.009272345455
1853.000000,0.007131746591
1854.000000,0.007787588976
1855.000000,0.007168055617
1856.000000,0.008414609077
1857.000000,0.009841564956
1858.000000,0.01262012599
1859.000000,0.01171757582
1860.000000,0.01124334523
1861.000000,0.009466326502
1862.000000,0.00886797594
1863.000000,0.01037635238
1864.000000,0.01058319926
1865.000000,0.01081835092
1866.000000,0.01104710714
1867.000000,0.01006688478
1868.000000,0.006450921031
1869.000000,0.008067895364
1870.000000,0.008645303165
1871.000000,0.01368817401
1872.000000,0.009438358524
1873.000000,0.01164118444
1874.000000,0.01321782346
1875.000000,0.01095432149
1876.000000,0.009500275879
1877.000000,0.009697698709
1878.000000,0.008237653745
1879.000000,0.01089383174
1880.000000,0.01253522462
1881.000000,0.01141705493
1882.000000,0.01181842932
1883.000000,0.01170953536
1884.000000,0.01428061345
1885.000000,0.009003350149
1886.000000,0.01058444809
1887.000000,0.01167879128
1888.000000,0.01276082525
1889.000000,0.005409475583
1890.000000,0.0092185593
1891.000000,0.009844751251
1892.000000,0.008201407918
1893.000000,0.01195304085
1894.000000,0.01069528837
1895.000000,0.009462960569
1896.000000,0.006986182508
1897.000000,0.007605455522
1898.000000,0.008280920263
1899.000000,0.01115981595
1900.000000,0.007810284798
1901.000000,0.006108577975
1902.000000,0.007341037974
1903.000000,0.009060799932
1904.000000,0.01358993886
1905.000000,0.0152459237
1906.000000,0.009277991717
1907.000000,0.0121271644
1908.000000,0.01304057916
1909.000000,0.01280596192
1910.000000,0.01000203841
1911.000000,0.00763019394
1912.000000,0.009256497412
1913.000000,0.006507905664
1914.000000,0.01070791661
1915.000000,0.01178441849
1916.000000,0.00644224514
1917.000000,0.0101233934
1918.000000,0.01081055906
1919.000000,0.01272331526
1920.000000,0.01298075534
1921.000000,0.01182490234
1922.000000,0.008847741291
1923.000000,0.009483378566
1924.000000,0.01262753313
1925.000000,0.009006017788
1926.000000,0.01013222737
1927.000000,0.01333724566
1928.000000,0.01047029802
1929.000000,0.007464423533
1930.000000,0.009621202695
1931.000000,0.01148996277
1932.000000,0.009829602235
1933.000000,0.01253184195
1934.000000,0.01277219902
1935.000000,0.008905514406
1936.000000,0.009198811475
1937.000000,0.009996502393
1938.000000,0.007800582376
1939.000000,0.01095874958
1940.000000,0.009841669204
1941.000000,0.01177154871
1942.000000,0.008999960785
1943.000000,0.008439667799
1944.000000,0.01387380919
1945.000000,0.008438638391
1946.000000,0.009025101001
1947.000000,0.00873043435
1948.000000,0.009585232339
1949.000000,0.008361464666
1950.000000,0.0101026692
1951.000000,0.008781980341
1952.000000,0.009357081118
1953.000000,0.01091557244
1954.000000,0.01159220997
1955.000000,0.01112210636
1956.000000,0.008715159098
1957.000000,0.01098075253
1958.000000,0.00994463611
1959.000000,0.009972055892
1960.000000,0.006739118952
1961.000000,0.01152564901
1962.000000,0.009902967207
1963.000000,0.01359388243
1964.000000,0.01146072702
1965.000000,0.00794667011
1966.000000,0.007434505324
1967.000000,0.01248004289
1968.000000,0.008427542881
1969.000000,0.01154547293
1970.000000,0.009574159625
1971.000000,0.01438258741
1972.000000,0.01033452697
1973.000000,0.01320491422
1974.000000,0.01284089539
1975.000000,0.009249727245
1976.000000,0.009518980527
1977.000000,0.0131493573
1978.000000,0.01018374424
1979.000000,0.008447489391
1980.000000,0.01259542765
1981.000000,0.01533707621
1982.000000,0.01011965977
1983.000000,0.01300276383
1984.000000,0.009885514446
1985.000000,0.01292681769
1986.000000,0.009740871483
1987.000000,0.01289036909
1988.000000,0.0113181431
1989.000000,0.00986801319
1990.000000,0.01071278067
1991.000000,0.009158926639
1992.000000,0.007994501936
1993.000000,0.008137731665
1994.000000,0.01014112094
1995.000000,0.008143060969
1996.000000,0.01114394871
1997.000000,0.01133086865
1998.000000,0.011213212
1999.000000,0.009281182786
2000.000000,0.01039113469
