raman_shift_cm-1,intensity
200.000000,0.01014160377
201.000000,0.01279293457
202.000000,0.01252310407
203.000000,0.009053271367
204.000000,0.009478171294
205.000000,0.009019567924
206.000000,0.01121401623
207.000000,0.009962663057
208.000000,0.01156879282
209.000000,0.006380602874
210.000000,0.01320858216
211.000000,0.009882853681
212.000000,0.01143670957
213.000000,0.009803055937
214.000000,0.009318228701
215.000000,0.01100288468
216.000000,0.01172593126
217.000000,0.009672085625
218.000000,0.009771815502
219.000000,0.01144902892
220.000000,0.008337195603
221.000000,0.007049356436
222.000000,0.0108683351
223.000000,0.008737489053
224.000000,0.006238190242
225.000000,0.00845101623
226.000000,0.009144181999
227.000000,0.007693227157
228.000000,0.007094960787
229.000000,0.01015342211
230.000000,0.01187490435
231.000000,0.009614402544
232.000000,0.008593737003
233.000000,0.01085118055
234.000000,0.01151592995
235.000000,0.009481704074
236.000000,0.01117132937
237.000000,0.01216801476
238.000000,0.009668622571
239.000000,0.008455777584
240.000000,0.0107783847
241.000000,0.01057845143
242.000000,0.01228126357
243.000000,0.007514756217
244.000000,0.008760973315
245.000000,0.008408148336
246.000000,0.00661673734
247.000000,0.01033792263
248.000000,0.01114095015
249.000000,0.008608051618
250.000000,0.01285721754
251.000000,0.01173006554
252.000000,0.0113412651
253.000000,0.0108902234
254.000000,0.01199844724
255.000000,0.007423449173
256.000000,0.01131557076
257.000000,0.01129356958
258.000000,0.006552885115
259.000000,0.01078269074
260.000000,0.009588098035
261.000000,0.01165229826
262.000000,0.00921144259
263.000000,0.01005340133
264.000000,0.01077590416
265.000000,0.008337997854
266.000000,0.01128803667
267.000000,0.009881241195
268.000000,0.0110764591
269.000000,0.009048147213
270.000000,0.01226455581
271.000000,0.01130288931
272.000000,0.009736770101
273.000000,0.01135707144
274.000000,0.01261300663
275.000000,0.01367618874
276.000000,0.006947028623
277.000000,0.01186079091
278.000000,0.01102501251
279.000000,0.009907504464
280.000000,0.00808224902
281.000000,0.01261031134
282.000000,0.007572815742
283.000000,0.01123054268
284.000000,0.0127007502
285.000000,0.006898040547
286.000000,0.009492710841
287.000000,0.007479682796
288.000000,0.01058659709
289.000000,0.01312761414
290.000000,0.01414635354
291.000000,0.006543392805
292.000000,0.008950106533
293.000000,0.01150748026
294.000000,0.0132595236
295.000000,0.01094359053
296.000000,0.008609258958
297.000000,0.01069622247
298.000000,0.01006912035
299.000000,0.009695279468
300.000000,0.008634223747
301.000000,0.0108780934
302.000000,0.01071974402
303.000000,0.009918430358
304.000000,0.009661439588
305.000000,0.007535402218
306.000000,0.009133306985
307.000000,0.01251898373
308.000000,0.009725397075
309.000000,0.007227551333
310.000000,0.01277626717
311.000000,0.0111683512
312.000000,0.01432443655
313.000000,0.01023373227
314.000000,0.00918638756
315.000000,0.007214319504
316.000000,0.01275774126
317.000000,0.01524954663
318.000000,0.008469116336
319.000000,0.008817277087
320.000000,0.01130429972
321.000000,0.008451704636
322.000000,0.009571755841
323.000000,0.009413677967
324.000000,0.0104977557
325.000000,0.01230396318
326.000000,0.0101589537
327.000000,0.01195313484
328.000000,0.009276036931
329.000000,0.01077191587
330.000000,0.005840375739
331.000000,0.007217443
332.000000,0.01170968232
333.000000,0.008938077249
334.000000,0.01127873069
335.000000,0.01120411846
336.000000,0.01276452112
337.000000,0.01174421938
338.000000,0.01215502628
339.000000,0.009898247755
340.000000,0.008725571475
341.000000,0.008659580317
342.000000,0.009147170726
343.000000,0.007864165864
344.000000,0.009029507225
345.000000,0.009939831457
346.000000,0.01062877358
347.000000,0.009448353195
348.000000,0.006279359215
349.000000,0.009982754344
350.000000,0.01057861233
351.000000,0.01229747772
352.000000,0.01128486543
353.000000,0.008842632784
354.000000,0.008682823036
355.000000,0.01415219875
356.000000,0.0116449128
357.000000,0.01379515543
358.000000,0.01439180952
359.000000,0.008497403655
360.000000,0.01090476607
361.000000,0.01105122398
362.000000,0.01125478302
363.000000,0.01122003783
364.000000,0.01054102374
365.000000,0.0104858604
366.000000,0.007133295939
367.000000,0.009808193912
368.000000,0.008644463976
369.000000,0.01039259183
370.000000,0.009206045366
371.000000,0.01137890699
372.000000,0.01178075155
373.000000,0.01076072663
374.000000,0.0107764272
375.000000,0.01033074064
376.000000,0.009250015297
377.000000,0.009817379934
378.000000,0.009155869393
379.000000,0.01092392264
380.000000,0.01017696996
381.000000,0.01131212832
382.000000,0.007493060248
383.000000,0.01192673395
384.000000,0.008626611246
385.000000,0.008684275508
386.000000,0.009758798737
387.000000,0.009027769159
388.000000,0.01073765129
389.000000,0.009007942995
390.000000,0.008018198317
391.000000,0.00846643804
392.000000,0.01278291007
393.000000,0.0102483695
394.000000,0.007825711536
395.000000,0.01017845616
396.000000,0.007050747921
397.000000,0.01374272358
398.000000,0.007115594345
399.000000,0.01112302694
400.000000,0.01125375455
401.000000,0.007267480435
402.000000,0.0107690529
403.000000,0.01216385926
404.000000,0.01110569265
405.000000,0.01069361332
406.000000,0.01207082481
407.000000,0.01049550341
408.000000,0.01084762017
409.000000,0.009922434394
410.000000,0.01144056968
411.000000,0.008295303747
412.000000,0.01176272567
413.000000,0.009169736743
414.000000,0.008000187502
415.000000,0.01091316063
416.000000,0.01356975657
417.000000,0.01210839919
418.000000,0.009154955228
419.000000,0.01158360143
420.000000,0.009280306407
421.000000,0.009941943951
422.000000,0.01037031401
423.000000,0.005558111001
424.000000,0.01057708393
425.000000,0.008135959856
426.000000,0.008801722037
427.000000,0.007249096998
428.000000,0.007166137807
429.000000,0.008314120081
430.000000,0.01185325669
431.000000,0.01353557694
432.000000,0.01015453551
433.000000,0.01238999877
434.000000,0.009679946881
435.000000,0.00638547431
436.000000,0.0105107859
437.000000,0.01110380326
438.000000,0.009356849484
439.000000,0.01082012917
440.000000,0.01136241401
441.000000,0.008492130387
442.000000,0.007266945012
443.000000,0.009779796743
444.000000,0.009801900561
445.000000,0.009520437013
446.000000,0.01220202452
447.000000,0.01368050252
448.000000,0.009397851743
449.000000,0.01163076754
450.000000,0.01211673284
451.000000,0.0116630887
452.000000,0.01233368308
453.000000,0.009462187286
454.000000,0.01172228342
455.000000,0.01429366152
456.000000,0.01185408791
457.000000,0.009009061546
458.000000,0.01146639968
459.000000,0.0127778956
460.000000,0.01099330325
461.000000,0.009130761132
462.000000,0.01334599259
463.000000,0.007762604192
464.000000,0.01127133412
465.000000,0.01023451847
466.000000,0.007881964584
467.000000,0.01271066367
468.000000,0.01097005067
469.000000,0.007943234292
470.000000,0.01148288764
471.000000,0.009418876631
472.000000,0.006479194519
473.000000,0.008909704021
474.000000,0.01081740991
475.000000,0.01156455685
476.000000,0.01062717764
477.000000,0.01038932872
478.000000,0.01124198514
479.000000,0.009883116451
480.000000,0.01266210005
481.000000,0.01060865662
482.000000,0.01090246088
483.000000,0.01139952393
484.000000,0.008206961963
485.000000,0.008906286998
486.000000,0.01338540944
487.000000,0.01100245041
488.000000,0.00977025616
489.000000,0.01102218629
490.000000,0.009379783566
491.000000,0.01090404964
492.000000,0.009019146645
493.000000,0.01090698326
494.000000,0.007203685207
495.000000,0.01302516512
496.000000,0.009341738391
497.000000,0.007209596675
498.000000,0.009928920017
499.000000,0.009639237956
500.000000,0.01069076006
501.000000,0.008100304281
502.000000,0.011190692
503.000000,0.01764796826
504.000000,0.007848690248
505.000000,0.01108677447
506.000000,0.009795352331
507.000000,0.01080758692
508.000000,0.006804470767
509.000000,0.008131931686
510.000000,0.01135927935
511.000000,0.01036928758
512.000000,0.01372292241
513.000000,0.009049338612
514.000000,0.01081459083
515.000000,0.01629867047
516.000000,0.008948324607
517.000000,0.00867899154
518.000000,0.0104238079
519.000000,0.01041255849
520.000000,0.01219784852
521.000000,0.01077671867
522.000000,0.009012373076
523.000000,0.0109572208
524.000000,0.01582034831
525.000000,0.0130957408
526.000000,0.004997166362
527.000000,0.01028706598
528.000000,0.008830810218
529.000000,0.01183571684
530.000000,0.01025518805
531.000000,0.01447796669
532.000000,0.0124862586
533.000000,0.01241617364
534.000000,0.01102047539
535.000000,0.01057910632
536.000000,0.01135285177
537.000000,0.01327628383
538.000000,0.0117681995
539.000000,0.01001133659
540.000000,0.01327846292
541.000000,0.01112774192
542.000000,0.01060408156
543.000000,0.009192940421
544.000000,0.009660714757
545.000000,0.009538266701
546.000000,0.00524399779
547.000000,0.01288148482
548.000000,0.01200059649
549.000000,0.0104597607
550.000000,0.01300178754
551.000000,0.01180822082
552.000000,0.01169876543
553.000000,0.006030505519
554.000000,0.01053948109
555.000000,0.01209651559
556.000000,0.01427935056
557.000000,0.01476969805
558.000000,0.01397129084
559.000000,0.008828365649
560.000000,0.006789773602
561.000000,0.01236125368
562.000000,0.01131252522
563.000000,0.01322128412
564.000000,0.0110853333
565.000000,0.01181972423
566.000000,0.008425697529
567.000000,0.01236968132
568.000000,0.01063456984
569.000000,0.01227797236
570.000000,0.01255361162
571.000000,0.01146057298
572.000000,0.01239253986
573.000000,0.01179965954
574.000000,0.01341757093
575.000000,0.01297970333
576.000000,0.01096400557
577.000000,0.01097050822
578.000000,0.01572784972
579.000000,0.01213802585
580.000000,0.01443313337
581.000000,0.01335280344
582.000000,0.01156338924
583.000000,0.01132928566
584.000000,0.0132142415
585.000000,0.01364644912
586.000000,0.01453484771
587.000000,0.01096071289
588.000000,0.01251105369
589.000000,0.0137361101
590.000000,0.01737490313
591.000000,0.009725734114
592.000000,0.0156256291
593.000000,0.01400138443
594.000000,0.01631594905
595.000000,0.01488443244
596.000000,0.01706315463
597.000000,0.01998788841
598.000000,0.01816070292
599.000000,0.01899447192
600.000000,0.01964585594
601.000000,0.01828827707
602.000000,0.02190405505
603.000000,0.02160122617
604.000000,0.02180405601
605.000000,0.02501979678
606.000000,0.02663703608
607.000000,0.03100495407
608.000000,0.03234551509
609.000000,0.03498751578
610.000000,0.04346658291
611.000000,0.04822128652
612.000000,0.05604980908
613.000000,0.06409873644
614.000000,0.0748304157
615.000000,0.08996592819
616.000000,0.1102465127
617.000000,0.1367660991
618.000000,0.1607903086
619.000000,0.1788228657
620.000000,0.1901829178
621.000000,0.1789602571
622.000000,0.1609060619
623.000000,0.1324748238
624.000000,0.1082929859
625.000000,0.0910608643
626.000000,0.07491690597
627.000000,0.0595873366
628.000000,0.05503820124
629.000000,0.05060606242
630.000000,0.03763121105
631.000000,0.03972939833
632.000000,0.03110290255
633.000000,0.02856110382
634.000000,0.02678914696
635.000000,0.02226568065
636.000000,0.02608913182
637.000000,0.02307077107
638.000000,0.01938666596
639.000000,0.01931041669
640.000000,0.01594722272
641.000000,0.01751611657
642.000000,0.0194128802
643.000000,0.0135203875
644.000000,0.01555816548
645.000000,0.0162628359
646.000000,0.01765483488
647.000000,0.01788963132
648.000000,0.01394676032
649.000000,0.01308374
650.000000,0.01519690541
651.000000,0.01332651312
652.000000,0.01321208066
653.000000,0.01579120758
654.000000,0.01682646195
655.000000,0.01381039276
656.000000,0.01273977715
657.000000,0.01412472276
658.000000,0.009076348838
659.000000,0.0126941546
660.000000,0.01049789522
661.000000,0.01729457192
662.000000,0.01386029999
663.000000,0.01261367076
664.000000,0.01185948413
665.000000,0.007141303799
666.000000,0.01352507265
667.000000,0.01529126889
668.000000,0.01051239612
669.000000,0.01327844349
670.000000,0.01330210293
671.000000,0.008709646945
672.000000,0.01362951872
673.000000,0.0144227563
674.000000,0.01212812234
675.000000,0.0115053883
676.000000,0.01317071905
677.000000,0.008478616137
678.000000,0.01171416612
679.000000,0.01360578661
680.000000,0.008983627353
681.000000,0.0134268232
682.000000,0.01058009102
683.000000,0.00723136048
684.000000,0.01115949238
685.000000,0.00940660116
686.000000,0.01196968066
687.000000,0.008968941555
688.000000,0.0133970736
689.000000,0.009803339441
690.000000,0.01197932325
691.000000,0.01006534016
692.000000,0.01059522251
693.000000,0.01361328893
694.000000,0.01165002883
695.000000,0.01042004617
696.000000,0.008698639018
697.000000,0.01351398232
698.000000,0.0126529833
699.000000,0.01052840644
700.000000,0.01166303306
701.000000,0.009112989803
702.000000,0.009138975373
703.000000,0.009513584313
704.000000,0.01187087317
705.000000,0.01175452601
706.000000,0.009671794377
707.000000,0.01263826193
708.000000,0.01273315668
709.000000,0.01151138691
710.000000,0.01324489448
711.000000,0.01059668855
712.000000,0.0109494221
713.000000,0.01212599488
714.000000,0.01111777432
715.000000,0.01278002866
716.000000,0.00869405857
717.000000,0.01405890192
718.000000,0.009653636159
719.000000,0.01089644149
720.000000,0.008481283408
721.000000,0.01244824406
722.000000,0.01380785997
723.000000,0.0134155672
724.000000,0.01295453197
725.000000,0.008188834284
726.000000,0.009755194742
727.000000,0.01041193106
728.000000,0.009486279915
729.000000,0.01362104901
730.000000,0.01176581424
731.000000,0.01137041753
732.000000,0.0124183817
733.000000,0.009565494144
734.000000,0.009679019627
735.000000,0.009761442207
736.000000,0.01255000684
737.000000,0.01227021635
738.000000,0.01277744305
739.000000,0.01381436144
740.000000,0.008981571707
741.000000,0.01061615565
742.000000,0.01207575057
743.000000,0.009129459471
744.000000,0.01081180822
745.000000,0.01395659161
746.000000,0.01418960223
747.000000,0.01419718107
748.000000,0.0121932255
749.000000,0.01175097568
750.000000,0.01440634277
751.000000,0.01157945098
752.000000,0.0130841886
753.000000,0.01514725784
754.000000,0.0118571331
755.000000,0.01147396231
756.000000,0.01278704494
757.000000,0.01412199619
758.000000,0.01401914196
759.000000,0.01350578843
760.000000,0.0144584929
761.000000,0.0103111979
762.000000,0.01197129381
763.000000,0.01421214694
764.000000,0.01224269702
765.000000,0.01165178753
766.000000,0.01217811569
767.000000,0.01304271194
768.000000,0.01483774497
769.000000,0.01349982918
770.000000,0.0164051522
771.000000,0.01976409288
772.000000,0.01656602102
773.000000,0.01996243686
774.000000,0.01861443405
775.000000,0.01650814131
776.000000,0.01904667303
777.000000,0.0185284544
778.000000,0.02310562632
779.000000,0.02051618382
780.000000,0.02693269755
781.000000,0.02716897295
782.000000,0.02401268364
783.000000,0.03206604894
784.000000,0.03653443818
785.000000,0.03538917801
786.000000,0.04324060532
787.000000,0.0429054044
788.000000,0.05336078478
789.000000,0.05718217892
790.000000,0.07048762512
791.000000,0.07616285033
792.000000,0.08524388802
793.000000,0.1013035017
794.000000,0.1123861443
795.000000,0.1093235458
796.000000,0.1094743965
797.000000,0.1007401394
798.000000,0.08987372302
799.000000,0.08098435208
800.000000,0.07282616715
801.000000,0.0580569229
802.000000,0.05401019757
803.000000,0.04722208515
804.000000,0.03845477414
805.000000,0.04023673429
806.000000,0.03736793739
807.000000,0.02863636936
808.000000,0.03158139059
809.000000,0.02617691988
810.000000,0.02401683766
811.000000,0.0258888136
812.000000,0.02208792893
813.000000,0.02120555819
814.000000,0.02266570816
815.000000,0.02139888689
816.000000,0.0199023305
817.000000,0.01469421287
818.000000,0.01380258964
819.000000,0.01871385792
820.000000,0.01417569205
821.000000,0.0159396822
822.000000,0.01314805526
823.000000,0.01461705437
824.000000,0.01214564931
825.000000,0.01770867908
826.000000,0.01217931446
827.000000,0.01376276487
828.000000,0.01343844017
829.000000,0.01605157458
830.000000,0.01063882746
831.000000,0.01326436158
832.000000,0.01277684789
833.000000,0.01413011846
834.000000,0.01389890536
835.000000,0.01192073105
836.000000,0.01322869528
837.000000,0.01190879649
838.000000,0.01350942946
839.000000,0.01228922009
840.000000,0.01110996166
841.000000,0.01229779241
842.000000,0.01301696353
843.000000,0.01676196858
844.000000,0.01119253803
845.000000,0.01273681077
846.000000,0.01500148756
847.000000,0.007874180124
848.000000,0.008502508055
849.000000,0.009572096118
850.000000,0.01168435324
851.000000,0.01675860642
852.000000,0.01262947673
853.000000,0.01423310824
854.000000,0.01134509172
855.000000,0.006835817774
856.000000,0.007111859091
857.000000,0.0137539228
858.000000,0.01206554032
859.000000,0.009079465849
860.000000,0.01389317886
861.000000,0.008564061596
862.000000,0.01389518655
863.000000,0.01451535253
864.000000,0.01007017615
865.000000,0.009371874545
866.000000,0.01326613618
867.000000,0.009377323923
868.000000,0.01328309975
869.000000,0.009161246177
870.000000,0.01316021626
871.000000,0.01172703704
872.000000,0.0106688717
873.000000,0.009739040782
874.000000,0.01200237513
875.000000,0.007739532993
876.000000,0.01097134932
877.000000,0.01073017086
878.000000,0.01287916391
879.000000,0.009015518447
880.000000,0.01495148933
881.000000,0.01090363432
882.000000,0.009253364176
883.000000,0.01430547368
884.000000,0.01486350331
885.000000,0.01116712621
886.000000,0.009766254596
887.000000,0.01158693582
888.000000,0.01018113531
889.000000,0.01094572085
890.000000,0.01469517837
891.000000,0.01237135915
892.000000,0.01188829305
893.000000,0.01230019457
894.000000,0.01150337904
895.000000,0.01331481494
896.000000,0.01340312179
897.000000,0.01091872306
898.000000,0.01188271318
899.000000,0.01651491013
900.000000,0.01254684485
901.000000,0.01134870134
902.000000,0.01583738071
903.000000,0.01177529826
904.000000,0.009581132963
905.000000,0.01314509237
906.000000,0.01001738654
907.000000,0.01084464228
908.000000,0.01251475463
909.000000,0.01163258435
910.000000,0.01038418891
911.000000,0.01083535636
912.000000,0.01077772463
913.000000,0.01432519494
914.000000,0.01058034642
915.000000,0.0109086568
916.000000,0.01616182171
917.000000,0.01101092206
918.000000,0.01513199659
919.000000,0.01482076521
920.000000,0.0119214265
921.000000,0.009427329437
922.000000,0.0132129445
923.000000,0.01369476533
924.000000,0.01432929521
925.000000,0.01258360134
926.000000,0.01489699851
927.000000,0.01531871019
928.000000,0.01048147836
929.000000,0.01550371689
930.000000,0.01305068721
931.000000,0.01162946528
932.000000,0.01218567079
933.000000,0.01664280838
934.000000,0.01492338057
935.000000,0.009447969072
936.000000,0.01326697805
937.000000,0.01289781837
938.000000,0.01290745873
939.000000,0.0123173206
940.000000,0.0105201497
941.000000,0.01524954753
942.000000,0.01174505298
943.000000,0.01298749769
944.000000,0.01263126378
945.000000,0.01249451038
946.000000,0.01555681938
947.000000,0.01496457704
948.000000,0.01298235365
949.000000,0.01258218438
950.000000,0.01368215131
951.000000,0.01671286878
952.000000,0.01519785206
953.000000,0.01558946678
954.000000,0.01465519476
955.000000,0.01499583687
956.000000,0.01615763462
957.000000,0.01226465564
958.000000,0.0194178545
959.000000,0.01487737136
960.000000,0.01559322068
961.000000,0.0197040835
962.000000,0.01779124882
963.000000,0.01777415497
964.000000,0.01689383446
965.000000,0.01533841345
966.000000,0.01926404219
967.000000,0.02175500205
968.000000,0.01807680294
969.000000,0.02315961596
970.000000,0.01879003007
971.000000,0.02024553452
972.000000,0.02346159528
973.000000,0.02326259431
974.000000,0.02554438352
975.000000,0.02367996441
976.000000,0.02421723523
977.000000,0.02379946711
978.000000,0.0265376153
979.000000,0.02839112223
980.000000,0.02950938845
981.000000,0.03506523956
982.000000,0.03552500412
983.000000,0.03566923148
984.000000,0.04788321754
985.000000,0.04510985133
986.000000,0.04887702147
987.000000,0.05942516327
988.000000,0.06606058609
989.000000,0.0698224375
990.000000,0.07972782424
991.000000,0.0941678518
992.000000,0.1160241339
993.000000,0.1366093599
994.000000,0.1676927446
995.000000,0.2142905656
996.000000,0.2816890537
997.000000,0.3720431526
998.000000,0.5143245101
999.000000,0.7049278918
1000.000000,0.9200549016
1001.000000,1.019702831
1002.000000,0.9183606772
1003.000000,0.7089331387
1004.000000,0.5186922542
1005.000000,0.373706858
1006.000000,0.2837703451
1007.000000,0.2165143284
1008.000000,0.1724716148
1009.000000,0.1426916202
1010.000000,0.1210993058
1011.000000,0.1066487472
1012.000000,0.09487056483
1013.000000,0.08510708222
1014.000000,0.0762121182
1015.000000,0.07489758421
1016.000000,0.07037216385
1017.000000,0.07149845759
1018.000000,0.06722654975
1019.000000,0.06490533842
1020.000000,0.07246289278
1021.000000,0.08262664941
1022.000000,0.08660006691
1023.000000,0.09583404554
1024.000000,0.1129916022
1025.000000,0.133522904
1026.000000,0.1637430731
1027.000000,0.2047438029
1028.000000,0.2649778516
1029.000000,0.3388843584
1030.000000,0.4081267443
1031.000000,0.4381902608
1032.000000,0.4083899253
1033.000000,0.3378014568
1034.000000,0.262150836
1035.000000,0.201384342
1036.000000,0.1569754149
1037.000000,0.1292549053
1038.000000,0.1016149447
1039.000000,0.08632344303
1040.000000,0.0755467537
1041.000000,0.06211701623
1042.000000,0.05505469592
1043.000000,0.05068736484
1044.000000,0.04720733136
1045.000000,0.04056815807
1046.000000,0.03745274351
1047.000000,0.03422011328
1048.000000,0.02935615173
1049.000000,0.03206604785
1050.000000,0.027660279
1051.000000,0.02328457292
1052.000000,0.02517448025
1053.000000,0.02090285537
1054.000000,0.0213708543
1055.000000,0.02255527426
1056.000000,0.01990564094
1057.000000,0.02319690583
1058.000000,0.01749425339
1059.000000,0.02039750771
1060.000000,0.02047732213
1061.000000,0.02181968975
1062.000000,0.02032161969
1063.000000,0.01855733639
1064.000000,0.01789786165
1065.000000,0.01729493944
1066.000000,0.01939037294
1067.000000,0.01552359255
1068.000000,0.01762453023
1069.000000,0.01615978772
1070.000000,0.01661022135
1071.000000,0.01540190292
1072.000000,0.02000919797
1073.000000,0.01425008294
1074.000000,0.01590853509
1075.000000,0.01580338775
1076.000000,0.01632726394
1077.000000,0.01588120859
1078.000000,0.01570774482
1079.000000,0.01670910716
1080.000000,0.01162993745
1081.000000,0.01456173415
1082.000000,0.01198370718
1083.000000,0.01483168642
1084.000000,0.01192297832
1085.000000,0.01229621894
1086.000000,0.01402871156
1087.000000,0.01688168859
1088.000000,0.01518798587
1089.000000,0.01457571935
1090.000000,0.0167433009
1091.000000,0.0120051512
1092.000000,0.009674905469
1093.000000,0.01297934532
1094.000000,0.01324306121
1095.000000,0.01624567355
1096.000000,0.0180356569
1097.000000,0.01108318497
1098.000000,0.01868728713
1099.000000,0.01685557463
1100.000000,0.01540237
1101.000000,0.01446425989
1102.000000,0.01858778629
1103.000000,0.01390878735
1104.000000,0.01281714028
1105.000000,0.01406455723
1106.000000,0.01107482399
1107.000000,0.01478969559
1108.000000,0.01366394557
1109.000000,0.01458851211
1110.000000,0.01469775275
1111.000000,0.01191627387
1112.000000,0.01673010663
1113.000000,0.01213925085
1114.000000,0.01602452116
1115.000000,0.01114955044
1116.000000,0.01517677642
1117.000000,0.01290143771
1118.000000,0.01474574549
1119.000000,0.01348871532
1120.000000,0.01056948081
1121.000000,0.0128659568
1122.000000,0.01540837377
1123.000000,0.0167128099
1124.000000,0.01274054363
1125.000000,0.01166535725
1126.000000,0.01443358277
1127.000000,0.01604636493
1128.000000,0.01552683111
1129.000000,0.01553549757
1130.000000,0.01926057742
1131.000000,0.01994528278
1132.000000,0.02000866806
1133.000000,0.01722788887
1134.000000,0.01991375884
1135.000000,0.02012430292
1136.000000,0.01851768423
1137.000000,0.02413111445
1138.000000,0.02369570617
1139.000000,0.02389863808
1140.000000,0.02929183366
1141.000000,0.0298697821
1142.000000,0.03231143704
1143.000000,0.0357267785
1144.000000,0.03808916074
1145.000000,0.03822084038
1146.000000,0.04507012062
1147.000000,0.05424635133
1148.000000,0.058767413
1149.000000,0.0705621041
1150.000000,0.08402029742
1151.000000,0.1015994337
1152.000000,0.1190282631
1153.000000,0.1361299723
1154.000000,0.1480569334
1155.000000,0.1558343965
1156.000000,0.1498885018
1157.000000,0.1348205725
1158.000000,0.1203779403
1159.000000,0.1013770013
1160.000000,0.08385005261
1161.000000,0.07565796163
1162.000000,0.06297645158
1163.000000,0.05720847564
1164.000000,0.04724894836
1165.000000,0.04591724824
1166.000000,0.04082740189
1167.000000,0.03844288823
1168.000000,0.03500282514
1169.000000,0.04222816081
1170.000000,0.03740068674
1171.000000,0.03858016721
1172.000000,0.04141326571
1173.000000,0.04083382395
1174.000000,0.04492907986
1175.000000,0.04518857694
1176.000000,0.05381659267
1177.000000,0.06006554536
1178.000000,0.07183208371
1179.000000,0.08402629922
1180.000000,0.0964912059
1181.000000,0.1122911352
1182.000000,0.1277557367
1183.000000,0.1365866101
1184.000000,0.1300258404
1185.000000,0.1155727473
1186.000000,0.09335972274
1187.000000,0.07575929195
1188.000000,0.06635829098
1189.000000,0.05625594469
1190.000000,0.04743667883
1191.000000,0.04295038017
1192.000000,0.03691316743
1193.000000,0.03095909924
1194.000000,0.02844412865
1195.000000,0.02796714976
1196.000000,0.02576594623
1197.000000,0.02377014257
1198.000000,0.02703250458
1199.000000,0.02077422821
1200.000000,0.02052046591
1201.000000,0.01741344344
1202.000000,0.01793105827
1203.000000,0.01903914326
1204.000000,0.01854779532
1205.000000,0.01659001163
1206.000000,0.01724382579
1207.000000,0.01616235131
1208.000000,0.01192975752
1209.000000,0.008818464273
1210.000000,0.01969848217
1211.000000,0.01647410143
1212.000000,0.01445885907
1213.000000,0.01087752392
1214.000000,0.01160249216
1215.000000,0.01668163467
1216.000000,0.008224534235
1217.000000,0.01299644171
1218.000000,0.01523822692
1219.000000,0.01365414811
1220.000000,0.01475341556
1221.000000,0.01286612149
1222.000000,0.01780815748
1223.000000,0.01086503153
1224.000000,0.01010284503
1225.000000,0.0132885867
1226.000000,0.01551635494
1227.000000,0.01246808431
1228.000000,0.01460515523
1229.000000,0.01137699176
1230.000000,0.01000355795
1231.000000,0.01511301579
1232.000000,0.01539303094
1233.000000,0.01526741547
1234.000000,0.01127310951
1235.000000,0.009790362787
1236.000000,0.009715718578
1237.000000,0.01156124013
1238.000000,0.01313363953
1239.000000,0.01294742926
1240.000000,0.009022537092
1241.000000,0.01224578037
1242.000000,0.01185669688
1243.000000,0.01196890934
1244.000000,0.01171020057
1245.000000,0.01132413451
1246.000000,0.01288626508
1247.000000,0.01192646062
1248.000000,0.01209780896
1249.000000,0.01024087771
1250.000000,0.01239044459
1251.000000,0.01133412785
1252.000000,0.007324644791
1253.000000,0.01250166777
1254.000000,0.01098622579
1255.000000,0.01334863369
1256.000000,0.0111539344
1257.000000,0.01126949388
1258.000000,0.01186795698
1259.000000,0.01140518197
1260.000000,0.01052004268
1261.000000,0.007813170768
1262.000000,0.01507125376
1263.000000,0.008215221523
1264.000000,0.01067725505
1265.000000,0.01265464718
1266.000000,0.01209702253
1267.000000,0.01246067052
1268.000000,0.01285416734
1269.000000,0.01383267958
1270.000000,0.01189112356
1271.000000,0.01710092599
1272.000000,0.009252348224
1273.000000,0.01172589456
1274.000000,0.01054181723
1275.000000,0.01016604441
1276.000000,0.0118240439
1277.000000,0.01415957764
1278.000000,0.009816640309
1279.000000,0.009809476529
1280.000000,0.01267505682
1281.000000,0.01230911116
1282.000000,0.01513202573
1283.000000,0.01326799887
1284.000000,0.01166748002
1285.000000,0.01054593522
1286.000000,0.01163191041
1287.000000,0.01084796864
1288.000000,0.008465548068
1289.000000,0.01120983187
1290.000000,0.01084105109
1291.000000,0.01072444401
1292.000000,0.01032943174
1293.000000,0.01456700226
1294.000000,0.01257849758
1295.000000,0.01305907768
1296.000000,0.00996967969
1297.000000,0.009139730204
1298.000000,0.01061943657
1299.000000,0.01167385633
1300.000000,0.01049584103
1301.000000,0.01081110561
1302.000000,0.01311173927
1303.000000,0.011788963
1304.000000,0.00922437541
1305.000000,0.01033857352
1306.000000,0.009881935872
1307.000000,0.01156161417
1308.000000,0.008868234405
1309.000000,0.01084852415
1310.000000,0.0125948654
1311.000000,0.0112708769
1312.000000,0.009389809414
1313.000000,0.009989156426
1314.000000,0.01147540033
1315.000000,0.01219786991
1316.000000,0.01291115404
1317.000000,0.01095219878
1318.000000,0.008614035991
1319.000000,0.01410474475
1320.000000,0.01185707063
1321.000000,0.01208029975
1322.000000,0.01188637196
1323.000000,0.009207871076
1324.000000,0.01065209197
1325.000000,0.01181341002
1326.000000,0.01337269029
1327.000000,0.01143669532
1328.000000,0.005085696076
1329.000000,0.01085252359
1330.000000,0.01205054755
1331.000000,0.01394341975
1332.000000,0.0127890743
1333.000000,0.01635806758
1334.000000,0.0142379611
1335.000000,0.01409665965
1336.000000,0.01329940267
1337.000000,0.008661905742
1338.000000,0.01313429063
1339.000000,0.01265304941
1340.000000,0.01041642375
1341.000000,0.01265664721
1342.000000,0.01233490009
1343.000000,0.01058467944
1344.000000,0.01128444213
1345.000000,0.01102171426
1346.000000,0.01202693319
1347.000000,0.01073510698
1348.000000,0.01269299927
1349.000000,0.007787566644
1350.000000,0.01107913262
1351.000000,0.008294562377
1352.000000,0.01071981358
1353.000000,0.01274191447
1354.000000,0.01177447653
1355.000000,0.01153400492
1356.000000,0.01191772642
1357.000000,0.01494488633
1358.000000,0.009620034885
1359.000000,0.01363560791
1360.000000,0.00886353821
1361.000000,0.01098346883
1362.000000,0.01227623689
1363.000000,0.01027749104
1364.000000,0.01242410323
1365.000000,0.01350540911
1366.000000,0.009696008617
1367.000000,0.01196555132
1368.000000,0.01140535724
1369.000000,0.008317375693
1370.000000,0.01186517661
1371.000000,0.01068656747
1372.000000,0.01500474311
1373.000000,0.01062167681
1374.000000,0.01581982898
1375.000000,0.0114040217
1376.000000,0.0163992839
1377.000000,0.01365601222
1378.000000,0.01354143969
1379.000000,0.01430408394
1380.000000,0.01455871046
1381.000000,0.01562478887
1382.000000,0.01635055742
1383.000000,0.01226163556
1384.000000,0.01052787834
1385.000000,0.007761072212
1386.000000,0.01241007078
1387.000000,0.01478884005
1388.000000,0.01411284557
1389.000000,0.01367853752
1390.000000,0.0128443605
1391.000000,0.01236619939
1392.000000,0.01318543444
1393.000000,0.01464285456
1394.000000,0.01045371128
1395.000000,0.01556511473
1396.000000,0.01132147601
1397.000000,0.01406028826
1398.000000,0.01325396619
1399.000000,0.01393856979
1400.000000,0.01274580477
1401.000000,0.01270335858
1402.000000,0.01473210576
1403.000000,0.01321828753
1404.000000,0.02051279797
1405.000000,0.01498158345
1406.000000,0.01473644895
1407.000000,0.01520080332
1408.000000,0.01442563436
1409.000000,0.01194413136
1410.000000,0.01665407875
1411.000000,0.01811885718
1412.000000,0.0148476757
1413.000000,0.01825165805
1414.000000,0.01623727776
1415.000000,0.01903558512
1416.000000,0.02031377013
1417.000000,0.0210967161
1418.000000,0.02157383755
1419.000000,0.01992575288
1420.000000,0.02378451264
1421.000000,0.02188539735
1422.000000,0.02431464808
1423.000000,0.02594323315
1424.000000,0.02494322594
1425.000000,0.02411236556
1426.000000,0.02916713446
1427.000000,0.02711321738
1428.000000,0.02914520519
1429.000000,0.03050223263
1430.000000,0.03640696486
1431.000000,0.036684579
1432.000000,0.03512745791
1433.000000,0.04409305425
1434.000000,0.05022178681
1435.000000,0.05368501104
1436.000000,0.05361209526
1437.000000,0.06035846465
1438.000000,0.06763322029
1439.000000,0.07596587177
1440.000000,0.08319257914
1441.000000,0.09151492826
1442.000000,0.1076956003
1443.000000,0.1220255722
1444.000000,0.1349649382
1445.000000,0.1557514158
1446.000000,0.1772019998
1447.000000,0.1966822481
1448.000000,0.2152789351
1449.000000,0.2280335024
1450.000000,0.2319343824
1451.000000,0.2262300337
1452.000000,0.2115669952
1453.000000,0.1979716361
1454.000000,0.1795362396
1455.000000,0.1605244167
1456.000000,0.1376642106
1457.000000,0.1208460582
1458.000000,0.109219229
1459.000000,0.09673963081
1460.000000,0.08397995198
1461.000000,0.07579813276
1462.000000,0.06530447938
1463.000000,0.06160196429
1464.000000,0.0533439775
1465.000000,0.0500615109
1466.000000,0.04611969715
1467.000000,0.04199079787
1468.000000,0.03572561852
1469.000000,0.03570255096
1470.000000,0.03575228287
1471.000000,0.03296999704
1472.000000,0.03054476263
1473.000000,0.0306306539
1474.000000,0.02976432851
1475.000000,0.02884459664
1476.000000,0.02442603546
1477.000000,0.02508689091
1478.000000,0.02347811417
1479.000000,0.02157884893
1480.000000,0.01960771844
1481.000000,0.02173761723
1482.000000,0.01958152584
1483.000000,0.02508100729
1484.000000,0.02007132286
1485.000000,0.01935694316
1486.000000,0.0185864912
1487.000000,0.0227435649
1488.000000,0.01675074942
1489.000000,0.01798299176
1490.000000,0.01646212885
1491.000000,0.01747220976
1492.000000,0.01739167379
1493.000000,0.01942263645
1494.000000,0.01417213647
1495.000000,0.0167593551
1496.000000,0.01984610849
1497.000000,0.01542008755
1498.000000,0.01592456422
1499.000000,0.01435786573
1500.000000,0.01075914207
1501.000000,0.01566127098
1502.000000,0.01810683787
1503.000000,0.0147145165
1504.000000,0.01186071149
1505.000000,0.01599901631
1506.000000,0.01554471335
1507.000000,0.01731580953
1508.000000,0.01707171646
1509.000000,0.0146532049
1510.000000,0.01594309037
1511.000000,0.01150102845
1512.000000,0.01729023426
1513.000000,0.01540358188
1514.000000,0.01717746193
1515.000000,0.01711367168
1516.000000,0.01440059339
1517.000000,0.01466939648
1518.000000,0.01321748793
1519.000000,0.01083884584
1520.000000,0.01471789607
1521.000000,0.01530519808
1522.000000,0.01284819061
1523.000000,0.01647121145
1524.000000,0.01527832457
1525.000000,0.01602851662
1526.000000,0.01362816295
1527.000000,0.01169099044
1528.000000,0.01683507085
1529.000000,0.01656731581
1530.000000,0.01519889504
1531.000000,0.01465692914
1532.000000,0.01503350611
1533.000000,0.01541022092
1534.000000,0.01477158305
1535.000000,0.0118814909
1536.000000,0.01759573155
1537.000000,0.01317164564
1538.000000,0.01564035983
1539.000000,0.015849155
1540.000000,0.01715396918
1541.000000,0.01358721713
1542.000000,0.01942551967
1543.000000,0.01853567215
1544.000000,0.01899428
1545.000000,0.02023740859
1546.000000,0.01637466452
1547.000000,0.0119908827
1548.000000,0.01924142285
1549.000000,0.02154160078
1550.000000,0.02161130071
1551.000000,0.01861732671
1552.000000,0.01994270639
1553.000000,0.02117441513
1554.000000,0.01750911877
1555.000000,0.020361339
1556.000000,0.02105045242
1557.000000,0.0261820672
1558.000000,0.02247693162
1559.000000,0.02776989422
1560.000000,0.02559963498
1561.000000,0.0232747668
1562.000000,0.03224831806
1563.000000,0.0272057544
1564.000000,0.03190206452
1565.000000,0.0358063459
1566.000000,0.03330604739
1567.000000,0.0342038802
1568.000000,0.04141031655
1569.000000,0.04258371608
1570.000000,0.04369514483
1571.000000,0.04840247182
1572.000000,0.05511018495
1573.000000,0.06430452396
1574.000000,0.06978518317
1575.000000,0.0815822784
1576.000000,0.09597508545
1577.000000,0.1107377718
1578.000000,0.1303771115
1579.000000,0.1533516118
1580.000000,0.1744062974
1581.000000,0.207281
1582.000000,0.227515692
1583.000000,0.2367594077
1584.000000,0.2300007191
1585.000000,0.2124370714
1586.000000,0.1919749598
1587.000000,0.1737292986
1588.000000,0.1550926761
1589.000000,0.1445978807
1590.000000,0.1389679164
1591.000000,0.1405473169
1592.000000,0.1427145019
1593.000000,0.1525863248
1594.000000,0.1715015256
1595.000000,0.192153758
1596.000000,0.2283286886
1597.000000,0.273041696
1598.000000,0.3412319295
1599.000000,0.4253993957
1600.000000,0.5228342906
1601.000000,0.6074767434
1602.000000,0.641439127
1603.000000,0.6052356583
1604.000000,0.5163280268
1605.000000,0.4192181728
1606.000000,0.3313631702
1607.000000,0.2583827767
1608.000000,0.2102267255
1609.000000,0.1692934437
1610.000000,0.142048411
1611.000000,0.1179791822
1612.000000,0.09883577762
1613.000000,0.09032980667
1614.000000,0.0784534925
1615.000000,0.0664094906
1616.000000,0.05796573746
1617.000000,0.05478992254
1618.000000,0.04856489527
1619.000000,0.04603499885
1620.000000,0.0444523639
1621.000000,0.04309877375
1622.000000,0.03680610199
1623.000000,0.03797335425
1624.000000,0.03553007904
1625.000000,0.03055409901
1626.000000,0.02651280435
1627.000000,0.03015055093
1628.000000,0.0284088238
1629.000000,0.03077031997
1630.000000,0.02790739573
1631.000000,0.02569261348
1632.000000,0.0266700862
1633.000000,0.02043733495
1634.000000,0.02222691132
1635.000000,0.02065718153
1636.000000,0.02410495173
1637.000000,0.02121283762
1638.000000,0.01346754391
1639.000000,0.02186932879
1640.000000,0.0168902833
1641.000000,0.01986498742
1642.000000,0.01698647098
1643.000000,0.01809262345
1644.000000,0.01855558257
1645.000000,0.01737504522
1646.000000,0.01479961879
1647.000000,0.01924432121
1648.000000,0.01699389049
1649.000000,0.01593476037
1650.000000,0.01716259797
1651.000000,0.01447391742
1652.000000,0.01912264148
1653.000000,0.01561701364
1654.000000,0.01572473259
1655.000000,0.01552323817
1656.000000,0.01284734449
1657.000000,0.01217578784
1658.000000,0.01481807987
1659.000000,0.01495459654
1660.000000,0.01681433206
1661.000000,0.01490325795
1662.000000,0.01170617043
1663.000000,0.01482661437
1664.000000,0.01532298526
1665.000000,0.01557312171
1666.000000,0.01413746264
1667.000000,0.01093409685
1668.000000,0.0156112228
1669.000000,0.01173937465
1670.000000,0.01426910994
1671.000000,0.009897129446
1672.000000,0.01449726104
1673.000000,0.01132544817
1674.000000,0.01499074138
1675.000000,0.01628701502
1676.000000,0.0150333644
1677.000000,0.01029571951
1678.000000,0.01068323714
1679.000000,0.01077216615
1680.000000,0.01378280528
1681.000000,0.01309485101
1682.000000,0.0126685681
1683.000000,0.01292016917
1684.000000,0.01341237607
1685.000000,0.01350863562
1686.000000,0.01553968092
1687.000000,0.01200376664
1688.000000,0.01247994228
1689.000000,0.008319000656
1690.000000,0.009342583778
1691.000000,0.01056379662
1692.000000,0.009539667633
1693.000000,0.01231631035
1694.000000,0.01392104214
1695.000000,0.01093204291
1696.000000,0.01079762349
1697.000000,0.0107117145
1698.000000,0.01196449134
1699.000000,0.01058154437
1700.000000,0.0124943116
1701.000000,0.01221315705
1702.000000,0.01227117208
1703.000000,0.01308242089
1704.000000,0.01158966743
1705.000000,0.01178773707
1706.000000,0.01499336142
1707.000000,0.01135757795
1708.000000,0.01302053891
1709.000000,0.01150839042
1710.000000,0.01046035987
1711.000000,0.01043942017
1712.000000,0.009691090908
1713.000000,0.01133397469
1714.000000,0.01008155291
1715.000000,0.01042344831
1716.000000,0.01368911548
1717.000000,0.01096436815
1718.000000,0.01349337875
1719.000000,0.01172603577
1720.000000,0.01290122332
1721.000000,0.009938211642
1722.000000,0.01143741371
1723.000000,0.01639737017
1724.000000,0.01276453427
1725.000000,0.01310032264
1726.000000,0.01154413211
1727.000000,0.01277694131
1728.000000,0.008722287378
1729.000000,0.009329612233
1730.000000,0.01187458797
1731.000000,0.01264277153
1732.000000,0.01016828161
1733.000000,0.01059944406
1734.000000,0.01023716196
1735.000000,0.01057146973
1736.000000,0.008532656521
1737.000000,0.008054578078
1738.000000,0.01074345179
1739.000000,0.007418609479
1740.000000,0.00892410716
1741.000000,0.009548071214
1742.000000,0.008750150314
1743.000000,0.01131963481
1744.000000,0.009938474903
1745.000000,0.01065635378
1746.000000,0.00878519002
1747.000000,0.009309276475
1748.000000,0.0118061903
1749.000000,0.01149612844
1750.000000,0.009828255836
1751.000000,0.01147503774
1752.000000,0.01111175388
1753.000000,0.01104464597
1754.000000,0.01390488365
1755.000000,0.009903534822
1756.000000,0.01153404639
1757.000000,0.01152843361
1758.000000,0.01020778403
1759.000000,0.00833676679
1760.000000,0.012038746
1761.000000,0.01117120451
1762.000000,0.01073722519
1763.000000,0.01067502502
1764.000000,0.0106616277
1765.000000,0.008821579663
1766.000000,0.01118445661
1767.000000,0.006984795849
1768.000000,0.01052914606
1769.000000,0.007579532848
1770.000000,0.00985877491
1771.000000,0.01198461725
1772.000000,0.0100267776
1773.000000,0.00957752192
1774.000000,0.01155567048
1775.000000,0.009981789272
1776.000000,0.009696748801
1777.000000,0.009718388667
1778.000000,0.01352131505
1779.000000,0.01181883731
1780.000000,0.01144478443
1781.000000,0.008095748093
1782.000000,0.01170718864
1783.000000,0.007875957101
1784.000000,0.0114136873
1785.000000,0.008216481012
1786.000000,0.01434622813
1787.000000,0.007067429573
1788.000000,0.01287217778
1789.000000,0.01202472364
1790.000000,0.00686649956
1791.000000,0.009929951164
1792.000000,0.01329435813
1793.000000,0.01267252196
1794.000000,0.00707881359
1795.000000,0.009350381172
1796.000000,0.008038233835
1797.000000,0.008331174473
1798.000000,0.009091286374
1799.000000,0.01405272753
1800.000000,0.0106321724
1801.000000,0.009909149795
1802.000000,0.009686814608
1803.000000,0.01168381383
1804.000000,0.01172928795
1805.000000,0.008504934504
1806.000000,0.01327328349
1807.000000,0.008169419753
1808.000000,0.009776626268
1809.000000,0.01122772356
1810.000000,0.01374387124
1811.000000,0.009626762768
1812.000000,0.01088705322
1813.000000,0.01291629316
1814.000000,0.01155445364
1815.000000,0.01255857168
1816.000000,0.01237732602
1817.000000,0.01081733115
1818.000000,0.01155576106
1819.000000,0.01212407749
1820.000000,0.01023220339
1821.000000,0.01348085193
1822.000000,0.006309600719
1823.000000,0.008437246429
1824.000000,0.01316278339
1825.000000,0.01112637891
1826.000000,0.00898169269
1827.000000,0.01102291981
1828.000000,0.01243725951
1829.000000,0.009143647003
1830.000000,0.01179449713
1831.000000,0.01001193012
1832.000000,0.01002680119
1833.000000,0.01011263228
1834.000000,0.01247139913
1835.000000,0.008007023227
1836.000000,0.009508698124
1837.000000,0.01156601922
1838.000000,0.007800878789
1839.000000,0.00707478665
1840.000000,0.01137166587
1841.000000,0.01023455183
1842.000000,0.00993480136
1843.000000,0.01051138036
1844.000000,0.008280239204
1845.000000,0.01604717261
1846.000000,0.008251663926
1847.000000,0.009346834584
1848.000000,0.007372124641
1849.000000,0.009381156909
1850.000000,0.01326291449
1851.000000,0.01024614884
1852.000000,0.01139566742
1853.000000,0.009237093103
1854.000000,0.01382777474
1855.000000,0.01052731484
1856.000000,0.007700863639
1857.000000,0.01173528463
1858.000000,0.009454039593
1859.000000,0.0114050842
1860.000000,0.01046744297
1861.000000,0.01071401446
1862.000000,0.0104582031
1863.000000,0.008372096693
1864.000000,0.007176692981
1865.000000,0.01213042138
1866.000000,0.009905772185
1867.000000,0.01074596884
1868.000000,0.00924501151
1869.000000,0.006124395744
1870.000000,0.007614926607
1871.000000,0.01295731139
1872.000000,0.008594075621
1873.000000,0.009397228975
1874.000000,0.007225954946
1875.000000,0.009102946829
1876.000000,0.009410911837
1877.000000,0.009710538741
1878.000000,0.01000404497
1879.000000,0.008886220945
1880.000000,0.008998207736
1881.000000,0.01011715647
1882.000000,0.01078802997
1883.000000,0.009856221814
1884.000000,0.01362347377
1885.000000,0.01054705177
1886.000000,0.01045649648
1887.000000,0.008820159729
1888.000000,0.01218410454
1889.000000,0.00808076096
1890.000000,0.006889630012
1891.000000,0.008173248562
1892.000000,0.01135976566
1893.000000,0.007830791409
1894.000000,0.01270543099
1895.000000,0.01007051868
1896.000000,0.007081797433
1897.000000,0.009654070472
1898.000000,0.0136773049
1899.000000,0.008388648858
1900.000000,0.00748747623
1901.000000,0.01113008541
1902.000000,0.01271620686
1903.000000,0.0121347216
1904.000000,0.009443532461
1905.000000,0.01047432664
1906.000000,0.01074774523
1907.000000,0.01244441505
1908.000000,0.01439232851
1909.000000,0.009878198963
1910.000000,0.01269097415
1911.000000,0.009403227035
1912.000000,0.01126790444
1913.000000,0.008222266529
1914.000000,0.008559375961
1915.000000,0.01091659936
1916.000000,0.00829147183
1917.000000,0.01185784516
1918.000000,0.008981327619
1919.000000,0.01023635126
1920.000000,0.009913174098
1921.000000,0.009412284548
1922.000000,0.01033984622
1923.000000,0.01223528243
1924.000000,0.01628611871
1925.000000,0.007700882088
1926.000000,0.01067374525
1927.000000,0.009721330025
1928.000000,0.008244769962
1929.000000,0.01064292766
1930.000000,0.008311832149
1931.000000,0.009911833631
1932.000000,0.01254655437
1933.000000,0.006024167566
1934.000000,0.01056032245
1935.000000,0.01095746775
1936.000000,0.008148255206
1937.000000,0.0111097386
1938.000000,0.0107640957
1939.000000,0.009362100858
1940.000000,0.01248304859
1941.000000,0.007443315762
1942.000000,0.01134325253
1943.000000,0.009588941469
1944.000000,0.007942336671
1945.000000,0.009699011789
1946.000000,0.009354623283
1947.000000,0.01168982949
1948.000000,0.007060818119
1949.000000,0.009660991656
1950.000000,0.009137980114
1951.000000,0.01319394615
1952.000000,0.007810838427
1953.000000,0.01216296901
1954.000000,0.006531188474
1955.000000,0.01072979982
1956.000000,0.009767374011
1957.000000,0.01079275361
1958.000000,0.008628965999
1959.000000,0.00613059342
1960.000000,0.006939452371
1961.000000,0.01265177356
1962.000000,0.01045050681
1963.000000,0.008293125831
1964.000000,0.01181859154
1965.000000,0.00852630606
1966.000000,0.008536339745
1967.000000,0.00758593718
1968.000000,0.01236449267
1969.000000,0.01393234513
1970.000000,0.00807723137
1971.000000,0.01058129245
1972.000000,0.01195581717
1973.000000,0.0142289553
1974.000000,0.005199930179
1975.000000,0.01027581611
1976.000000,0.01128200228
1977.000000,0.00702986816
1978.000000,0.01080290844
1979.000000,0.01037976903
1980.000000,0.01143001507
1981.000000,0.008816545546
1982.000000,0.01081542031
1983.000000,0.008767992715
1984.000000,0.01118907564
1985.000000,0.01029236279
1986.000000,0.00922094027
1987.000000,0.007142376753
1988.000000,0.01326834157
1989.000000,0.01218945249
1990.000000,0.01173023063
1991.000000,0.008640823559
1992.000000,0.00926817394
1993.000000,0.01330858439
1994.000000,0.01145668859
1995.000000,0.008264012818
1996.000000,0.01006029744
1997.000000,0.01025050045
1998.000000,0.009568228836
1999.000000,0.008080845701
2000.000000,0.012478098
