raman_shift_cm-1,intensity
200.000000,0.01146425777
201.000000,0.008114491152
202.000000,0.006926681248
203.000000,0.004223944377
204.000000,0.009367645989
205.000000,0.01256954906
206.000000,0.01014070876
207.000000,0.01109847999
208.000000,0.01212149801
209.000000,0.008310960776
210.000000,0.015380058
211.000000,0.008321901497
212.000000,0.01082305879
213.000000,0.01555535024
214.000000,0.00984792101
215.000000,0.01030525339
216.000000,0.009053145115
217.000000,0.01074619833
218.000000,0.005824020467
219.000000,0.008784014171
220.000000,0.01346606329
221.000000,0.01050077571
222.000000,0.009597574343
223.000000,0.01082447767
224.000000,0.01090808505
225.000000,0.01038333009
226.000000,0.01123655285
227.000000,0.00676043851
228.000000,0.01126239911
229.000000,0.008733092915
230.000000,0.01165201111
231.000000,0.01003817331
232.000000,0.008084563382
233.000000,0.00993693095
234.000000,0.008067298041
235.000000,0.01210718878
236.000000,0.01002479724
237.000000,0.01178844724
238.000000,0.00785242331
239.000000,0.01332164335
240.000000,0.009480960889
241.000000,0.01281389163
242.000000,0.01179174073
243.000000,0.007882027505
244.000000,0.01073050815
245.000000,0.008999581608
246.000000,0.01090349601
247.000000,0.01295001062
248.000000,0.0114626834
249.000000,0.01222150346
250.000000,0.007742784363
251.000000,0.01049410726
252.000000,0.01080465569
253.000000,0.01226460463
254.000000,0.008848261461
255.000000,0.01122498104
256.000000,0.01094665406
257.000000,0.00703937917
258.000000,0.008008875548
259.000000,0.01097797216
260.000000,0.007735804702
261.000000,0.007635420118
262.000000,0.011880047
263.000000,0.01066101563
264.000000,0.009619888652
265.000000,0.01030150842
266.000000,0.009281791721
267.000000,0.009017308766
268.000000,0.00917031698
269.000000,0.01086394604
270.000000,0.01273476009
271.000000,0.009150971636
272.000000,0.009955505595
273.000000,0.009656600931
274.000000,0.007573440787
275.000000,0.0105977205
276.000000,0.01182771214
277.000000,0.008407157318
278.000000,0.01176107022
279.000000,0.008951890829
280.000000,0.0123981799
281.000000,0.01252766529
282.000000,0.00933014575
283.000000,0.006094771273
284.000000,0.009401037212
285.000000,0.00731496371
286.000000,0.007468305061
287.000000,0.009592462346
288.000000,0.01281938876
289.000000,0.009914650832
290.000000,0.009660081203
291.000000,0.006398622997
292.000000,0.008887755623
293.000000,0.007310223728
294.000000,0.01114143378
295.000000,0.009044678068
296.000000,0.01001374421
297.000000,0.01006854259
298.000000,0.009726809108
299.000000,0.01200789653
300.000000,0.01107675087
301.000000,0.009464319342
302.000000,0.010411503
303.000000,0.01120994907
304.000000,0.01284750593
305.000000,0.01036489141
306.000000,0.0130008962
307.000000,0.008917733364
308.000000,0.009638850179
309.000000,0.007132536198
310.000000,0.01175117339
311.000000,0.00804260323
312.000000,0.00804333491
313.000000,0.01179289607
314.000000,0.009043839412
315.000000,0.008603379424
316.000000,0.01201615585
317.000000,0.009741923038
318.000000,0.01195166319
319.000000,0.009306087218
320.000000,0.01156525389
321.000000,0.01226947773
322.000000,0.01027745631
323.000000,0.01371135183
324.000000,0.009321556862
325.000000,0.009690865656
326.000000,0.01027356051
327.000000,0.01212635563
328.000000,0.009540627561
329.000000,0.009243135833
330.000000,0.01062430164
331.000000,0.01261703355
332.000000,0.00928472462
333.000000,0.007563071543
334.000000,0.009857198055
335.000000,0.01136695621
336.000000,0.009034379659
337.000000,0.01036899553
338.000000,0.006383069404
339.000000,0.0101641457
340.000000,0.01032761775
341.000000,0.01136769509
342.000000,0.01074180721
343.000000,0.01166737932
344.000000,0.008135643163
345.000000,0.01144554686
346.000000,0.00682303574
347.000000,0.008932426412
348.000000,0.01233843985
349.000000,0.01182968701
350.000000,0.006421892788
351.000000,0.01130536185
352.000000,0.009267533063
353.000000,0.008573911755
354.000000,0.01053928257
355.000000,0.0103888199
356.000000,0.01292028124
357.000000,0.007248324744
358.000000,0.009276168128
359.000000,0.009848480573
360.000000,0.006452964779
361.000000,0.01248107814
362.000000,0.01364773035
363.000000,0.008885993586
364.000000,0.01090002094
365.000000,0.009599389339
366.000000,0.01067909828
367.000000,0.008787947524
368.000000,0.0118028109
369.000000,0.007809197518
370.000000,0.01286791588
371.000000,0.01085458789
372.000000,0.0149920769
373.000000,0.006840721898
374.000000,0.009953053764
375.000000,0.007573747197
376.000000,0.009865762838
377.000000,0.01101661088
378.000000,0.008308133014
379.000000,0.007277793883
380.000000,0.006681207275
381.000000,0.01059125171
382.000000,0.01270373847
383.000000,0.01249494037
384.000000,0.01021951092
385.000000,0.008229509126
386.000000,0.009427090853
387.000000,0.007138756913
388.000000,0.007002708349
389.000000,0.01228816154
390.000000,0.009600855851
391.000000,0.01078692669
392.000000,0.009611932056
393.000000,0.01280969365
394.000000,0.01303582329
395.000000,0.008609385873
396.000000,0.009430453165
397.000000,0.00881315281
398.000000,0.01280007225
399.000000,0.01265872483
400.000000,0.009585927572
401.000000,0.0147662814
402.000000,0.01022131463
403.000000,0.007737647029
404.000000,0.006103890565
405.000000,0.00988408063
406.000000,0.01081527146
407.000000,0.009000487293
408.000000,0.01090096065
409.000000,0.01256602685
410.000000,0.01005731114
411.000000,0.01186386029
412.000000,0.01350834933
413.000000,0.01117577167
414.000000,0.009020355637
415.000000,0.01104627093
416.000000,0.01125722746
417.000000,0.01445994849
418.000000,0.009317117015
419.000000,0.007086715729
420.000000,0.01078632874
421.000000,0.01084157116
422.000000,0.009359898878
423.000000,0.01132200262
424.000000,0.01083030234
425.000000,0.01261719725
426.000000,0.008526299393
427.000000,0.008792979967
428.000000,0.01015412478
429.000000,0.009185074787
430.000000,0.01274423388
431.000000,0.01136173649
432.000000,0.01016050853
433.000000,0.01326186117
434.000000,0.01121108609
435.000000,0.0122084001
436.000000,0.01182098141
437.000000,0.009917683653
438.000000,0.009933445486
439.000000,0.01023039309
440.000000,0.00803546485
441.000000,0.009529080178
442.000000,0.01192916476
443.000000,0.01084176168
444.000000,0.008336415721
445.000000,0.01495266505
446.000000,0.008167178044
447.000000,0.01147452001
448.000000,0.01168191724
449.000000,0.0127875065
450.000000,0.008516037459
451.000000,0.01028673242
452.000000,0.009857407907
453.000000,0.01253632175
454.000000,0.01102590913
455.000000,0.0111002411
456.000000,0.01135038177
457.000000,0.01420006588
458.000000,0.01163561678
459.000000,0.01205848894
460.000000,0.008442065302
461.000000,0.01170393557
462.000000,0.007827699236
463.000000,0.01222665668
464.000000,0.01064410578
465.000000,0.008588171168
466.000000,0.008070004741
467.000000,0.01018865247
468.000000,0.01062874176
469.000000,0.009265289632
470.000000,0.009739484601
471.000000,0.009790513436
472.000000,0.009351814513
473.000000,0.01003729874
474.000000,0.01096745364
475.000000,0.01302829788
476.000000,0.01172176451
477.000000,0.009321106611
478.000000,0.0136996696
479.000000,0.01283972024
480.000000,0.009974339534
481.000000,0.01253046461
482.000000,0.00943833146
483.000000,0.009005009097
484.000000,0.009078770951
485.000000,0.01376716002
486.000000,0.01081729212
487.000000,0.01117883979
488.000000,0.01068977659
489.000000,0.009759517487
490.000000,0.01154279408
491.000000,0.01193804713
492.000000,0.01451472053
493.000000,0.008908513832
494.000000,0.01367538106
495.000000,0.01195656667
496.000000,0.007181015249
497.000000,0.01258702498
498.000000,0.01387486484
499.000000,0.01284121816
500.000000,0.01115308103
501.000000,0.01099043296
502.000000,0.006715781632
503.000000,0.01132506179
504.000000,0.01104707788
505.000000,0.008832460564
506.000000,0.01109251421
507.000000,0.009376498503
508.000000,0.01520843366
509.000000,0.008266219308
510.000000,0.008897720915
511.000000,0.006374368815
512.000000,0.009882650499
513.000000,0.01090258641
514.000000,0.01068610703
515.000000,0.009381519596
516.000000,0.01241061936
517.000000,0.01113762693
518.000000,0.01303758945
519.000000,0.01044287363
520.000000,0.007153995983
521.000000,0.01037960154
522.000000,0.008654286188
523.000000,0.01232782238
524.000000,0.0094621913
525.000000,0.0101870802
526.000000,0.01064011409
527.000000,0.00764005995
528.000000,0.00990748184
529.000000,0.01242777852
530.000000,0.009549202003
531.000000,0.0103622809
532.000000,0.01102847419
533.000000,0.009358597053
534.000000,0.01012410086
535.000000,0.01159609876
536.000000,0.009972198294
537.000000,0.01084358955
538.000000,0.01046310833
539.000000,0.008669158188
540.000000,0.008183457079
541.000000,0.01473678803
542.000000,0.01354696277
543.000000,0.01056896807
544.000000,0.01272141658
545.000000,0.01305136891
546.000000,0.01277968313
547.000000,0.010153041
548.000000,0.008037781109
549.000000,0.008403413278
550.000000,0.01046544098
551.000000,0.01365911606
552.000000,0.01410536448
553.000000,0.01053883857
554.000000,0.01037819531
555.000000,0.01347282318
556.000000,0.01521247663
557.000000,0.00928846433
558.000000,0.0121022829
559.000000,0.01148782186
560.000000,0.01059261326
561.000000,0.0106346147
562.000000,0.01064361584
563.000000,0.01133922176
564.000000,0.008318649434
565.000000,0.01142948735
566.000000,0.01305075895
567.000000,0.01303523608
568.000000,0.01316066715
569.000000,0.01229544571
570.000000,0.01208148726
571.000000,0.0156353189
572.000000,0.01146521068
573.000000,0.0122093239
574.000000,0.01444980469
575.000000,0.01211699616
576.000000,0.009543527202
577.000000,0.01111083802
578.000000,0.0114444687
579.000000,0.01209586787
580.000000,0.0116154908
581.000000,0.01460618722
582.000000,0.01416556977
583.000000,0.01386069458
584.000000,0.01224140805
585.000000,0.01524610853
586.000000,0.01535052113
587.000000,0.01793181708
588.000000,0.01256430455
589.000000,0.01378706533
590.000000,0.01700915891
591.000000,0.01237373496
592.000000,0.01535953929
593.000000,0.01560671378
594.000000,0.01565129247
595.000000,0.01407645498
596.000000,0.01650345007
597.000000,0.01398882789
598.000000,0.01991436892
599.000000,0.01724554152
600.000000,0.01929604805
601.000000,0.0198414353
602.000000,0.02127109548
603.000000,0.02233942592
604.000000,0.02434193677
605.000000,0.02444312721
606.000000,0.02722074527
607.000000,0.02735590186
608.000000,0.03041097278
609.000000,0.03441145053
610.000000,0.0385975843
611.000000,0.04356540186
612.000000,0.05231000541
613.000000,0.06417719472
614.000000,0.07591569208
615.000000,0.09001936202
616.000000,0.1114748413
617.000000,0.1356437618
618.000000,0.1659327964
619.000000,0.1786758276
620.000000,0.1908087684
621.000000,0.1792386177
622.000000,0.1631269596
623.000000,0.1345105501
624.000000,0.1117617405
625.000000,0.09128788462
626.000000,0.07652743507
627.000000,0.05718276749
628.000000,0.0513157975
629.000000,0.04651548759
630.000000,0.03802670231
631.000000,0.03725991955
632.000000,0.03500407113
633.000000,0.02704947657
634.000000,0.02636911
635.000000,0.02648118168
636.000000,0.02717459265
637.000000,0.02416910512
638.000000,0.02241463889
639.000000,0.01820978875
640.000000,0.01911751768
641.000000,0.01854244086
642.000000,0.01641763477
643.000000,0.01785199985
644.000000,0.01588935496
645.000000,0.01516842029
646.000000,0.01986229603
647.000000,0.01493505776
648.000000,0.01865566083
649.000000,0.0138724525
650.000000,0.01421547201
651.000000,0.01164505532
652.000000,0.01275128838
653.000000,0.01683995467
654.000000,0.01353219239
655.000000,0.009358420513
656.000000,0.01599666488
657.000000,0.01124752016
658.000000,0.0120447698
659.000000,0.01267517865
660.000000,0.008900165178
661.000000,0.0156040988
662.000000,0.01499381926
663.000000,0.01168504553
664.000000,0.01296364359
665.000000,0.01160778546
666.000000,0.01092032727
667.000000,0.01157211136
668.000000,0.009105278294
669.000000,0.01110520498
670.000000,0.01074365556
671.000000,0.0156128646
672.000000,0.008843245189
673.000000,0.01422912395
674.000000,0.01309387658
675.000000,0.01192663773
676.000000,0.01039776363
677.000000,0.01515677736
678.000000,0.01442874345
679.000000,0.01141124756
680.000000,0.01107527469
681.000000,0.01181720908
682.000000,0.01505048368
683.000000,0.009583725731
684.000000,0.01153647216
685.000000,0.01361336256
686.000000,0.008565433759
687.000000,0.01115000568
688.000000,0.01351557219
689.000000,0.01041060309
690.000000,0.01104395009
691.000000,0.008173378906
692.000000,0.0119982389
693.000000,0.008883243396
694.000000,0.01044279866
695.000000,0.01188102557
696.000000,0.01008742448
697.000000,0.01292387624
698.000000,0.01260905062
699.000000,0.01214370519
700.000000,0.01313067367
701.000000,0.01084311174
702.000000,0.006871856298
703.000000,0.01287926702
704.000000,0.01270281326
705.000000,0.01021558207
706.000000,0.009488976196
707.000000,0.0134610702
708.000000,0.01021552826
709.000000,0.01039160727
710.000000,0.01026848412
711.000000,0.01580924068
712.000000,0.009725283268
713.000000,0.005993010853
714.000000,0.01090500669
715.000000,0.009039624109
716.000000,0.007598208066
717.000000,0.0113072877
718.000000,0.009980065147
719.000000,0.01278197124
720.000000,0.0103710272
721.000000,0.01339100289
722.000000,0.01299838266
723.000000,0.01110621554
724.000000,0.0125974582
725.000000,0.01467139414
726.000000,0.01245949595
727.000000,0.008264736162
728.000000,0.01128289254
729.000000,0.011554357
730.000000,0.01364633643
731.000000,0.01093393894
732.000000,0.01344962735
733.000000,0.01098596411
734.000000,0.01132013808
735.000000,0.01082429219
736.000000,0.01134039388
737.000000,0.01105957773
738.000000,0.01205219628
739.000000,0.009897042014
740.000000,0.009372476942
741.000000,0.01130848654
742.000000,0.01181335269
743.000000,0.01076037333
744.000000,0.01240175342
745.000000,0.01231423113
746.000000,0.01504783155
747.000000,0.00886576224
748.000000,0.01574182253
749.000000,0.007228673502
750.000000,0.008417981096
751.000000,0.01250923496
752.000000,0.01016063791
753.000000,0.01152483913
754.000000,0.01132324704
755.000000,0.009701669107
756.000000,0.009683792999
757.000000,0.01174397317
758.000000,0.01333827297
759.000000,0.01395993789
760.000000,0.0132539032
761.000000,0.01243375452
762.000000,0.01562419493
763.000000,0.009130252831
764.000000,0.01372404261
765.000000,0.01641933123
766.000000,0.0173594501
767.000000,0.01683778728
768.000000,0.01744381908
769.000000,0.01718146733
770.000000,0.01579371514
771.000000,0.01153701077
772.000000,0.01546308864
773.000000,0.01647735701
774.000000,0.02078515677
775.000000,0.01751482819
776.000000,0.01848350259
777.000000,0.02142682617
778.000000,0.01928181692
779.000000,0.02252857301
780.000000,0.02502824857
781.000000,0.02501721832
782.000000,0.02758416557
783.000000,0.02662174943
784.000000,0.03061041986
785.000000,0.0361129671
786.000000,0.04318002749
787.000000,0.04500421536
788.000000,0.05066120119
789.000000,0.058549099
790.000000,0.07045900454
791.000000,0.07653540724
792.000000,0.09046940847
793.000000,0.09942004353
794.000000,0.1075772904
795.000000,0.1086618493
796.000000,0.1076229111
797.000000,0.1028518071
798.000000,0.08958851969
799.000000,0.07841286811
800.000000,0.06408169277
801.000000,0.06111191075
802.000000,0.05124447758
803.000000,0.04693643532
804.000000,0.04116884788
805.000000,0.03508206541
806.000000,0.0318379863
807.000000,0.02752203868
808.000000,0.03172121852
809.000000,0.02757616265
810.000000,0.02566560421
811.000000,0.02493800651
812.000000,0.02408083991
813.000000,0.02196437575
814.000000,0.02137519643
815.000000,0.0234655542
816.000000,0.01443602672
817.000000,0.01762986718
818.000000,0.01546152388
819.000000,0.01633735507
820.000000,0.010785427
821.000000,0.01326929255
822.000000,0.01669134392
823.000000,0.01227131751
824.000000,0.01559552416
825.000000,0.01259743356
826.000000,0.01368558992
827.000000,0.01080351202
828.000000,0.01239998566
829.000000,0.01045367893
830.000000,0.01439351098
831.000000,0.00969366649
832.000000,0.01368428296
833.000000,0.01182903703
834.000000,0.01247747671
835.000000,0.01556644173
836.000000,0.01211788854
837.000000,0.01127479013
838.000000,0.01249790957
839.000000,0.01379470692
840.000000,0.01125137095
841.000000,0.01566786058
842.000000,0.0125737481
843.000000,0.01146233018
844.000000,0.01082518862
845.000000,0.01178327793
846.000000,0.01316532899
847.000000,0.01410931238
848.000000,0.01212484249
849.000000,0.01077137486
850.000000,0.01182145019
851.000000,0.00769036416
852.000000,0.01407477516
853.000000,0.01348846536
854.000000,0.01142703421
855.000000,0.01319581603
856.000000,0.009828068072
857.000000,0.01538958775
858.000000,0.0115596795
859.000000,0.01098941238
860.000000,0.01607514134
861.000000,0.01009641773
862.000000,0.01288285817
863.000000,0.01040483687
864.000000,0.01101518351
865.000000,0.01153727362
866.000000,0.01095201828
867.000000,0.01501598099
868.000000,0.01428745071
869.000000,0.0109730787
870.000000,0.01685116931
871.000000,0.01201125213
872.000000,0.01173678712
873.000000,0.01288530863
874.000000,0.01002553022
875.000000,0.01474962605
876.000000,0.01025307365
877.000000,0.009550228728
878.000000,0.01414784108
879.000000,0.0101924056
880.000000,0.01149689716
881.000000,0.009575941681
882.000000,0.01107982409
883.000000,0.01214911038
884.000000,0.007156107892
885.000000,0.01176157727
886.000000,0.01029260599
887.000000,0.01466922191
888.000000,0.015906047
889.000000,0.01292259714
890.000000,0.01304890053
891.000000,0.01397109093
892.000000,0.01398698797
893.000000,0.009021452003
894.000000,0.00924234296
895.000000,0.01087727373
896.000000,0.009077914419
897.000000,0.01117042081
898.000000,0.01203652251
899.000000,0.01024223379
900.000000,0.01276198662
901.000000,0.01470559353
902.000000,0.01195329719
903.000000,0.01272600526
904.000000,0.01181067392
905.000000,0.01173383176
906.000000,0.01088701242
907.000000,0.009694119721
908.000000,0.01305715468
909.000000,0.01411369719
910.000000,0.01189007882
911.000000,0.0122011127
912.000000,0.009302721692
913.000000,0.01156773353
914.000000,0.01266513161
915.000000,0.01189670808
916.000000,0.01222935586
917.000000,0.01015578866
918.000000,0.009654974769
919.000000,0.01170858768
920.000000,0.01518158125
921.000000,0.0115156617
922.000000,0.009348053581
923.000000,0.01104700372
924.000000,0.01197878351
925.000000,0.01482573186
926.000000,0.01461371815
927.000000,0.01094535286
928.000000,0.01058796924
929.000000,0.0121244166
930.000000,0.01266389044
931.000000,0.01076850385
932.000000,0.014695553
933.000000,0.01199178082
934.000000,0.0134174276
935.000000,0.01260113436
936.000000,0.0140701104
937.000000,0.0129038744
938.000000,0.01369830342
939.000000,0.01572144726
940.000000,0.01384004191
941.000000,0.01632166871
942.000000,0.01106886012
943.000000,0.01327746544
944.000000,0.01171021208
945.000000,0.01107261875
946.000000,0.01390908432
947.000000,0.01786623493
948.000000,0.0147227316
949.000000,0.01635884695
950.000000,0.01075542222
951.000000,0.01513588535
952.000000,0.01257458145
953.000000,0.01545729098
954.000000,0.01721803658
955.000000,0.01443366025
956.000000,0.01772387835
957.000000,0.01425512977
958.000000,0.01623890882
959.000000,0.01503274268
960.000000,0.01670864765
961.000000,0.01651775886
962.000000,0.01281009724
963.000000,0.0167603695
964.000000,0.01685134131
965.000000,0.02154648863
966.000000,0.01372912142
967.000000,0.01927385508
968.000000,0.02123910587
969.000000,0.02392580322
970.000000,0.02335812789
971.000000,0.02136778413
972.000000,0.02504982234
973.000000,0.02275390873
974.000000,0.02353644903
975.000000,0.02423046599
976.000000,0.02527817786
977.000000,0.03027597158
978.000000,0.02544009538
979.000000,0.02721179081
980.000000,0.0339505022
981.000000,0.03507743889
982.000000,0.03824376598
983.000000,0.038838267
984.000000,0.04391072566
985.000000,0.0459811674
986.000000,0.05005029054
987.000000,0.05574114972
988.000000,0.0636518161
989.000000,0.0719043313
990.000000,0.08153332656
991.000000,0.09892524856
992.000000,0.1142763683
993.000000,0.1361691891
994.000000,0.1663369572
995.000000,0.2138095353
996.000000,0.275669861
997.000000,0.3726612544
998.000000,0.5124144429
999.000000,0.7055218518
1000.000000,0.9156273797
1001.000000,1.009216468
1002.000000,0.9188615803
1003.000000,0.7095675917
1004.000000,0.5159910564
1005.000000,0.3761682911
1006.000000,0.2841113395
1007.000000,0.218421438
1008.000000,0.1780125334
1009.000000,0.1432641107
1010.000000,0.1194128519
1011.000000,0.1021301973
1012.000000,0.09272338167
1013.000000,0.08607044757
1014.000000,0.07513504899
1015.000000,0.07550157777
1016.000000,0.07172362739
1017.000000,0.06796702665
1018.000000,0.07105218936
1019.000000,0.06643067205
1020.000000,0.06854140178
1021.000000,0.07832631301
1022.000000,0.08594965115
1023.000000,0.09642407711
1024.000000,0.1106002652
1025.000000,0.1290691229
1026.000000,0.1633696238
1027.000000,0.2045236095
1028.000000,0.2660274601
1029.000000,0.3383740689
1030.000000,0.4065783845
1031.000000,0.4411055098
1032.000000,0.4091819073
1033.000000,0.3369205034
1034.000000,0.2589342085
1035.000000,0.1978116437
1036.000000,0.1570288736
1037.000000,0.123452586
1038.000000,0.1003482009
1039.000000,0.08571421067
1040.000000,0.07321629778
1041.000000,0.06251106872
1042.000000,0.05358693073
1043.000000,0.0510843597
1044.000000,0.04126962309
1045.000000,0.03943596371
1046.000000,0.03687198154
1047.000000,0.03079912511
1048.000000,0.02984172383
1049.000000,0.03107883881
1050.000000,0.0275077805
1051.000000,0.02412201014
1052.000000,0.02829277179
1053.000000,0.02424497681
1054.000000,0.02310833664
1055.000000,0.02568227074
1056.000000,0.01832782517
1057.000000,0.01950584176
1058.000000,0.01812379414
1059.000000,0.02202527397
1060.000000,0.01725423967
1061.000000,0.02312274615
1062.000000,0.01895603669
1063.000000,0.0182285319
1064.000000,0.01921689186
1065.000000,0.01650821174
1066.000000,0.01483128846
1067.000000,0.01515523353
1068.000000,0.01615966248
1069.000000,0.01391671847
1070.000000,0.01591758369
1071.000000,0.01417758914
1072.000000,0.01484074931
1073.000000,0.01493117155
1074.000000,0.01809632218
1075.000000,0.01939374226
1076.000000,0.0184349598
1077.000000,0.01438775708
1078.000000,0.01323863991
1079.000000,0.01666246208
1080.000000,0.01714129007
1081.000000,0.01629713687
1082.000000,0.01317817848
1083.000000,0.0149172109
1084.000000,0.01370033561
1085.000000,0.01624151141
1086.000000,0.01597057508
1087.000000,0.01450801912
1088.000000,0.01319224237
1089.000000,0.01747188356
1090.000000,0.01432528068
1091.000000,0.01556142257
1092.000000,0.01499819447
1093.000000,0.01543706525
1094.000000,0.01618578585
1095.000000,0.0131397841
1096.000000,0.0129271022
1097.000000,0.01502860376
1098.000000,0.007375284207
1099.000000,0.01365570668
1100.000000,0.01283497761
1101.000000,0.01524837529
1102.000000,0.01448395547
1103.000000,0.01343453108
1104.000000,0.01150560411
1105.000000,0.01350392131
1106.000000,0.0132404254
1107.000000,0.01404073121
1108.000000,0.01438049118
1109.000000,0.01257005049
1110.000000,0.01507573181
1111.000000,0.01302149998
1112.000000,0.01496707612
1113.000000,0.01477334942
1114.000000,0.0167909652
1115.000000,0.01434971471
1116.000000,0.0176624449
1117.000000,0.01385884181
1118.000000,0.01294149116
1119.000000,0.01610139016
1120.000000,0.01248793605
1121.000000,0.01584962694
1122.000000,0.0160588954
1123.000000,0.01585034715
1124.000000,0.01650468124
1125.000000,0.01633404702
1126.000000,0.01874552269
1127.000000,0.01624430525
1128.000000,0.01291810648
1129.000000,0.01644836684
1130.000000,0.01924747463
1131.000000,0.0200141034
1132.000000,0.01990975009
1133.000000,0.01919821956
1134.000000,0.01794765506
1135.000000,0.02365026212
1136.000000,0.02023760212
1137.000000,0.02019840422
1138.000000,0.01869552008
1139.000000,0.02867428801
1140.000000,0.0264423056
1141.000000,0.02465226242
1142.000000,0.03231520774
1143.000000,0.03463898922
1144.000000,0.03329829214
1145.000000,0.04229171992
1146.000000,0.04586674217
1147.000000,0.0535672937
1148.000000,0.06301004174
1149.000000,0.06962692871
1150.000000,0.08754134558
1151.000000,0.09847673489
1152.000000,0.1152110102
1153.000000,0.1366550603
1154.000000,0.1470552411
1155.000000,0.1532640192
1156.000000,0.1504199331
1157.000000,0.1333141767
1158.000000,0.1148847719
1159.000000,0.1008428847
1160.000000,0.08520093089
1161.000000,0.07184344834
1162.000000,0.06519840609
1163.000000,0.05347741025
1164.000000,0.05160652115
1165.000000,0.04361605411
1166.000000,0.0434438418
1167.000000,0.0377326123
1168.000000,0.03987431344
1169.000000,0.03756929657
1170.000000,0.0365908826
1171.000000,0.03796088559
1172.000000,0.03862234366
1173.000000,0.04242076939
1174.000000,0.04226861367
1175.000000,0.04844450808
1176.000000,0.05246808277
1177.000000,0.05932376567
1178.000000,0.06946850307
1179.000000,0.08110367491
1180.000000,0.09954010601
1181.000000,0.1157981919
1182.000000,0.1301072092
1183.000000,0.131525591
1184.000000,0.1278902907
1185.000000,0.1173381586
1186.000000,0.09940554415
1187.000000,0.08050253126
1188.000000,0.06723637993
1189.000000,0.05692504974
1190.000000,0.05038539286
1191.000000,0.04480182665
1192.000000,0.03750804482
1193.000000,0.03351178164
1194.000000,0.02985965478
1195.000000,0.02804586011
1196.000000,0.02885144162
1197.000000,0.02233730918
1198.000000,0.02350747887
1199.000000,0.01875963675
1200.000000,0.01786445601
1201.000000,0.01581507602
1202.000000,0.01717881221
1203.000000,0.0206334804
1204.000000,0.02036623462
1205.000000,0.0182050714
1206.000000,0.01610946138
1207.000000,0.01787634866
1208.000000,0.01331975514
1209.000000,0.01227217061
1210.000000,0.0130486244
1211.000000,0.01409092586
1212.000000,0.01064776876
1213.000000,0.01246852476
1214.000000,0.01718342568
1215.000000,0.01325215356
1216.000000,0.01268839425
1217.000000,0.01203186642
1218.000000,0.01457769767
1219.000000,0.01432079545
1220.000000,0.01306899874
1221.000000,0.01244228826
1222.000000,0.008413744547
1223.000000,0.009628129849
1224.000000,0.01162746916
1225.000000,0.01121646467
1226.000000,0.01162997384
1227.000000,0.01122635394
1228.000000,0.01561606946
1229.000000,0.01425143946
1230.000000,0.009774444371
1231.000000,0.01336208644
1232.000000,0.01258686089
1233.000000,0.01168936708
1234.000000,0.01121060298
1235.000000,0.0123716638
1236.000000,0.01529004721
1237.000000,0.01051064014
1238.000000,0.01120605496
1239.000000,0.01126483558
1240.000000,0.008125541796
1241.000000,0.01144540864
1242.000000,0.009770483834
1243.000000,0.0118916574
1244.000000,0.01214888743
1245.000000,0.01489548446
1246.000000,0.0108845165
1247.000000,0.01074944196
1248.000000,0.01273111002
1249.000000,0.01519393228
1250.000000,0.01161722566
1251.000000,0.01222423244
1252.000000,0.01236843132
1253.000000,0.01221480172
1254.000000,0.0102095771
1255.000000,0.00967439146
1256.000000,0.00984242392
1257.000000,0.01043759715
1258.000000,0.01175685696
1259.000000,0.009435948908
1260.000000,0.009605132238
1261.000000,0.01111228096
1262.000000,0.01082952982
1263.000000,0.01126802938
1264.000000,0.00861108351
1265.000000,0.01476099456
1266.000000,0.01062040231
1267.000000,0.01053942933
1268.000000,0.009339813636
1269.000000,0.01188867779
1270.000000,0.01298187728
1271.000000,0.01091551485
1272.000000,0.01075762816
1273.000000,0.01046352926
1274.000000,0.01531341829
1275.000000,0.01208311527
1276.000000,0.01011663666
1277.000000,0.01125473254
1278.000000,0.01300583583
1279.000000,0.01125434223
1280.000000,0.01154116341
1281.000000,0.01129090587
1282.000000,0.01058581234
1283.000000,0.01204644998
1284.000000,0.01412564629
1285.000000,0.01188747084
1286.000000,0.0103790553
1287.000000,0.009345443263
1288.000000,0.01081806225
1289.000000,0.0098898073
1290.000000,0.009301067211
1291.000000,0.01221330817
1292.000000,0.01156495985
1293.000000,0.01307770533
1294.000000,0.01191143575
1295.000000,0.01022790932
1296.000000,0.01280712306
1297.000000,0.01177772629
1298.000000,0.0137176525
1299.000000,0.009099815307
1300.000000,0.01033662552
1301.000000,0.01116021481
1302.000000,0.01406005145
1303.000000,0.01194516969
1304.000000,0.008829466164
1305.000000,0.009291666107
1306.000000,0.01210122749
1307.000000,0.008056985568
1308.000000,0.009738603271
1309.000000,0.01079744238
1310.000000,0.01037480439
1311.000000,0.01162191112
1312.000000,0.01261264974
1313.000000,0.0115845771
1314.000000,0.008597514403
1315.000000,0.01360830684
1316.000000,0.01309094323
1317.000000,0.009494940641
1318.000000,0.01043147978
1319.000000,0.008512640185
1320.000000,0.01379553134
1321.000000,0.01020229835
1322.000000,0.01193011055
1323.000000,0.01206485077
1324.000000,0.01359546931
1325.000000,0.01137696802
1326.000000,0.01049874135
1327.000000,0.01234577798
1328.000000,0.01307544251
1329.000000,0.01019017898
1330.000000,0.01107276445
1331.000000,0.008306123021
1332.000000,0.01395073201
1333.000000,0.009988612878
1334.000000,0.01316037281
1335.000000,0.01296022884
1336.000000,0.01279109325
1337.000000,0.01314271051
1338.000000,0.009823923015
1339.000000,0.01176566224
1340.000000,0.0100278691
1341.000000,0.01114522464
1342.000000,0.00999144554
1343.000000,0.01601837178
1344.000000,0.01191825509
1345.000000,0.01342650574
1346.000000,0.01026993764
1347.000000,0.01501476115
1348.000000,0.0114247702
1349.000000,0.01129702828
1350.000000,0.01110925109
1351.000000,0.008711255812
1352.000000,0.007820481929
1353.000000,0.01213009592
1354.000000,0.009703642048
1355.000000,0.01131628076
1356.000000,0.0156565051
1357.000000,0.01124699715
1358.000000,0.01576532939
1359.000000,0.0124914707
1360.000000,0.009787117864
1361.000000,0.01305710327
1362.000000,0.0141058329
1363.000000,0.0135060798
1364.000000,0.01069285396
1365.000000,0.00997235731
1366.000000,0.01375700228
1367.000000,0.01576124679
1368.000000,0.01555752079
1369.000000,0.01151927106
1370.000000,0.01181333208
1371.000000,0.01283998433
1372.000000,0.01449075932
1373.000000,0.01327465892
1374.000000,0.01331295368
1375.000000,0.01254188972
1376.000000,0.007489473146
1377.000000,0.01027688046
1378.000000,0.01300267682
1379.000000,0.009758016444
1380.000000,0.01680710334
1381.000000,0.0113488923
1382.000000,0.01427823237
1383.000000,0.01486497583
1384.000000,0.01534295602
1385.000000,0.01095799579
1386.000000,0.01292368369
1387.000000,0.01633979663
1388.000000,0.01360252532
1389.000000,0.01515447923
1390.000000,0.008900335535
1391.000000,0.01450662939
1392.000000,0.01415145096
1393.000000,0.01370464684
1394.000000,0.01060983915
1395.000000,0.01274730949
1396.000000,0.0137866234
1397.000000,0.01370783935
1398.000000,0.0124406861
1399.000000,0.01687052468
1400.000000,0.01676196755
1401.000000,0.014398191
1402.000000,0.01812314116
1403.000000,0.01315903288
1404.000000,0.016279922
1405.000000,0.01909356018
1406.000000,0.01726992942
1407.000000,0.01610538364
1408.000000,0.01764080559
1409.000000,0.0167358088
1410.000000,0.01620323901
1411.000000,0.01607196004
1412.000000,0.0179792696
1413.000000,0.01804472823
1414.000000,0.01936417169
1415.000000,0.01755732501
1416.000000,0.02020690311
1417.000000,0.02205251636
1418.000000,0.01958244963
1419.000000,0.02450106563
1420.000000,0.02063688051
1421.000000,0.02138946316
1422.000000,0.02244448367
1423.000000,0.0221594512
1424.000000,0.02251153033
1425.000000,0.02438005194
1426.000000,0.02743042206
1427.000000,0.02772147531
1428.000000,0.03378835527
1429.000000,0.03227864308
1430.000000,0.03386284931
1431.000000,0.03585004642
1432.000000,0.04047538192
1433.000000,0.04277265288
1434.000000,0.04669175751
1435.000000,0.05168933836
1436.000000,0.05773958288
1437.000000,0.05847085589
1438.000000,0.0680015018
1439.000000,0.07431428301
1440.000000,0.08367482061
1441.000000,0.09262912162
1442.000000,0.1074536532
1443.000000,0.1220492072
1444.000000,0.1384021983
1445.000000,0.1550550947
1446.000000,0.1780846942
1447.000000,0.1949054509
1448.000000,0.2113474511
1449.000000,0.228066008
1450.000000,0.2306763636
1451.000000,0.2234568468
1452.000000,0.2129768675
1453.000000,0.1968398771
1454.000000,0.1786697291
1455.000000,0.1562020697
1456.000000,0.1362253562
1457.000000,0.1189440314
1458.000000,0.1037819727
1459.000000,0.09368937951
1460.000000,0.08185471779
1461.000000,0.07563389939
1462.000000,0.06551814094
1463.000000,0.06254369296
1464.000000,0.05463651043
1465.000000,0.05047664086
1466.000000,0.04621296354
1467.000000,0.0427146265
1468.000000,0.04312741521
1469.000000,0.03605321032
1470.000000,0.03416273502
1471.000000,0.03269564248
1472.000000,0.03266496296
1473.000000,0.02793275412
1474.000000,0.03123656182
1475.000000,0.02535826225
1476.000000,0.02503218881
1477.000000,0.02529606904
1478.000000,0.02452050959
1479.000000,0.02161576918
1480.000000,0.02436202975
1481.000000,0.02552795951
1482.000000,0.02135116623
1483.000000,0.02229585441
1484.000000,0.02176596603
1485.000000,0.02486539586
1486.000000,0.01990929333
1487.000000,0.01997343494
1488.000000,0.01824768248
1489.000000,0.01913296532
1490.000000,0.01764644676
1491.000000,0.01719069709
1492.000000,0.0171650513
1493.000000,0.01911975467
1494.000000,0.01654253272
1495.000000,0.01858832131
1496.000000,0.01648187994
1497.000000,0.01884656164
1498.000000,0.01411809845
1499.000000,0.01410248419
1500.000000,0.01730910162
1501.000000,0.01888117253
1502.000000,0.0149927802
1503.000000,0.01175661707
1504.000000,0.01781775561
1505.000000,0.01651364101
1506.000000,0.01410311205
1507.000000,0.01813872402
1508.000000,0.01798568015
1509.000000,0.01415236192
1510.000000,0.01452785674
1511.000000,0.01651006409
1512.000000,0.01648060118
1513.000000,0.01778601453
1514.000000,0.01608723168
1515.000000,0.01889151754
1516.000000,0.0143547308
1517.000000,0.01333357397
1518.000000,0.01385743637
1519.000000,0.01356952642
1520.000000,0.0147893406
1521.000000,0.01345246768
1522.000000,0.01659305996
1523.000000,0.01737984484
1524.000000,0.01825370741
1525.000000,0.01417397611
1526.000000,0.01273476475
1527.000000,0.01447059001
1528.000000,0.01536353876
1529.000000,0.01440756611
1530.000000,0.01629099107
1531.000000,0.01641729265
1532.000000,0.01620449453
1533.000000,0.01395457473
1534.000000,0.01733410758
1535.000000,0.0141536463
1536.000000,0.01123241902
1537.000000,0.01566994732
1538.000000,0.01834236107
1539.000000,0.01615572929
1540.000000,0.01320727883
1541.000000,0.01577214558
1542.000000,0.01883349674
1543.000000,0.0171211492
1544.000000,0.01678355781
1545.000000,0.0149087151
1546.000000,0.01737431723
1547.000000,0.01648326975
1548.000000,0.0209394575
1549.000000,0.01901553458
1550.000000,0.02035962034
1551.000000,0.01610361654
1552.000000,0.01960302299
1553.000000,0.02166169931
1554.000000,0.02388407144
1555.000000,0.02369353086
1556.000000,0.02030278964
1557.000000,0.02807405033
1558.000000,0.02298330919
1559.000000,0.02358742505
1560.000000,0.0245047086
1561.000000,0.02403377869
1562.000000,0.02669063268
1563.000000,0.02737976819
1564.000000,0.02930459246
1565.000000,0.03058259245
1566.000000,0.03337648678
1567.000000,0.03748072577
1568.000000,0.03748983033
1569.000000,0.03969448422
1570.000000,0.04672985853
1571.000000,0.04998664308
1572.000000,0.0566960296
1573.000000,0.06011766628
1574.000000,0.06963898733
1575.000000,0.07818683185
1576.000000,0.08961927248
1577.000000,0.1067298422
1578.000000,0.1267315805
1579.000000,0.1509327929
1580.000000,0.1748139297
1581.000000,0.2057256927
1582.000000,0.2283569543
1583.000000,0.2370945205
1584.000000,0.2308188527
1585.000000,0.2134633656
1586.000000,0.1955352505
1587.000000,0.1716756404
1588.000000,0.1593818044
1589.000000,0.1422032607
1590.000000,0.1359857955
1591.000000,0.1395110254
1592.000000,0.1403671445
1593.000000,0.1542642053
1594.000000,0.1674896723
1595.000000,0.1912962451
1596.000000,0.2272156194
1597.000000,0.2767317037
1598.000000,0.3416806203
1599.000000,0.4243263699
1600.000000,0.5213785201
1601.000000,0.6094984096
1602.000000,0.6415726911
1603.000000,0.6035911547
1604.000000,0.5151139
1605.000000,0.4229658068
1606.000000,0.3320263241
1607.000000,0.2614347034
1608.000000,0.2080545439
1609.000000,0.1710285641
1610.000000,0.1378002276
1611.000000,0.1182418863
1612.000000,0.1033288144
1613.000000,0.08850474786
1614.000000,0.07517356142
1615.000000,0.06857388493
1616.000000,0.06122231982
1617.000000,0.05835707405
1618.000000,0.05239776783
1619.000000,0.04697827415
1620.000000,0.0473234368
1621.000000,0.03918562545
1622.000000,0.0397561715
1623.000000,0.03614180968
1624.000000,0.03305933656
1625.000000,0.03051938907
1626.000000,0.03090712238
1627.000000,0.03140935605
1628.000000,0.0241547184
1629.000000,0.02633443439
1630.000000,0.02689693904
1631.000000,0.02269699629
1632.000000,0.02199028774
1633.000000,0.02533903566
1634.000000,0.02147523196
1635.000000,0.02056309678
1636.000000,0.02154479199
1637.000000,0.02076068422
1638.000000,0.02080921753
1639.000000,0.02036116166
1640.000000,0.0216114708
1641.000000,0.01919173067
1642.000000,0.01983590871
1643.000000,0.01625010176
1644.000000,0.01787637759
1645.000000,0.01613619963
1646.000000,0.01962528682
1647.000000,0.01720466207
1648.000000,0.0186654374
1649.000000,0.01572494257
1650.000000,0.01415292811
1651.000000,0.01718172337
1652.000000,0.0152115473
1653.000000,0.01250498987
1654.000000,0.01456154122
1655.000000,0.01348486075
1656.000000,0.01748448204
1657.000000,0.01450706067
1658.000000,0.01585938769
1659.000000,0.01539644827
1660.000000,0.01660847339
1661.000000,0.01505681478
1662.000000,0.01503914445
1663.000000,0.01473543592
1664.000000,0.01127688264
1665.000000,0.01372719579
1666.000000,0.0112772731
1667.000000,0.01120146513
1668.000000,0.01347174042
1669.000000,0.009844360419
1670.000000,0.01262776608
1671.000000,0.01482002033
1672.000000,0.0126998077
1673.000000,0.01414135692
1674.000000,0.01058834822
1675.000000,0.01243032359
1676.000000,0.007408212341
1677.000000,0.01017160867
1678.000000,0.01089944027
1679.000000,0.01550276614
1680.000000,0.01588559319
1681.000000,0.008323999199
1682.000000,0.01118535673
1683.000000,0.01049827585
1684.000000,0.01493847976
1685.000000,0.01349764238
1686.000000,0.01114042789
1687.000000,0.01332778387
1688.000000,0.01403115398
1689.000000,0.01046083352
1690.000000,0.01357914347
1691.000000,0.012751678
1692.000000,0.01310382106
1693.000000,0.008370846459
1694.000000,0.01144601548
1695.000000,0.007008428345
1696.000000,0.01213692041
1697.000000,0.009991111985
1698.000000,0.01406484927
1699.000000,0.01423466552
1700.000000,0.008182601058
1701.000000,0.01440479487
1702.000000,0.01055761416
1703.000000,0.01329736881
1704.000000,0.01167516868
1705.000000,0.01070110828
1706.000000,0.01087580589
1707.000000,0.01039887773
1708.000000,0.01407318821
1709.000000,0.01145543463
1710.000000,0.00932201016
1711.000000,0.01252612614
1712.000000,0.01029408139
1713.000000,0.01220843601
1714.000000,0.009680842483
1715.000000,0.01183536438
1716.000000,0.009348392485
1717.000000,0.009585036126
1718.000000,0.01173159023
1719.000000,0.01280015171
1720.000000,0.01141271938
1721.000000,0.01093550486
1722.000000,0.01614321876
1723.000000,0.01084360969
1724.000000,0.006064646573
1725.000000,0.01217138226
1726.000000,0.009919987326
1727.000000,0.00810259301
1728.000000,0.01299965928
1729.000000,0.01260430444
1730.000000,0.01021823092
1731.000000,0.009970595009
1732.000000,0.01090088441
1733.000000,0.01291775005
1734.000000,0.00910057066
1735.000000,0.01351368243
1736.000000,0.01139233766
1737.000000,0.01171257122
1738.000000,0.01392370804
1739.000000,0.01037858889
1740.000000,0.01214427804
1741.000000,0.01097893273
1742.000000,0.005063328326
1743.000000,0.01052886718
1744.000000,0.01089063547
1745.000000,0.01046945279
1746.000000,0.0131565387
1747.000000,0.009762011345
1748.000000,0.01169962223
1749.000000,0.01137280966
1750.000000,0.01155813833
1751.000000,0.007327992516
1752.000000,0.009756557337
1753.000000,0.009694724259
1754.000000,0.01373107759
1755.000000,0.009921432077
1756.000000,0.01179388552
1757.000000,0.0110466592
1758.000000,0.007828486234
1759.000000,0.008326201001
1760.000000,0.01102122934
1761.000000,0.01192245187
1762.000000,0.0135701701
1763.000000,0.009964550192
1764.000000,0.007963358516
1765.000000,0.01030707763
1766.000000,0.007755284433
1767.000000,0.01307308203
1768.000000,0.009761054173
1769.000000,0.01029628796
1770.000000,0.01400679746
1771.000000,0.01119457445
1772.000000,0.007852133166
1773.000000,0.01122432878
1774.000000,0.009045150494
1775.000000,0.00788303335
1776.000000,0.008664363267
1777.000000,0.00753764037
1778.000000,0.01130306336
1779.000000,0.008593064518
1780.000000,0.009471063681
1781.000000,0.01227751314
1782.000000,0.009866318775
1783.000000,0.009320067045
1784.000000,0.01051519853
1785.000000,0.009143776771
1786.000000,0.01039877365
1787.000000,0.009859794535
1788.000000,0.01197399589
1789.000000,0.009573499288
1790.000000,0.008553107225
1791.000000,0.009504489761
1792.000000,0.006046494187
1793.000000,0.009947406446
1794.000000,0.01181170971
1795.000000,0.01405358679
1796.000000,0.01098443662
1797.000000,0.012704085
1798.000000,0.00664926794
1799.000000,0.012897275
1800.000000,0.01112784931
1801.000000,0.01262435578
1802.000000,0.00929607998
1803.000000,0.01108448956
1804.000000,0.01061776326
1805.000000,0.009420276773
1806.000000,0.01003717724
1807.000000,0.01314294159
1808.000000,0.007276796698
1809.000000,0.009578903933
1810.000000,0.0111412314
1811.000000,0.01294671584
1812.000000,0.00808015351
1813.000000,0.007616836033
1814.000000,0.006278373079
1815.000000,0.01077349136
1816.000000,0.00982163972
1817.000000,0.01010450546
1818.000000,0.00997470725
1819.000000,0.00671959331
1820.000000,0.01226989024
1821.000000,0.0119788058
1822.000000,0.00756911534
1823.000000,0.008753209984
1824.000000,0.0082627577
1825.000000,0.008603402968
1826.000000,0.01370581641
1827.000000,0.01201827778
1828.000000,0.00809154503
1829.000000,0.01409311702
1830.000000,0.01110436368
1831.000000,0.01054412438
1832.000000,0.008630346066
1833.000000,0.008760914125
1834.000000,0.009899837561
1835.000000,0.01583889973
1836.000000,0.008176029766
1837.000000,0.008827496901
1838.000000,0.01195864302
1839.000000,0.01059494259
1840.000000,0.008699981667
1841.000000,0.01554716915
1842.000000,0.009776518222
1843.000000,0.009065062795
1844.000000,0.009847929422
1845.000000,0.01135555183
1846.000000,0.01156244357
1847.000000,0.01216302968
1848.000000,0.01084866027
1849.000000,0.009439583875
1850.000000,0.01306105156
1851.000000,0.009971213548
1852.000000,0.009197931066
1853.000000,0.0117479893
1854.000000,0.01264742968
1855.000000,0.009395222351
1856.000000,0.009366371832
1857.000000,0.009955721053
1858.000000,0.008809995087
1859.000000,0.009556623898
1860.000000,0.01177119985
1861.000000,0.01155235579
1862.000000,0.005525866911
1863.000000,0.01318235326
1864.000000,0.01298401292
1865.000000,0.008120044454
1866.000000,0.01311210406
1867.000000,0.007690013445
1868.000000,0.01312239512
1869.000000,0.00925358836
1870.000000,0.01130418624
1871.000000,0.01074797442
1872.000000,0.01153629641
1873.000000,0.007755341935
1874.000000,0.01333069931
1875.000000,0.01180823807
1876.000000,0.01069272883
1877.000000,0.01279696896
1878.000000,0.01022414096
1879.000000,0.01436409345
1880.000000,0.01308793487
1881.000000,0.0143420946
1882.000000,0.008915275224
1883.000000,0.01081377704
1884.000000,0.006746664015
1885.000000,0.01075436144
1886.000000,0.008825935943
1887.000000,0.008682582045
1888.000000,0.01203401503
1889.000000,0.01006359693
1890.000000,0.01238959821
1891.000000,0.008052210675
1892.000000,0.008674091822
1893.000000,0.01074635966
1894.000000,0.005743388416
1895.000000,0.007967154749
1896.000000,0.009978515169
1897.000000,0.006224390506
1898.000000,0.01079150405
1899.000000,0.007917999335
1900.000000,0.01146882394
1901.000000,0.00853519551
1902.000000,0.01284596488
1903.000000,0.006491695923
1904.000000,0.01228699003
1905.000000,0.006963680928
1906.000000,0.0126671279
1907.000000,0.009838244532
1908.000000,0.006167768196
1909.000000,0.01116863404
1910.000000,0.008857821426
1911.000000,0.009611934276
1912.000000,0.009888876546
1913.000000,0.01162386946
1914.000000,0.009197608124
1915.000000,0.01118762886
1916.000000,0.007977047365
1917.000000,0.008929078656
1918.000000,0.01099672368
1919.000000,0.01254678132
1920.000000,0.0101236847
1921.000000,0.009577669042
1922.000000,0.01097376159
1923.000000,0.01121414014
1924.000000,0.008330705832
1925.000000,0.01601376999
1926.000000,0.009332160355
1927.000000,0.007644876078
1928.000000,0.01011007766
1929.000000,0.01100399162
1930.000000,0.01007222184
1931.000000,0.008950234776
1932.000000,0.01006233009
1933.000000,0.0112095281
1934.000000,0.008887335437
1935.000000,0.008418231609
1936.000000,0.01045725352
1937.000000,0.01044489198
1938.000000,0.007891076825
1939.000000,0.01491568264
1940.000000,0.01210319165
1941.000000,0.01350323646
1942.000000,0.01231084001
1943.000000,0.00732955363
1944.000000,0.01430203653
1945.000000,0.007001610397
1946.000000,0.008324359851
1947.000000,0.01077937586
1948.000000,0.008969241106
1949.000000,0.01162808369
1950.000000,0.01203630164
1951.000000,0.01006283712
1952.000000,0.01366965321
1953.000000,0.007245065181
1954.000000,0.01131463156
1955.000000,0.01177367295
1956.000000,0.0141270999
1957.000000,0.01205907593
1958.000000,0.007122881752
1959.000000,0.01148575956
1960.000000,0.009596986921
1961.000000,0.01061944859
1962.000000,0.01133321453
1963.000000,0.01271392607
1964.000000,0.009441660535
1965.000000,0.01129806109
1966.000000,0.01244480276
1967.000000,0.01205294794
1968.000000,0.0121011123
1969.000000,0.007299145322
1970.000000,0.01121970355
1971.000000,0.01248676382
1972.000000,0.009518809567
1973.000000,0.01118942685
1974.000000,0.009580103209
1975.000000,0.0116756398
1976.000000,0.01094391874
1977.000000,0.008589847934
1978.000000,0.01137889591
1979.000000,0.0112252968
1980.000000,0.00771097821
1981.000000,0.009793485467
1982.000000,0.009601830884
1983.000000,0.007761819935
1984.000000,0.01232868475
1985.000000,0.008814371348
1986.000000,0.01038556741
1987.000000,0.006032036457
1988.000000,0.009864241323
1989.000000,0.007519169343
1990.000000,0.01088710629
1991.000000,0.009579143989
1992.000000,0.01200275692
1993.000000,0.0134292658
1994.000000,0.006629366695
1995.000000,0.01028797162
1996.000000,0.009801779888
1997.000000,0.008972528838
1998.000000,0.008476746976
1999.000000,0.009896192
2000.000000,0.01120849999
