raman_shift_cm-1,intensity
200.000000,0.008883770838
201.000000,0.01133500646
202.000000,0.01215237016
203.000000,0.01213572901
204.000000,0.01370980251
205.000000,0.009303957549
206.000000,0.01116291789
207.000000,0.009342348571
208.000000,0.007225324559
209.000000,0.008667534231
210.000000,0.01034780928
211.000000,0.008245368543
212.000000,0.009693010624
213.000000,0.01231668876
214.000000,0.01121732922
215.000000,0.01122135167
216.000000,0.01076714906
217.000000,0.009726593782
218.000000,0.006341902043
219.000000,0.01206054882
220.000000,0.007064556738
221.000000,0.01051029353
222.000000,0.009861587928
223.000000,0.01035316555
224.000000,0.01058354496
225.000000,0.009411438412
226.000000,0.01188134416
227.000000,0.007509429472
228.000000,0.01166369772
229.000000,0.006696252602
230.000000,0.01245307056
231.000000,0.009062731142
232.000000,0.0108290339
233.000000,0.01309730345
234.000000,0.00575609348
235.000000,0.009452468915
236.000000,0.01122899024
237.000000,0.01188082006
238.000000,0.0127990925
239.000000,0.01129510013
240.000000,0.01111135557
241.000000,0.01029603588
242.000000,0.01061476945
243.000000,0.01022587931
244.000000,0.01206781916
245.000000,0.01040314993
246.000000,0.011422511
247.000000,0.01331733098
248.000000,0.01242571106
249.000000,0.009397381969
250.000000,0.009879070204
251.000000,0.01155586424
252.000000,0.00880190514
253.000000,0.006424971995
254.000000,0.008064239099
255.000000,0.01116472229
256.000000,0.009665590298
257.000000,0.009374188312
258.000000,0.01158245985
259.000000,0.007985235517
260.000000,0.01461795058
261.000000,0.01013532798
262.000000,0.009441208924
263.000000,0.01416386327
264.000000,0.00791216318
265.000000,0.009095955584
266.000000,0.009911951066
267.000000,0.008170591747
268.000000,0.009411266355
269.000000,0.01125706811
270.000000,0.01043091732
271.000000,0.009995428692
272.000000,0.01206932116
273.000000,0.01386629997
274.000000,0.01322043103
275.000000,0.005907121291
276.000000,0.01283627995
277.000000,0.01164597575
278.000000,0.01091086423
279.000000,0.008128877252
280.000000,0.009191677552
281.000000,0.009676661479
282.000000,0.007311018564
283.000000,0.01256500761
284.000000,0.01187833532
285.000000,0.01007068064
286.000000,0.008201713269
287.000000,0.01278985194
288.000000,0.01138047384
289.000000,0.01222526125
290.000000,0.009262065408
291.000000,0.01489121706
292.000000,0.009822306273
293.000000,0.01400989909
294.000000,0.006090951159
295.000000,0.01071777121
296.000000,0.01026664719
297.000000,0.005058528816
298.000000,0.008812133019
299.000000,0.007652029751
300.000000,0.007289796008
301.000000,0.0085959624
302.000000,0.007763169656
303.000000,0.01075544194
304.000000,0.01103445158
305.000000,0.01064251556
306.000000,0.008447851915
307.000000,0.009141602979
308.000000,0.01346326865
309.000000,0.009417523384
310.000000,0.01006581159
311.000000,0.008932317469
312.000000,0.01116315765
313.000000,0.01187936938
314.000000,0.01170032318
315.000000,0.01096116948
316.000000,0.01153092445
317.000000,0.009684135208
318.000000,0.01135330364
319.000000,0.00813278257
320.000000,0.01031382121
321.000000,0.01184228375
322.000000,0.008081939261
323.000000,0.01167115375
324.000000,0.01074896476
325.000000,0.007663970005
326.000000,0.006708678398
327.000000,0.006810585711
328.000000,0.008023666296
329.000000,0.01075399017
330.000000,0.01061199223
331.000000,0.01257386017
332.000000,0.01465585437
333.000000,0.009161099899
334.000000,0.006040231927
335.000000,0.007139641693
336.000000,0.006058165132
337.000000,0.008739368229
338.000000,0.00903899058
339.000000,0.01267439924
340.000000,0.007103699184
341.000000,0.009623780658
342.000000,0.009613435834
343.000000,0.009857304248
344.000000,0.008973546753
345.000000,0.01434499831
346.000000,0.009747990619
347.000000,0.01019414135
348.000000,0.01153285661
349.000000,0.010561395
350.000000,0.01367116213
351.000000,0.007711423858
352.000000,0.009726421082
353.000000,0.009104745927
354.000000,0.009963834534
355.000000,0.01191274493
356.000000,0.008909621893
357.000000,0.006196943227
358.000000,0.01026411535
359.000000,0.00802822198
360.000000,0.01135747753
361.000000,0.01057907514
362.000000,0.01431900045
363.000000,0.01120857032
364.000000,0.008472411676
365.000000,0.01086352542
366.000000,0.01226381491
367.000000,0.01029864344
368.000000,0.01007246815
369.000000,0.009597913342
370.000000,0.009316107136
371.000000,0.008297627135
372.000000,0.01255571686
373.000000,0.01093726272
374.000000,0.007280209277
375.000000,0.0122923404
376.000000,0.01018996067
377.000000,0.01059979152
378.000000,0.01045657472
379.000000,0.01252635277
380.000000,0.005695338464
381.000000,0.01011443204
382.000000,0.01126294855
383.000000,0.009894402941
384.000000,0.006858981944
385.000000,0.007620870215
386.000000,0.01058910862
387.000000,0.01300866861
388.000000,0.006289985823
389.000000,0.008994318852
390.000000,0.0108077543
391.000000,0.01066023518
392.000000,0.01128056254
393.000000,0.01252322778
394.000000,0.01175145504
395.000000,0.007269345495
396.000000,0.009618336632
397.000000,0.008028687739
398.000000,0.01020519705
399.000000,0.01324964309
400.000000,0.01228926856
401.000000,0.0148783935
402.000000,0.01300911425
403.000000,0.01244441183
404.000000,0.01231536515
405.000000,0.008917754595
406.000000,0.009999876395
407.000000,0.01146957666
408.000000,0.01180830069
409.000000,0.01149919976
410.000000,0.008418408968
411.000000,0.008168369288
412.000000,0.00802659563
413.000000,0.01399314237
414.000000,0.01007615379
415.000000,0.01196442335
416.000000,0.01018713182
417.000000,0.009963319192
418.000000,0.009830524846
419.000000,0.009533999998
420.000000,0.01044266195
421.000000,0.01190824427
422.000000,0.007734167866
423.000000,0.01038052166
424.000000,0.009710287782
425.000000,0.009427221074
426.000000,0.01160926541
427.000000,0.01348517838
428.000000,0.007605829146
429.000000,0.0106034535
430.000000,0.01245154766
431.000000,0.01199178529
432.000000,0.007066491905
433.000000,0.01129179892
434.000000,0.009497963994
435.000000,0.009418688408
436.000000,0.0118035234
437.000000,0.0082557685
438.000000,0.0107728069
439.000000,0.01200795235
440.000000,0.009016986666
441.000000,0.00831946818
442.000000,0.01458946777
443.000000,0.008302442874
444.000000,0.01293547005
445.000000,0.008949383135
446.000000,0.01068312391
447.000000,0.009315667492
448.000000,0.01060625926
449.000000,0.01063000656
450.000000,0.008134370652
451.000000,0.01000516999
452.000000,0.01216806378
453.000000,0.008753403634
454.000000,0.005857488796
455.000000,0.0108492859
456.000000,0.008622968111
457.000000,0.01102951647
458.000000,0.009510595845
459.000000,0.008730110312
460.000000,0.009769400052
461.000000,0.01100216509
462.000000,0.0109382475
463.000000,0.007681495556
464.000000,0.007534095978
465.000000,0.007790772905
466.000000,0.01257227059
467.000000,0.01061782883
468.000000,0.008438548851
469.000000,0.009718310293
470.000000,0.01290210774
471.000000,0.007980961037
472.000000,0.009409976007
473.000000,0.01175967202
474.000000,0.01170549076
475.000000,0.01154613313
476.000000,0.008447715006
477.000000,0.01025735702
478.000000,0.005459147384
479.000000,0.009500078335
480.000000,0.009024571788
481.000000,0.009095652344
482.000000,0.01261027313
483.000000,0.009858116763
484.000000,0.009842235243
485.000000,0.01165358352
486.000000,0.01385481106
487.000000,0.008602384184
488.000000,0.01172019332
489.000000,0.009679770588
490.000000,0.007169422349
491.000000,0.009156773645
492.000000,0.01094607077
493.000000,0.009808078619
494.000000,0.009415242866
495.000000,0.0102903226
496.000000,0.009753055097
497.000000,0.009754068714
498.000000,0.00827036439
499.000000,0.01149757428
500.000000,0.005772556546
501.000000,0.01071203915
502.000000,0.008810214917
503.000000,0.01190002014
504.000000,0.008062614987
505.000000,0.005666268548
506.000000,0.01135456447
507.000000,0.01241437459
508.000000,0.006716265973
509.000000,0.01121447789
510.000000,0.01095673173
511.000000,0.008441422206
512.000000,0.0116571467
513.000000,0.008703844775
514.000000,0.01243249523
515.000000,0.01282920918
516.000000,0.009616207366
517.000000,0.009781990643
518.000000,0.01061742867
519.000000,0.006654194591
520.000000,0.009162460419
521.000000,0.01048395107
522.000000,0.01496062565
523.000000,0.01290702429
524.000000,0.01103075313
525.000000,0.00878577421
526.000000,0.01128783516
527.000000,0.01071503521
528.000000,0.007854480757
529.000000,0.01003862458
530.000000,0.007870072536
531.000000,0.009570848818
532.000000,0.004044853768
533.000000,0.01345084566
534.000000,0.009563543846
535.000000,0.008450305825
536.000000,0.009322720117
537.000000,0.007307706592
538.000000,0.01028253444
539.000000,0.01333825859
540.000000,0.01123629387
541.000000,0.009947810153
542.000000,0.01040347804
543.000000,0.01090427995
544.000000,0.009941370055
545.000000,0.009553199454
546.000000,0.01079359593
547.000000,0.0113008982
548.000000,0.009697583824
549.000000,0.01139078446
550.000000,0.008429764401
551.000000,0.007252287319
552.000000,0.007058436407
553.000000,0.01159673565
554.000000,0.009384899477
555.000000,0.01081484956
556.000000,0.009406918851
557.000000,0.01023723884
558.000000,0.0113549089
559.000000,0.008212416358
560.000000,0.009778580404
561.000000,0.0140338515
562.000000,0.01503356964
563.000000,0.01151665526
564.000000,0.01163533602
565.000000,0.01009492527
566.000000,0.009195904566
567.000000,0.01294992771
568.000000,0.01387376673
569.000000,0.01243390061
570.000000,0.01265015009
571.000000,0.01019395706
572.000000,0.01403419984
573.000000,0.01234016158
574.000000,0.01063274751
575.000000,0.01406893474
576.000000,0.01037834645
577.000000,0.01016314414
578.000000,0.01247131719
579.000000,0.01027254259
580.000000,0.01033182178
581.000000,0.01378756413
582.000000,0.01302083459
583.000000,0.01187056372
584.000000,0.01422276108
585.000000,0.01341230969
586.000000,0.01487810778
587.000000,0.01512781582
588.000000,0.01532594384
589.000000,0.01175582468
590.000000,0.01591858394
591.000000,0.01451558374
592.000000,0.01566624832
593.000000,0.01517766043
594.000000,0.01698477527
595.000000,0.01556817757
596.000000,0.01534802723
597.000000,0.01799008576
598.000000,0.01671661229
599.000000,0.01577086412
600.000000,0.01844475677
601.000000,0.01910998767
602.000000,0.02003309268
603.000000,0.02158850733
604.000000,0.02197443044
605.000000,0.02354719227
606.000000,0.03273324057
607.000000,0.02757966007
608.000000,0.03296606637
609.000000,0.03626227688
610.000000,0.03915509845
611.000000,0.04501427492
612.000000,0.05122212787
613.000000,0.0602604448
614.000000,0.0781807346
615.000000,0.0884939025
616.000000,0.1088715269
617.000000,0.1366017548
618.000000,0.1576851632
619.000000,0.1843410336
620.000000,0.1899725609
621.000000,0.1843700362
622.000000,0.1586510728
623.000000,0.1333716711
624.000000,0.1121797332
625.000000,0.08991948687
626.000000,0.07342260351
627.000000,0.06453018856
628.000000,0.05319749891
629.000000,0.04433308492
630.000000,0.04033999759
631.000000,0.03680772184
632.000000,0.03171599246
633.000000,0.03382540721
634.000000,0.02801984181
635.000000,0.02476331154
636.000000,0.0235798987
637.000000,0.0237095447
638.000000,0.01958201919
639.000000,0.01899814865
640.000000,0.01873091697
641.000000,0.01735234232
642.000000,0.01653007967
643.000000,0.01097513463
644.000000,0.01477266054
645.000000,0.01544298217
646.000000,0.01720409794
647.000000,0.0130556808
648.000000,0.01458291153
649.000000,0.0136532995
650.000000,0.01415141066
651.000000,0.01739984441
652.000000,0.0165336971
653.000000,0.01671937405
654.000000,0.01113404101
655.000000,0.01133838081
656.000000,0.01414627406
657.000000,0.01055665609
658.000000,0.01438023915
659.000000,0.01918571816
660.000000,0.01013211663
661.000000,0.01423642456
662.000000,0.01247248394
663.000000,0.01312133811
664.000000,0.01163085802
665.000000,0.008536215244
666.000000,0.01088742822
667.000000,0.01006092311
668.000000,0.009128640685
669.000000,0.01146499505
670.000000,0.01216885366
671.000000,0.009691665721
672.000000,0.01279235816
673.000000,0.01173348288
674.000000,0.01250616871
675.000000,0.01231783643
676.000000,0.01033917381
677.000000,0.01621539028
678.000000,0.01258723294
679.000000,0.01331915058
680.000000,0.01078439331
681.000000,0.01142813193
682.000000,0.01304086503
683.000000,0.00972823217
684.000000,0.01189860652
685.000000,0.01436477419
686.000000,0.01072260871
687.000000,0.01162601754
688.000000,0.008962114287
689.000000,0.01156750537
690.000000,0.011983801
691.000000,0.01124483023
692.000000,0.01227243595
693.000000,0.01056265112
694.000000,0.01080205567
695.000000,0.01340295777
696.000000,0.01298937683
697.000000,0.01180386277
698.000000,0.01472310521
699.000000,0.01113397862
700.000000,0.01104818243
701.000000,0.01259089604
702.000000,0.01578420105
703.000000,0.01057825782
704.000000,0.01067516203
705.000000,0.01076200302
706.000000,0.01010055815
707.000000,0.008876055049
708.000000,0.01248071455
709.000000,0.0131409827
710.000000,0.01232891278
711.000000,0.01193553854
712.000000,0.01035367254
713.000000,0.0124789557
714.000000,0.01174662451
715.000000,0.00992603095
716.000000,0.01163225221
717.000000,0.009233603132
718.000000,0.01061530379
719.000000,0.009712583996
720.000000,0.01272555739
721.000000,0.009907692725
722.000000,0.01209870599
723.000000,0.008555237151
724.000000,0.01168844818
725.000000,0.01261095256
726.000000,0.01116989908
727.000000,0.009755223596
728.000000,0.01003820083
729.000000,0.01174614811
730.000000,0.0113199612
731.000000,0.01051530448
732.000000,0.008638959965
733.000000,0.008579551814
734.000000,0.0105835518
735.000000,0.00983211452
736.000000,0.01186886051
737.000000,0.01284585235
738.000000,0.0116401625
739.000000,0.01036624128
740.000000,0.01095579794
741.000000,0.01274399629
742.000000,0.008461808873
743.000000,0.01324021081
744.000000,0.01315682219
745.000000,0.01068112387
746.000000,0.01195934222
747.000000,0.01199165234
748.000000,0.01429867957
749.000000,0.01328276602
750.000000,0.01074726623
751.000000,0.00604475628
752.000000,0.01628757067
753.000000,0.01402795557
754.000000,0.01149429194
755.000000,0.00939169204
756.000000,0.01161486395
757.000000,0.0105712472
758.000000,0.01562202409
759.000000,0.01458319339
760.000000,0.009739490741
761.000000,0.01454556627
762.000000,0.01256967061
763.000000,0.01444378636
764.000000,0.01256216944
765.000000,0.0103421392
766.000000,0.01130754917
767.000000,0.01468877314
768.000000,0.01668763063
769.000000,0.01819345889
770.000000,0.0185007556
771.000000,0.01609026124
772.000000,0.01722267656
773.000000,0.01840349582
774.000000,0.01770778429
775.000000,0.02097582802
776.000000,0.01850322893
777.000000,0.0210577443
778.000000,0.02168199286
779.000000,0.02338234711
780.000000,0.02715833542
781.000000,0.02660342739
782.000000,0.02950808761
783.000000,0.03107248561
784.000000,0.03381453061
785.000000,0.03977420168
786.000000,0.04041041621
787.000000,0.04639656299
788.000000,0.05449912702
789.000000,0.06155474416
790.000000,0.06971589582
791.000000,0.07936239374
792.000000,0.08796906399
793.000000,0.1009251246
794.000000,0.1067904142
795.000000,0.112635136
796.000000,0.1086865904
797.000000,0.09607710196
798.000000,0.09106552287
799.000000,0.08124046535
800.000000,0.06932245682
801.000000,0.06105613694
802.000000,0.05359107359
803.000000,0.04752816771
804.000000,0.03935744647
805.000000,0.0375084784
806.000000,0.03609332522
807.000000,0.02795038025
808.000000,0.0291332068
809.000000,0.02163378794
810.000000,0.02523463786
811.000000,0.02537265216
812.000000,0.02349934745
813.000000,0.01791280527
814.000000,0.02369904272
815.000000,0.0194692656
816.000000,0.02044435982
817.000000,0.01570966879
818.000000,0.01535481078
819.000000,0.01538635979
820.000000,0.01637343333
821.000000,0.01671712786
822.000000,0.01273751058
823.000000,0.01555522138
824.000000,0.01639440546
825.000000,0.01657610016
826.000000,0.01348585007
827.000000,0.01301067084
828.000000,0.01668949182
829.000000,0.01429456512
830.000000,0.01256260798
831.000000,0.01336293758
832.000000,0.0123968805
833.000000,0.01326425138
834.000000,0.01217093802
835.000000,0.0133282311
836.000000,0.01250396052
837.000000,0.01156891502
838.000000,0.01100912581
839.000000,0.0121928481
840.000000,0.01336267808
841.000000,0.01320144144
842.000000,0.01140755432
843.000000,0.01270685613
844.000000,0.01609753478
845.000000,0.009469901404
846.000000,0.01254565393
847.000000,0.009678552855
848.000000,0.01326479383
849.000000,0.01279735528
850.000000,0.01284369545
851.000000,0.01123314978
852.000000,0.01085154117
853.000000,0.008386317503
854.000000,0.01095158808
855.000000,0.0108154137
856.000000,0.009632925613
857.000000,0.01030018446
858.000000,0.01462338603
859.000000,0.01105595147
860.000000,0.01021790818
861.000000,0.007745356293
862.000000,0.01147301524
863.000000,0.009326608386
864.000000,0.01381829285
865.000000,0.009655766538
866.000000,0.009834235641
867.000000,0.01098647861
868.000000,0.00947553527
869.000000,0.01152750073
870.000000,0.0131395135
871.000000,0.01344184506
872.000000,0.01234957171
873.000000,0.01052742659
874.000000,0.01482404646
875.000000,0.01622383721
876.000000,0.01311891786
877.000000,0.008308304486
878.000000,0.01225389561
879.000000,0.01121716862
880.000000,0.01199524533
881.000000,0.01290112018
882.000000,0.01358610851
883.000000,0.009815420904
884.000000,0.01217048607
885.000000,0.009633369373
886.000000,0.01188333204
887.000000,0.01497580447
888.000000,0.01169187126
889.000000,0.01112647508
890.000000,0.01426531763
891.000000,0.011156714
892.000000,0.009840093287
893.000000,0.01231922748
894.000000,0.009674427324
895.000000,0.01140425549
896.000000,0.01081013447
897.000000,0.009284959413
898.000000,0.01553728691
899.000000,0.01052358546
900.000000,0.01412954177
901.000000,0.01102539859
902.000000,0.01307178997
903.000000,0.01331885292
904.000000,0.01566977811
905.000000,0.01127835729
906.000000,0.01079256375
907.000000,0.01251156176
908.000000,0.01146791489
909.000000,0.009045476024
910.000000,0.01350505472
911.000000,0.01138373348
912.000000,0.01095515157
913.000000,0.01076518192
914.000000,0.01330612794
915.000000,0.008488039039
916.000000,0.01249306541
917.000000,0.01046429555
918.000000,0.01302302992
919.000000,0.009819591536
920.000000,0.01663343265
921.000000,0.01087651792
922.000000,0.01130485756
923.000000,0.01001088178
924.000000,0.01399548804
925.000000,0.01214960326
926.000000,0.009211697359
927.000000,0.0125516683
928.000000,0.01235503325
929.000000,0.01004170842
930.000000,0.01336044319
931.000000,0.01174213323
932.000000,0.01260786798
933.000000,0.01373563063
934.000000,0.0111453851
935.000000,0.01417771586
936.000000,0.01092941101
937.000000,0.00939237792
938.000000,0.01161844458
939.000000,0.01415949676
940.000000,0.01315511718
941.000000,0.01091807013
942.000000,0.01583323977
943.000000,0.01681942987
944.000000,0.01213943242
945.000000,0.01674083405
946.000000,0.01397134025
947.000000,0.01488970841
948.000000,0.01772096546
949.000000,0.01607352515
950.000000,0.009820718268
951.000000,0.01504673295
952.000000,0.01173576859
953.000000,0.01472188772
954.000000,0.014547952
955.000000,0.0151568765
956.000000,0.01752296792
957.000000,0.01582590511
958.000000,0.01574811895
959.000000,0.01599854425
960.000000,0.01776838043
961.000000,0.01923631068
962.000000,0.02307840994
963.000000,0.01709956813
964.000000,0.01797120295
965.000000,0.01795591798
966.000000,0.01765304966
967.000000,0.02053073984
968.000000,0.01889390702
969.000000,0.01815150454
970.000000,0.02260054676
971.000000,0.02482734153
972.000000,0.02277111971
973.000000,0.02498246252
974.000000,0.0247147177
975.000000,0.02365911793
976.000000,0.02725303191
977.000000,0.02783731003
978.000000,0.02762299233
979.000000,0.03292047496
980.000000,0.03281953548
981.000000,0.03661204502
982.000000,0.03796876917
983.000000,0.03872238672
984.000000,0.04213655653
985.000000,0.04753196318
986.000000,0.05170771243
987.000000,0.05588176182
988.000000,0.06470471863
989.000000,0.07055944877
990.000000,0.08349310669
991.000000,0.09731701233
992.000000,0.1089450746
993.000000,0.1344460841
994.000000,0.1696059046
995.000000,0.2147941908
996.000000,0.2814199894
997.000000,0.3751848282
998.000000,0.5142347244
999.000000,0.7080932971
1000.000000,0.9137455691
1001.000000,1.017731995
1002.000000,0.9195300575
1003.000000,0.7108219363
1004.000000,0.5160971538
1005.000000,0.3827812367
1006.000000,0.2814622885
1007.000000,0.2175712522
1008.000000,0.1770369761
1009.000000,0.1454865732
1010.000000,0.1209885889
1011.000000,0.1041083719
1012.000000,0.09418277455
1013.000000,0.08455722968
1014.000000,0.07838515878
1015.000000,0.07187177427
1016.000000,0.0681486845
1017.000000,0.07163181145
1018.000000,0.07068335782
1019.000000,0.06929645423
1020.000000,0.07602305035
1021.000000,0.07666176522
1022.000000,0.08251097461
1023.000000,0.1002778866
1024.000000,0.1130407564
1025.000000,0.1312980931
1026.000000,0.1618393619
1027.000000,0.2040857983
1028.000000,0.2629981117
1029.000000,0.3351723742
1030.000000,0.4085371736
1031.000000,0.4428530477
1032.000000,0.4099169299
1033.000000,0.3361069211
1034.000000,0.2590287154
1035.000000,0.2007127321
1036.000000,0.1557351388
1037.000000,0.12638532
1038.000000,0.1049569417
1039.000000,0.0843794334
1040.000000,0.07007991772
1041.000000,0.0651459519
1042.000000,0.05176089739
1043.000000,0.044851744
1044.000000,0.04519307736
1045.000000,0.03825351167
1046.000000,0.03760731445
1047.000000,0.03015806985
1048.000000,0.03103442751
1049.000000,0.02683977279
1050.000000,0.02688523845
1051.000000,0.02895892654
1052.000000,0.02638931137
1053.000000,0.02602290045
1054.000000,0.0255304269
1055.000000,0.02281813801
1056.000000,0.01977804858
1057.000000,0.01877163627
1058.000000,0.0216367702
1059.000000,0.016399762
1060.000000,0.02188706322
1061.000000,0.0217224946
1062.000000,0.02095125196
1063.000000,0.01961937778
1064.000000,0.02266711827
1065.000000,0.01635223626
1066.000000,0.01854045524
1067.000000,0.01774141254
1068.000000,0.01475610875
1069.000000,0.01439630792
1070.000000,0.01485176524
1071.000000,0.01340814057
1072.000000,0.01338253242
1073.000000,0.0111987166
1074.000000,0.01599175945
1075.000000,0.01694623259
1076.000000,0.01548012436
1077.000000,0.01514221
1078.000000,0.01695287482
1079.000000,0.0140577435
1080.000000,0.01708557295
1081.000000,0.01341368515
1082.000000,0.0124467877
1083.000000,0.01387535742
1084.000000,0.009213428949
1085.000000,0.01314809457
1086.000000,0.01539965687
1087.000000,0.01656523765
1088.000000,0.01259628411
1089.000000,0.01193484275
1090.000000,0.01679038416
1091.000000,0.01541214426
1092.000000,0.01763514861
1093.000000,0.01612357199
1094.000000,0.01551160256
1095.000000,0.01442329631
1096.000000,0.01183129019
1097.000000,0.01156686379
1098.000000,0.01282717117
1099.000000,0.01380372759
1100.000000,0.01231453519
1101.000000,0.01036698382
1102.000000,0.01734996088
1103.000000,0.01031664846
1104.000000,0.01365737724
1105.000000,0.01125547357
1106.000000,0.01320527138
1107.000000,0.01833062006
1108.000000,0.01556492482
1109.000000,0.01287943379
1110.000000,0.01696602711
1111.000000,0.01278479659
1112.000000,0.01739148795
1113.000000,0.0146016336
1114.000000,0.01347913744
1115.000000,0.01456684775
1116.000000,0.01257199283
1117.000000,0.01196812397
1118.000000,0.01397032545
1119.000000,0.01402666945
1120.000000,0.01465660821
1121.000000,0.01595464054
1122.000000,0.01602774099
1123.000000,0.01614359325
1124.000000,0.01518509569
1125.000000,0.01445478485
1126.000000,0.01735277478
1127.000000,0.01518119736
1128.000000,0.01708043941
1129.000000,0.01550904441
1130.000000,0.0173196508
1131.000000,0.01676785165
1132.000000,0.01857661131
1133.000000,0.02167785133
1134.000000,0.0191144493
1135.000000,0.01982473723
1136.000000,0.01972935174
1137.000000,0.021524219
1138.000000,0.02338810499
1139.000000,0.0227292728
1140.000000,0.02676098085
1141.000000,0.02706132228
1142.000000,0.02977127562
1143.000000,0.03525568929
1144.000000,0.03545488247
1145.000000,0.04038258199
1146.000000,0.04599179758
1147.000000,0.05375194854
1148.000000,0.05791531734
1149.000000,0.06773776378
1150.000000,0.08479311172
1151.000000,0.1006260136
1152.000000,0.1188609439
1153.000000,0.1367193676
1154.000000,0.1476633417
1155.000000,0.1547291296
1156.000000,0.1513266361
1157.000000,0.1374440379
1158.000000,0.1127654069
1159.000000,0.1014406073
1160.000000,0.08641233303
1161.000000,0.07505727863
1162.000000,0.06585061231
1163.000000,0.05799493172
1164.000000,0.05064964456
1165.000000,0.0429832262
1166.000000,0.0434574421
1167.000000,0.03949106232
1168.000000,0.04037614094
1169.000000,0.03690912514
1170.000000,0.03730065192
1171.000000,0.03741851506
1172.000000,0.04044532202
1173.000000,0.04392903076
1174.000000,0.04428220827
1175.000000,0.0513777885
1176.000000,0.05570877039
1177.000000,0.05769618992
1178.000000,0.06796065667
1179.000000,0.08308585094
1180.000000,0.09968630857
1181.000000,0.1129248607
1182.000000,0.1315312014
1183.000000,0.1326547192
1184.000000,0.1315004589
1185.000000,0.114705979
1186.000000,0.09794912963
1187.000000,0.07823430293
1188.000000,0.06862617415
1189.000000,0.05414512459
1190.000000,0.04807053175
1191.000000,0.04238585652
1192.000000,0.03925197952
1193.000000,0.03310282259
1194.000000,0.02865848082
1195.000000,0.0297320141
1196.000000,0.02680065193
1197.000000,0.02455952005
1198.000000,0.02479465735
1199.000000,0.02213559109
1200.000000,0.02266092758
1201.000000,0.01728427494
1202.000000,0.01955837773
1203.000000,0.02138408923
1204.000000,0.01528739746
1205.000000,0.01603559121
1206.000000,0.0161673125
1207.000000,0.01718292092
1208.000000,0.0173688201
1209.000000,0.01272700071
1210.000000,0.01653543707
1211.000000,0.01451166642
1212.000000,0.01418931516
1213.000000,0.01396792514
1214.000000,0.01274305691
1215.000000,0.014684084
1216.000000,0.01546641989
1217.000000,0.01448773313
1218.000000,0.01245483101
1219.000000,0.01109195991
1220.000000,0.01371610965
1221.000000,0.01312649147
1222.000000,0.01257157359
1223.000000,0.01140595937
1224.000000,0.01299661587
1225.000000,0.0116887981
1226.000000,0.01364404853
1227.000000,0.01599899759
1228.000000,0.009944046877
1229.000000,0.01405970696
1230.000000,0.01151277755
1231.000000,0.01420556617
1232.000000,0.01644298673
1233.000000,0.008754037777
1234.000000,0.008559466374
1235.000000,0.007539499167
1236.000000,0.01426133338
1237.000000,0.01392031147
1238.000000,0.01079668599
1239.000000,0.01074489785
1240.000000,0.01062846837
1241.000000,0.01077155148
1242.000000,0.006220403742
1243.000000,0.01054435154
1244.000000,0.009158092502
1245.000000,0.01327761446
1246.000000,0.01067114657
1247.000000,0.009521640314
1248.000000,0.0136012138
1249.000000,0.009764046649
1250.000000,0.01052427801
1251.000000,0.01263887485
1252.000000,0.01052370027
1253.000000,0.00950164749
1254.000000,0.01193357575
1255.000000,0.008421435284
1256.000000,0.008602076725
1257.000000,0.01299325388
1258.000000,0.0078613127
1259.000000,0.01525680996
1260.000000,0.01334288755
1261.000000,0.01240713339
1262.000000,0.01063270965
1263.000000,0.0119157619
1264.000000,0.01283864311
1265.000000,0.01114078914
1266.000000,0.01239085587
1267.000000,0.01137585426
1268.000000,0.008168789975
1269.000000,0.0100047207
1270.000000,0.01154120685
1271.000000,0.009328450294
1272.000000,0.0076828955
1273.000000,0.009712771855
1274.000000,0.009077104944
1275.000000,0.01164307408
1276.000000,0.005997882792
1277.000000,0.01394330957
1278.000000,0.01340888093
1279.000000,0.01307577232
1280.000000,0.01254168688
1281.000000,0.009271541893
1282.000000,0.011281517
1283.000000,0.01403905782
1284.000000,0.008922848583
1285.000000,0.01281422705
1286.000000,0.007804900953
1287.000000,0.006588158926
1288.000000,0.01154936856
1289.000000,0.006786223407
1290.000000,0.007583829559
1291.000000,0.01180863024
1292.000000,0.01258070075
1293.000000,0.01283477545
1294.000000,0.007690766524
1295.000000,0.01034779835
1296.000000,0.009173101799
1297.000000,0.01594615861
1298.000000,0.01358888504
1299.000000,0.01183235786
1300.000000,0.01020372749
1301.000000,0.008429966723
1302.000000,0.01316705997
1303.000000,0.01135240042
1304.000000,0.01114232662
1305.000000,0.01065450858
1306.000000,0.007198558395
1307.000000,0.009661410283
1308.000000,0.01151422008
1309.000000,0.01307187988
1310.000000,0.0144178028
1311.000000,0.01163393707
1312.000000,0.009665187726
1313.000000,0.008068462229
1314.000000,0.00862057863
1315.000000,0.01392681993
1316.000000,0.01321004437
1317.000000,0.01146053574
1318.000000,0.01136674329
1319.000000,0.01398721081
1320.000000,0.01161164469
1321.000000,0.01356411602
1322.000000,0.009008799343
1323.000000,0.009295509568
1324.000000,0.01046152156
1325.000000,0.01085177827
1326.000000,0.01200035857
1327.000000,0.01134385342
1328.000000,0.01465886056
1329.000000,0.007031937157
1330.000000,0.01206095374
1331.000000,0.01120607747
1332.000000,0.0114122512
1333.000000,0.01074672504
1334.000000,0.01102541568
1335.000000,0.009051056419
1336.000000,0.01026160694
1337.000000,0.01527275722
1338.000000,0.01429372495
1339.000000,0.01364767691
1340.000000,0.0120326302
1341.000000,0.0100430209
1342.000000,0.01535667647
1343.000000,0.009881679402
1344.000000,0.01140423276
1345.000000,0.01071538422
1346.000000,0.009113781173
1347.000000,0.00822027683
1348.000000,0.01120218494
1349.000000,0.008661724721
1350.000000,0.01186182724
1351.000000,0.01529927968
1352.000000,0.01008630711
1353.000000,0.01093535831
1354.000000,0.01275030474
1355.000000,0.01329745672
1356.000000,0.01465830996
1357.000000,0.01335304116
1358.000000,0.01232083804
1359.000000,0.009272990419
1360.000000,0.01292308121
1361.000000,0.01131565637
1362.000000,0.01120768919
1363.000000,0.007545697065
1364.000000,0.01190035857
1365.000000,0.01412581116
1366.000000,0.01215570258
1367.000000,0.01325655393
1368.000000,0.01156826262
1369.000000,0.008593073666
1370.000000,0.01478009036
1371.000000,0.01039167259
1372.000000,0.01512362615
1373.000000,0.008761980154
1374.000000,0.01079387886
1375.000000,0.01429820075
1376.000000,0.01053494708
1377.000000,0.01119776939
1378.000000,0.01427293235
1379.000000,0.01423992195
1380.000000,0.01716607776
1381.000000,0.01447568185
1382.000000,0.0130486286
1383.000000,0.0158556276
1384.000000,0.01059869012
1385.000000,0.01472258492
1386.000000,0.01155551362
1387.000000,0.01494900724
1388.000000,0.01353827216
1389.000000,0.01074878394
1390.000000,0.01732737818
1391.000000,0.01558032822
1392.000000,0.01325295609
1393.000000,0.01208236872
1394.000000,0.0131329416
1395.000000,0.01306855817
1396.000000,0.014669075
1397.000000,0.01390448656
1398.000000,0.01500078241
1399.000000,0.01337168851
1400.000000,0.01875816136
1401.000000,0.01823027399
1402.000000,0.01881049527
1403.000000,0.0146459684
1404.000000,0.01593795427
1405.000000,0.01642270929
1406.000000,0.01458520424
1407.000000,0.01504667966
1408.000000,0.01474507596
1409.000000,0.01618590315
1410.000000,0.01613995414
1411.000000,0.01449865695
1412.000000,0.01969494729
1413.000000,0.01821185554
1414.000000,0.02060034072
1415.000000,0.02031606227
1416.000000,0.02321810575
1417.000000,0.02248514755
1418.000000,0.01945033626
1419.000000,0.022320257
1420.000000,0.02273704418
1421.000000,0.02284510727
1422.000000,0.02204256842
1423.000000,0.02453037899
1424.000000,0.0251246662
1425.000000,0.02697478122
1426.000000,0.0291936017
1427.000000,0.02402771248
1428.000000,0.02915949032
1429.000000,0.0307261524
1430.000000,0.03641403491
1431.000000,0.03866780904
1432.000000,0.04010005452
1433.000000,0.044722658
1434.000000,0.04675372765
1435.000000,0.05217099234
1436.000000,0.05355320626
1437.000000,0.05877808218
1438.000000,0.0706051538
1439.000000,0.07504087332
1440.000000,0.08363369067
1441.000000,0.09499008435
1442.000000,0.1077664375
1443.000000,0.1198186832
1444.000000,0.1372090001
1445.000000,0.1597859287
1446.000000,0.1775321881
1447.000000,0.1970772158
1448.000000,0.2100862532
1449.000000,0.2243078457
1450.000000,0.2325755873
1451.000000,0.227625288
1452.000000,0.213451164
1453.000000,0.1988193925
1454.000000,0.1781509677
1455.000000,0.1533745283
1456.000000,0.1394863225
1457.000000,0.1205704172
1458.000000,0.1049792265
1459.000000,0.09543620687
1460.000000,0.08631558019
1461.000000,0.07483839743
1462.000000,0.06720626947
1463.000000,0.06125104833
1464.000000,0.05450284065
1465.000000,0.04951417996
1466.000000,0.0448439178
1467.000000,0.0401607951
1468.000000,0.04147663816
1469.000000,0.0383140804
1470.000000,0.03569102002
1471.000000,0.03304681127
1472.000000,0.03306484233
1473.000000,0.03158646863
1474.000000,0.02523270358
1475.000000,0.02998834401
1476.000000,0.02547543994
1477.000000,0.0236923307
1478.000000,0.02529009563
1479.000000,0.02382373525
1480.000000,0.02087917495
1481.000000,0.0239880535
1482.000000,0.02099548649
1483.000000,0.01774843536
1484.000000,0.02007451556
1485.000000,0.01884460164
1486.000000,0.01915513227
1487.000000,0.01830209578
1488.000000,0.020124518
1489.000000,0.01976033421
1490.000000,0.01620363698
1491.000000,0.02084482541
1492.000000,0.01778212752
1493.000000,0.01578818233
1494.000000,0.01812873555
1495.000000,0.01457530644
1496.000000,0.01535923793
1497.000000,0.01501036089
1498.000000,0.01758198259
1499.000000,0.01934414631
1500.000000,0.0149192614
1501.000000,0.01417379972
1502.000000,0.0153734821
1503.000000,0.01763686882
1504.000000,0.01525127173
1505.000000,0.01568055966
1506.000000,0.01404615469
1507.000000,0.01907870375
1508.000000,0.01139741224
1509.000000,0.0146339791
1510.000000,0.01336543002
1511.000000,0.01505777731
1512.000000,0.01752076976
1513.000000,0.01847363661
1514.000000,0.01240900278
1515.000000,0.01364891686
1516.000000,0.01355520748
1517.000000,0.01301770937
1518.000000,0.01397543502
1519.000000,0.01339250983
1520.000000,0.01320891358
1521.000000,0.01781333903
1522.000000,0.01563400557
1523.000000,0.01685712759
1524.000000,0.01568681316
1525.000000,0.01455227913
1526.000000,0.01371276893
1527.000000,0.01674638131
1528.000000,0.01556481933
1529.000000,0.01404683478
1530.000000,0.015314986
1531.000000,0.01875990634
1532.000000,0.01248080884
1533.000000,0.01705251614
1534.000000,0.01663441243
1535.000000,0.01627418783
1536.000000,0.01374240964
1537.000000,0.01646152401
1538.000000,0.01681258043
1539.000000,0.01778589648
1540.000000,0.01443788178
1541.000000,0.0175994949
1542.000000,0.02192995229
1543.000000,0.01737793135
1544.000000,0.01840144992
1545.000000,0.02012419971
1546.000000,0.01467792309
1547.000000,0.02064364995
1548.000000,0.01775561042
1549.000000,0.01483130018
1550.000000,0.01876344001
1551.000000,0.01939411432
1552.000000,0.0220627385
1553.000000,0.01936269774
1554.000000,0.01877716053
1555.000000,0.02291180982
1556.000000,0.02189170373
1557.000000,0.02327746372
1558.000000,0.02592971882
1559.000000,0.02301588519
1560.000000,0.02472339781
1561.000000,0.02533117982
1562.000000,0.02622504204
1563.000000,0.02900035454
1564.000000,0.02889200217
1565.000000,0.03077780493
1566.000000,0.03823737116
1567.000000,0.03750625585
1568.000000,0.04166443481
1569.000000,0.04211891136
1570.000000,0.04759468085
1571.000000,0.04798413842
1572.000000,0.05630389355
1573.000000,0.06116108306
1574.000000,0.07021864976
1575.000000,0.08143680873
1576.000000,0.09366611759
1577.000000,0.1033017176
1578.000000,0.1272907361
1579.000000,0.1527518322
1580.000000,0.1769556933
1581.000000,0.2023362594
1582.000000,0.2265225155
1583.000000,0.2389215429
1584.000000,0.2336617228
1585.000000,0.2173222616
1586.000000,0.1947041926
1587.000000,0.1733094419
1588.000000,0.1530708499
1589.000000,0.1460532616
1590.000000,0.1419879484
1591.000000,0.1405637803
1592.000000,0.1470593398
1593.000000,0.153863893
1594.000000,0.1669040519
1595.000000,0.1891971634
1596.000000,0.2279766674
1597.000000,0.2769884995
1598.000000,0.339775045
1599.000000,0.428007595
1600.000000,0.5230999766
1601.000000,0.6068940544
1602.000000,0.6451922657
1603.000000,0.6082402877
1604.000000,0.5166472996
1605.000000,0.4172958129
1606.000000,0.324251652
1607.000000,0.2607483019
1608.000000,0.2100632615
1609.000000,0.1699922501
1610.000000,0.1415919159
1611.000000,0.1187609991
1612.000000,0.09909732589
1613.000000,0.09022663722
1614.000000,0.07841315139
1615.000000,0.06983513114
1616.000000,0.05851671467
1617.000000,0.05679303866
1618.000000,0.05342651627
1619.000000,0.04541357695
1620.000000,0.04627555707
1621.000000,0.03885066567
1622.000000,0.04137801663
1623.000000,0.03324433048
1624.000000,0.03277390468
1625.000000,0.03206975112
1626.000000,0.03125889828
1627.000000,0.02135182614
1628.000000,0.02967541244
1629.000000,0.02446436529
1630.000000,0.02481088217
1631.000000,0.02910053961
1632.000000,0.02313379775
1633.000000,0.02114142645
1634.000000,0.02624602034
1635.000000,0.02415684814
1636.000000,0.02218480796
1637.000000,0.02439030331
1638.000000,0.02169331785
1639.000000,0.02198729261
1640.000000,0.01932964509
1641.000000,0.02047749306
1642.000000,0.01879481172
1643.000000,0.0145909802
1644.000000,0.02243882245
1645.000000,0.01663885663
1646.000000,0.01447679945
1647.000000,0.01671929889
1648.000000,0.01710966121
1649.000000,0.01385354053
1650.000000,0.01478359385
1651.000000,0.01507080428
1652.000000,0.01521048328
1653.000000,0.0161334826
1654.000000,0.01672205019
1655.000000,0.01596781506
1656.000000,0.01519496555
1657.000000,0.01579731128
1658.000000,0.01417251343
1659.000000,0.01156662949
1660.000000,0.0127135114
1661.000000,0.01625385287
1662.000000,0.01195442044
1663.000000,0.01138432887
1664.000000,0.01615426796
1665.000000,0.01263894347
1666.000000,0.01352954428
1667.000000,0.01197692198
1668.000000,0.01306971631
1669.000000,0.01157215144
1670.000000,0.01349677253
1671.000000,0.01462876523
1672.000000,0.01149262625
1673.000000,0.01402526445
1674.000000,0.01030827929
1675.000000,0.01475397017
1676.000000,0.0142553538
1677.000000,0.0113735623
1678.000000,0.01241136404
1679.000000,0.01225247619
1680.000000,0.007210167619
1681.000000,0.01038334045
1682.000000,0.01075406618
1683.000000,0.01177600059
1684.000000,0.01026881567
1685.000000,0.01126764268
1686.000000,0.01240190315
1687.000000,0.01185614104
1688.000000,0.01075450681
1689.000000,0.01498173151
1690.000000,0.01245237635
1691.000000,0.01014390116
1692.000000,0.009835771132
1693.000000,0.01298242716
1694.000000,0.009204217965
1695.000000,0.009815844471
1696.000000,0.01277593754
1697.000000,0.01188009119
1698.000000,0.008152418608
1699.000000,0.01693241041
1700.000000,0.01178033542
1701.000000,0.008941589785
1702.000000,0.01084378253
1703.000000,0.01204587233
1704.000000,0.01121638498
1705.000000,0.009809063715
1706.000000,0.01349325271
1707.000000,0.009102772347
1708.000000,0.009370370202
1709.000000,0.009147140612
1710.000000,0.0131742771
1711.000000,0.0130601312
1712.000000,0.01003221043
1713.000000,0.01171967682
1714.000000,0.01207355121
1715.000000,0.009781997608
1716.000000,0.00949456726
1717.000000,0.01345263659
1718.000000,0.008913806078
1719.000000,0.01219015924
1720.000000,0.01125489798
1721.000000,0.0129422782
1722.000000,0.01053296174
1723.000000,0.01020615486
1724.000000,0.008518943002
1725.000000,0.01170935193
1726.000000,0.01230154869
1727.000000,0.008432131642
1728.000000,0.01149832161
1729.000000,0.0107951014
1730.000000,0.004107342092
1731.000000,0.00921959901
1732.000000,0.01003014434
1733.000000,0.00791410167
1734.000000,0.01245739827
1735.000000,0.009866369094
1736.000000,0.0101087329
1737.000000,0.01438523098
1738.000000,0.01012451134
1739.000000,0.01433400426
1740.000000,0.0111922989
1741.000000,0.01060800435
1742.000000,0.01338758523
1743.000000,0.006756178596
1744.000000,0.008984024439
1745.000000,0.008376397343
1746.000000,0.009151794028
1747.000000,0.006372093829
1748.000000,0.008863969736
1749.000000,0.009599147645
1750.000000,0.01110887861
1751.000000,0.01497124595
1752.000000,0.007003865476
1753.000000,0.00906998175
1754.000000,0.01170362406
1755.000000,0.01356125787
1756.000000,0.01106708557
1757.000000,0.008505384904
1758.000000,0.0122600498
1759.000000,0.009516898891
1760.000000,0.01137808923
1761.000000,0.01187093013
1762.000000,0.01071934454
1763.000000,0.01137774455
1764.000000,0.008935004089
1765.000000,0.01259423145
1766.000000,0.008810193539
1767.000000,0.01101861243
1768.000000,0.01269864248
1769.000000,0.009256184343
1770.000000,0.01063005069
1771.000000,0.01146828892
1772.000000,0.009492174077
1773.000000,0.01117428566
1774.000000,0.01027580593
1775.000000,0.007089053908
1776.000000,0.009086926275
1777.000000,0.009420577614
1778.000000,0.01220204177
1779.000000,0.008628303545
1780.000000,0.01244778128
1781.000000,0.01152064087
1782.000000,0.009919681823
1783.000000,0.01211278749
1784.000000,0.00797482611
1785.000000,0.01075858023
1786.000000,0.01018425015
1787.000000,0.00902520102
1788.000000,0.01064924026
1789.000000,0.01282376031
1790.000000,0.01138028765
1791.000000,0.007897318402
1792.000000,0.0115791284
1793.000000,0.01190843639
1794.000000,0.009431701668
1795.000000,0.006110926768
1796.000000,0.01080998877
1797.000000,0.01027391953
1798.000000,0.01196370425
1799.000000,0.01523594607
1800.000000,0.007286461689
1801.000000,0.009199495923
1802.000000,0.00926040712
1803.000000,0.00636058019
1804.000000,0.009943505476
1805.000000,0.008125378138
1806.000000,0.01289864909
1807.000000,0.01225240323
1808.000000,0.01234602509
1809.000000,0.01064900379
1810.000000,0.01026716177
1811.000000,0.01188002531
1812.000000,0.01417582663
1813.000000,0.01291626053
1814.000000,0.01073419344
1815.000000,0.01121150065
1816.000000,0.007210872568
1817.000000,0.01032781218
1818.000000,0.006066792419
1819.000000,0.009969719142
1820.000000,0.009625035205
1821.000000,0.0115546485
1822.000000,0.01306394432
1823.000000,0.01004729475
1824.000000,0.008006498953
1825.000000,0.008928524867
1826.000000,0.007899708192
1827.000000,0.006455695556
1828.000000,0.006433817525
1829.000000,0.009385617106
1830.000000,0.008130828991
1831.000000,0.0121666797
1832.000000,0.01191520309
1833.000000,0.008930938376
1834.000000,0.01118505185
1835.000000,0.01100297137
1836.000000,0.01039990647
1837.000000,0.009414378802
1838.000000,0.01384093083
1839.000000,0.01420229627
1840.000000,0.01255578425
1841.000000,0.0105405536
1842.000000,0.01224707051
1843.000000,0.01444601598
1844.000000,0.008572864511
1845.000000,0.01010372697
1846.000000,0.01062512789
1847.000000,0.01013410171
1848.000000,0.01293009419
1849.000000,0.0131681306
1850.000000,0.01196564079
1851.000000,0.009984860988
1852.000000,0.009061683506
1853.000000,0.008835563469
1854.000000,0.0128268568
1855.000000,0.01521451889
1856.000000,0.01184505237
1857.000000,0.0120289153
1858.000000,0.01042579182
1859.000000,0.009835981838
1860.000000,0.009127889705
1861.000000,0.01069293272
1862.000000,0.01122674239
1863.000000,0.01348251178
1864.000000,0.01140049485
1865.000000,0.01029967656
1866.000000,0.007718557759
1867.000000,0.01431638996
1868.000000,0.01223927234
1869.000000,0.009039600515
1870.000000,0.0119614617
1871.000000,0.01265989857
1872.000000,0.01306018321
1873.000000,0.01132134633
1874.000000,0.01312053311
1875.000000,0.01156482709
1876.000000,0.009655336252
1877.000000,0.01110449222
1878.000000,0.01233771289
1879.000000,0.01053576531
1880.000000,0.01137038043
1881.000000,0.009551411242
1882.000000,0.009351162085
1883.000000,0.006955504384
1884.000000,0.01018318164
1885.000000,0.01072284084
1886.000000,0.01102009663
1887.000000,0.01191005102
1888.000000,0.004377021427
1889.000000,0.008821690496
1890.000000,0.01362920406
1891.000000,0.006447006908
1892.000000,0.0116156958
1893.000000,0.01067037616
1894.000000,0.007287796642
1895.000000,0.00722713689
1896.000000,0.0126424813
1897.000000,0.00808505964
1898.000000,0.01439777563
1899.000000,0.01116428104
1900.000000,0.01245845397
1901.000000,0.007995323388
1902.000000,0.009726399687
1903.000000,0.01147757099
1904.000000,0.0135154789
1905.000000,0.007356615734
1906.000000,0.009891539653
1907.000000,0.01082610028
1908.000000,0.01008809429
1909.000000,0.01489069264
1910.000000,0.006504194631
1911.000000,0.01124821079
1912.000000,0.00571129423
1913.000000,0.01108304516
1914.000000,0.007310059591
1915.000000,0.01128486655
1916.000000,0.01184296866
1917.000000,0.01452432457
1918.000000,0.01101309311
1919.000000,0.01041705318
1920.000000,0.00893886018
1921.000000,0.006871380723
1922.000000,0.009657945661
1923.000000,0.01064309497
1924.000000,0.01087273259
1925.000000,0.0121605864
1926.000000,0.008980370356
1927.000000,0.007607333295
1928.000000,0.01216298053
1929.000000,0.006837914547
1930.000000,0.007455503907
1931.000000,0.01062827947
1932.000000,0.01228981632
1933.000000,0.01319563752
1934.000000,0.01276651877
1935.000000,0.0117749592
1936.000000,0.009598331636
1937.000000,0.01088927243
1938.000000,0.009027178043
1939.000000,0.006764453586
1940.000000,0.008990671949
1941.000000,0.01226735155
1942.000000,0.01099156063
1943.000000,0.01028204743
1944.000000,0.01082588212
1945.000000,0.0133441141
1946.000000,0.01263953209
1947.000000,0.008614190587
1948.000000,0.01212095919
1949.000000,0.01206548781
1950.000000,0.00991517655
1951.000000,0.009904608024
1952.000000,0.0129670476
1953.000000,0.008090079107
1954.000000,0.01224814992
1955.000000,0.01014852966
1956.000000,0.01161796947
1957.000000,0.008350319929
1958.000000,0.009574106077
1959.000000,0.009608583129
1960.000000,0.009529247096
1961.000000,0.008302176484
1962.000000,0.01078110519
1963.000000,0.009355175456
1964.000000,0.01000793751
1965.000000,0.01211222011
1966.000000,0.007126555261
1967.000000,0.01132833203
1968.000000,0.008397050585
1969.000000,0.01115125052
1970.000000,0.01168767633
1971.000000,0.01115443107
1972.000000,0.01063616904
1973.000000,0.01075904432
1974.000000,0.01280368574
1975.000000,0.00851197092
1976.000000,0.008397890391
1977.000000,0.0112442462
1978.000000,0.007370203737
1979.000000,0.01145143963
1980.000000,0.01091046158
1981.000000,0.009554233967
1982.000000,0.009608588275
1983.000000,0.01103816767
1984.000000,0.01037664342
1985.000000,0.005417932173
1986.000000,0.01102322859
1987.000000,0.01109855576
1988.000000,0.008471556857
1989.000000,0.01241167991
1990.000000,0.009421241655
1991.000000,0.01105668792
1992.000000,0.01221630992
1993.000000,0.01125843315
1994.000000,0.01308485367
1995.000000,0.01246741753
1996.000000,0.007092063099
1997.000000,0.007178160575
1998.000000,0.01228336334
1999.000000,0.01505583138
2000.000000,0.01338549231
