raman_shift_cm-1,intensity
200.000000,0.009208538222
201.000000,0.007813245945
202.000000,0.01142134923
203.000000,0.007858256324
204.000000,0.01410194148
205.000000,0.01192256038
206.000000,0.009356037637
207.000000,0.0112158234
208.000000,0.01329819976
209.000000,0.01574319129
210.000000,0.008228955277
211.000000,0.01220586546
212.000000,0.01111143392
213.000000,0.009517086535
214.000000,0.0122608222
215.000000,0.01109021296
216.000000,0.01222938588
217.000000,0.009025347257
218.000000,0.01007240491
219.000000,0.01086755399
220.000000,0.0101170816
221.000000,0.01011126832
222.000000,0.008541538381
223.000000,0.01033137948
224.000000,0.01045416422
225.000000,0.009956503602
226.000000,0.01004988123
227.000000,0.01147255312
228.000000,0.008762682377
229.000000,0.01147319204
230.000000,0.009773439273
231.000000,0.01019299888
232.000000,0.009699146006
233.000000,0.01187955711
234.000000,0.01160259817
235.000000,0.01009399687
236.000000,0.009204951729
237.000000,0.01379506332
238.000000,0.01116057179
239.000000,0.007789989082
240.000000,0.010074321
241.000000,0.009858687899
242.000000,0.01152742794
243.000000,0.009630726258
244.000000,0.008605544719
245.000000,0.0127608697
246.000000,0.006099681474
247.000000,0.007256779371
248.000000,0.009039790575
249.000000,0.009056957581
250.000000,0.009831340891
251.000000,0.01006323478
252.000000,0.01208211384
253.000000,0.007047132062
254.000000,0.01605431643
255.000000,0.01131017541
256.000000,0.00854155239
257.000000,0.00894511447
258.000000,0.009122521684
259.000000,0.005625622282
260.000000,0.01089048027
261.000000,0.007866870884
262.000000,0.009005177769
263.000000,0.007897953526
264.000000,0.008894239535
265.000000,0.01013812272
266.000000,0.007519180171
267.000000,0.01312487655
268.000000,0.007540539644
269.000000,0.009095410042
270.000000,0.01004091111
271.000000,0.01133507611
272.000000,0.0105139579
273.000000,0.01015577915
274.000000,0.01106444536
275.000000,0.0108170298
276.000000,0.008133024116
277.000000,0.01122887597
278.000000,0.008762973247
279.000000,0.007758667931
280.000000,0.009863178895
281.000000,0.009040198701
282.000000,0.01052726279
283.000000,0.01062489075
284.000000,0.008827825102
285.000000,0.01066345396
286.000000,0.009908174312
287.000000,0.006772689693
288.000000,0.01311676303
289.000000,0.01001252578
290.000000,0.009715246381
291.000000,0.01172528732
292.000000,0.007212424567
293.000000,0.008638888482
294.000000,0.01187959069
295.000000,0.006181748513
296.000000,0.008295773605
297.000000,0.01331641696
298.000000,0.01120220754
299.000000,0.008042687331
300.000000,0.01011298603
301.000000,0.01149452504
302.000000,0.008428442972
303.000000,0.01005119814
304.000000,0.01071404744
305.000000,0.01010280183
306.000000,0.01308029731
307.000000,0.01025303615
308.000000,0.009719911761
309.000000,0.01048102416
310.000000,0.009273149256
311.000000,0.008417730799
312.000000,0.009567430275
313.000000,0.008752749154
314.000000,0.01373847961
315.000000,0.01434246355
316.000000,0.00930325729
317.000000,0.004475645597
318.000000,0.009338378696
319.000000,0.01140771432
320.000000,0.008818982498
321.000000,0.01144677598
322.000000,0.0113512136
323.000000,0.008843143604
324.000000,0.00960062976
325.000000,0.008124018396
326.000000,0.009243274263
327.000000,0.007880169206
328.000000,0.009033827102
329.000000,0.01305165152
330.000000,0.009475845398
331.000000,0.01229071635
332.000000,0.0107569889
333.000000,0.007115073597
334.000000,0.009919118542
335.000000,0.009193856967
336.000000,0.007654434178
337.000000,0.009174983307
338.000000,0.01255260046
339.000000,0.01254334706
340.000000,0.009282281041
341.000000,0.008681445816
342.000000,0.01002736442
343.000000,0.01079422604
344.000000,0.01273504266
345.000000,0.008952011298
346.000000,0.008233583876
347.000000,0.01000661706
348.000000,0.006145532922
349.000000,0.009846093251
350.000000,0.01095599805
351.000000,0.006311988061
352.000000,0.01188644247
353.000000,0.008859794503
354.000000,0.009700940637
355.000000,0.009549432516
356.000000,0.009805581526
357.000000,0.0100406445
358.000000,0.008903887084
359.000000,0.006131867613
360.000000,0.01184042729
361.000000,0.009855778284
362.000000,0.01116184374
363.000000,0.01059109811
364.000000,0.01253153286
365.000000,0.0100601858
366.000000,0.009054619855
367.000000,0.01551821117
368.000000,0.01312864829
369.000000,0.01185476451
370.000000,0.01250742023
371.000000,0.01291356883
372.000000,0.00589310789
373.000000,0.009039838164
374.000000,0.01043062548
375.000000,0.01136346242
376.000000,0.00882650012
377.000000,0.01042730319
378.000000,0.0080406155
379.000000,0.009555594054
380.000000,0.006184779625
381.000000,0.009223653054
382.000000,0.01330732723
383.000000,0.00760083061
384.000000,0.01136474225
385.000000,0.007512418195
386.000000,0.007989496174
387.000000,0.0147721796
388.000000,0.008359885248
389.000000,0.009884036139
390.000000,0.009252847701
391.000000,0.004621253332
392.000000,0.009716846034
393.000000,0.01144599204
394.000000,0.007455874235
395.000000,0.007488724859
396.000000,0.008354925971
397.000000,0.0110284897
398.000000,0.008256076808
399.000000,0.0117388978
400.000000,0.01146545544
401.000000,0.00644292738
402.000000,0.007347208074
403.000000,0.009935095196
404.000000,0.008261719981
405.000000,0.01171784155
406.000000,0.01251090077
407.000000,0.008878164722
408.000000,0.01223989508
409.000000,0.01157758528
410.000000,0.01030091699
411.000000,0.01234468565
412.000000,0.00948452538
413.000000,0.01100313536
414.000000,0.008980128947
415.000000,0.008446085361
416.000000,0.01343934846
417.000000,0.01364915482
418.000000,0.01068750381
419.000000,0.01253635617
420.000000,0.009655585671
421.000000,0.009027512999
422.000000,0.0114886644
423.000000,0.01337260478
424.000000,0.01038523392
425.000000,0.01066708602
426.000000,0.01033922434
427.000000,0.008574851399
428.000000,0.006576160132
429.000000,0.01054734473
430.000000,0.007597162344
431.000000,0.01355562036
432.000000,0.01065541568
433.000000,0.01153331077
434.000000,0.01195247385
435.000000,0.00817172336
436.000000,0.008048263745
437.000000,0.01309877884
438.000000,0.01126642655
439.000000,0.01051110027
440.000000,0.01188241985
441.000000,0.006143662696
442.000000,0.01239846563
443.000000,0.01068726725
444.000000,0.01118348105
445.000000,0.01174609999
446.000000,0.01444523533
447.000000,0.01175638656
448.000000,0.01021411074
449.000000,0.008664479999
450.000000,0.01560707238
451.000000,0.006396244041
452.000000,0.009788557573
453.000000,0.009769423522
454.000000,0.008341041002
455.000000,0.008834584638
456.000000,0.00975507671
457.000000,0.007420440016
458.000000,0.009081909057
459.000000,0.01032583901
460.000000,0.006519265594
461.000000,0.009509245203
462.000000,0.009921522796
463.000000,0.009321056981
464.000000,0.00934276049
465.000000,0.009413909695
466.000000,0.008718638732
467.000000,0.008202627957
468.000000,0.01109418282
469.000000,0.009986568365
470.000000,0.01017481079
471.000000,0.01319416474
472.000000,0.01252792061
473.000000,0.009430550574
474.000000,0.0138099993
475.000000,0.01035537797
476.000000,0.01269933939
477.000000,0.006847378693
478.000000,0.01386389244
479.000000,0.01016020176
480.000000,0.008928926481
481.000000,0.00872624726
482.000000,0.005438100617
483.000000,0.00779156641
484.000000,0.008864025165
485.000000,0.01337116406
486.000000,0.01046328382
487.000000,0.009517491271
488.000000,0.01266024892
489.000000,0.01110544443
490.000000,0.009073022503
491.000000,0.008626961961
492.000000,0.006857541575
493.000000,0.01004031421
494.000000,0.005985704832
495.000000,0.01198344943
496.000000,0.007083921437
497.000000,0.01040803274
498.000000,0.01244228865
499.000000,0.008733301427
500.000000,0.01019049763
501.000000,0.01426327692
502.000000,0.009506408228
503.000000,0.01239792361
504.000000,0.01221665043
505.000000,0.006775072912
506.000000,0.0110642722
507.000000,0.007944361986
508.000000,0.01088824298
509.000000,0.01105613826
510.000000,0.0128106473
511.000000,0.01042190373
512.000000,0.01081017104
513.000000,0.01123596599
514.000000,0.01519068449
515.000000,0.01130040633
516.000000,0.01452033123
517.000000,0.009361667431
518.000000,0.008772218195
519.000000,0.01201041611
520.000000,0.009068754478
521.000000,0.0111491918
522.000000,0.01056581534
523.000000,0.01502185359
524.000000,0.01409402313
525.000000,0.01522514216
526.000000,0.01231091386
527.000000,0.01049101511
528.000000,0.01049208722
529.000000,0.01474610451
530.000000,0.008542478276
531.000000,0.009787616337
532.000000,0.008910979692
533.000000,0.01307034439
534.000000,0.01072845253
535.000000,0.01267480226
536.000000,0.01350569104
537.000000,0.01660389321
538.000000,0.01272882126
539.000000,0.00615301317
540.000000,0.00669107454
541.000000,0.01050452377
542.000000,0.01397997434
543.000000,0.009134425241
544.000000,0.01026405706
545.000000,0.008137658127
546.000000,0.009742963783
547.000000,0.01160226538
548.000000,0.01085932152
549.000000,0.0113438284
550.000000,0.01283898809
551.000000,0.01059738456
552.000000,0.009535026222
553.000000,0.005564076837
554.000000,0.008813479563
555.000000,0.01353298696
556.000000,0.008530767346
557.000000,0.009842856285
558.000000,0.009256583241
559.000000,0.01101058241
560.000000,0.01229443255
561.000000,0.009638432559
562.000000,0.009398949502
563.000000,0.012399061
564.000000,0.008139151038
565.000000,0.01193258456
566.000000,0.009788147734
567.000000,0.01099697857
568.000000,0.0130779926
569.000000,0.0129037751
570.000000,0.01354427915
571.000000,0.01029769775
572.000000,0.01173976509
573.000000,0.01028586986
574.000000,0.009738521305
575.000000,0.01116882584
576.000000,0.01263590371
577.000000,0.01225960399
578.000000,0.01208711017
579.000000,0.01021523338
580.000000,0.01241616039
581.000000,0.01329697299
582.000000,0.01636127992
583.000000,0.01199703579
584.000000,0.01496585996
585.000000,0.01329082626
586.000000,0.01935697158
587.000000,0.01512688046
588.000000,0.01735885525
589.000000,0.01574789017
590.000000,0.01261645642
591.000000,0.01290096234
592.000000,0.01495054116
593.000000,0.01324345359
594.000000,0.01631793975
595.000000,0.01471260012
596.000000,0.01597553239
597.000000,0.01380865124
598.000000,0.0214009524
599.000000,0.01601468506
600.000000,0.01882699957
601.000000,0.01827383517
602.000000,0.02140595955
603.000000,0.02477813142
604.000000,0.02517370727
605.000000,0.02180357673
606.000000,0.02783415272
607.000000,0.03169239807
608.000000,0.0352247116
609.000000,0.03507896762
610.000000,0.0394889273
611.000000,0.04275910756
612.000000,0.05821868264
613.000000,0.06247197158
614.000000,0.07438932913
615.000000,0.089585113
616.000000,0.1111085717
617.000000,0.1365023775
618.000000,0.1624705624
619.000000,0.1808715448
620.000000,0.1880389839
621.000000,0.1836748349
622.000000,0.1593436811
623.000000,0.1388366131
624.000000,0.1121762005
625.000000,0.09007167215
626.000000,0.07807510441
627.000000,0.05959459841
628.000000,0.05387378319
629.000000,0.04685572664
630.000000,0.04157906486
631.000000,0.03431819173
632.000000,0.03294813578
633.000000,0.0308561937
634.000000,0.02905598513
635.000000,0.02507184122
636.000000,0.0206758684
637.000000,0.02315673444
638.000000,0.01829055946
639.000000,0.0197816327
640.000000,0.0188033103
641.000000,0.02377512411
642.000000,0.0172520646
643.000000,0.01418575885
644.000000,0.01551630196
645.000000,0.01764840256
646.000000,0.01476647109
647.000000,0.01880965531
648.000000,0.01512368693
649.000000,0.01718848721
650.000000,0.01651006013
651.000000,0.01235923714
652.000000,0.01479091549
653.000000,0.01243481927
654.000000,0.01433561786
655.000000,0.0129230578
656.000000,0.01421937765
657.000000,0.01191878068
658.000000,0.01301118172
659.000000,0.01092069333
660.000000,0.01096379951
661.000000,0.01439560234
662.000000,0.01159848853
663.000000,0.009704423432
664.000000,0.009720555034
665.000000,0.01188467581
666.000000,0.01437348256
667.000000,0.01160127015
668.000000,0.01283861434
669.000000,0.01146638847
670.000000,0.01089156415
671.000000,0.01236668471
672.000000,0.01130129657
673.000000,0.01560577829
674.000000,0.01223375251
675.000000,0.01328291514
676.000000,0.01066078624
677.000000,0.01106839635
678.000000,0.008584591216
679.000000,0.01064903717
680.000000,0.008667039561
681.000000,0.00944197241
682.000000,0.01076955524
683.000000,0.00740411805
684.000000,0.007284749902
685.000000,0.008345781054
686.000000,0.01318616281
687.000000,0.01192263812
688.000000,0.01472886835
689.000000,0.01261525675
690.000000,0.009691077121
691.000000,0.0119321528
692.000000,0.01049974439
693.000000,0.007921364298
694.000000,0.01079006695
695.000000,0.01138019503
696.000000,0.01370984238
697.000000,0.01313444155
698.000000,0.008514608864
699.000000,0.00907034001
700.000000,0.01209229755
701.000000,0.01164289458
702.000000,0.01059493997
703.000000,0.01083267987
704.000000,0.01327736898
705.000000,0.01316503005
706.000000,0.01005838525
707.000000,0.01017394849
708.000000,0.01086611402
709.000000,0.009156551164
710.000000,0.009871530921
711.000000,0.01408020785
712.000000,0.0133961408
713.000000,0.0107873534
714.000000,0.01146386938
715.000000,0.01415134812
716.000000,0.00991138402
717.000000,0.009336560234
718.000000,0.01277821053
719.000000,0.01184226709
720.000000,0.00854151874
721.000000,0.01203529231
722.000000,0.01004853173
723.000000,0.01100819274
724.000000,0.01545668334
725.000000,0.01140052669
726.000000,0.01043971209
727.000000,0.009000829151
728.000000,0.01280791454
729.000000,0.01084603239
730.000000,0.01272809239
731.000000,0.01470692243
732.000000,0.01301095058
733.000000,0.01375597201
734.000000,0.01424368967
735.000000,0.00836430906
736.000000,0.01090143241
737.000000,0.008841347986
738.000000,0.01293992053
739.000000,0.0111391329
740.000000,0.01256959718
741.000000,0.01184719996
742.000000,0.01039751279
743.000000,0.01059970467
744.000000,0.01263926547
745.000000,0.01317405219
746.000000,0.01086372945
747.000000,0.008391678137
748.000000,0.007226395751
749.000000,0.01325670947
750.000000,0.01331346646
751.000000,0.01050301238
752.000000,0.01229418651
753.000000,0.01488062463
754.000000,0.01304462505
755.000000,0.0153478274
756.000000,0.01437627883
757.000000,0.01166923965
758.000000,0.01038651843
759.000000,0.01489172834
760.000000,0.0138475789
761.000000,0.01601043671
762.000000,0.01378205628
763.000000,0.01523647721
764.000000,0.01288060683
765.000000,0.009948577452
766.000000,0.01370570396
767.000000,0.01126328658
768.000000,0.01363041694
769.000000,0.01453493593
770.000000,0.01912143657
771.000000,0.01522401429
772.000000,0.0192859986
773.000000,0.01424826592
774.000000,0.02161492236
775.000000,0.0147338534
776.000000,0.01833582042
777.000000,0.02407033994
778.000000,0.02473074005
779.000000,0.02372983317
780.000000,0.02478429728
781.000000,0.02775000055
782.000000,0.02586634613
783.000000,0.03126804496
784.000000,0.03669391365
785.000000,0.03999628276
786.000000,0.03738987916
787.000000,0.04809643692
788.000000,0.05209833402
789.000000,0.05845169555
790.000000,0.06728286719
791.000000,0.07757616081
792.000000,0.0872860125
793.000000,0.1026615499
794.000000,0.1032107221
795.000000,0.1093875651
796.000000,0.1058631554
797.000000,0.1027465446
798.000000,0.08917142352
799.000000,0.07942210096
800.000000,0.06658110957
801.000000,0.05950435196
802.000000,0.05394009181
803.000000,0.04397941139
804.000000,0.04223383231
805.000000,0.03676081082
806.000000,0.03405316684
807.000000,0.0313806713
808.000000,0.0296313698
809.000000,0.02122120831
810.000000,0.02674499947
811.000000,0.02034479973
812.000000,0.01840447318
813.000000,0.01997733083
814.000000,0.02023943125
815.000000,0.02154597704
816.000000,0.01676903982
817.000000,0.02109542908
818.000000,0.01627539803
819.000000,0.01831491365
820.000000,0.01394516372
821.000000,0.01615409545
822.000000,0.0147757773
823.000000,0.01626133928
824.000000,0.01544364687
825.000000,0.0147581675
826.000000,0.01318889537
827.000000,0.01378144988
828.000000,0.01308857928
829.000000,0.01086855533
830.000000,0.00997309378
831.000000,0.01217683852
832.000000,0.01164643861
833.000000,0.01294282809
834.000000,0.01388182723
835.000000,0.01433119731
836.000000,0.009761406181
837.000000,0.01149040968
838.000000,0.01052329107
839.000000,0.01272838401
840.000000,0.01081694216
841.000000,0.0133059239
842.000000,0.01304408674
843.000000,0.01483439739
844.000000,0.01489834242
845.000000,0.009261438374
846.000000,0.01108031669
847.000000,0.01004654035
848.000000,0.01094614921
849.000000,0.01280436886
850.000000,0.01189824267
851.000000,0.01023117257
852.000000,0.01256413152
853.000000,0.009611728848
854.000000,0.0096481057
855.000000,0.009064822814
856.000000,0.01219571992
857.000000,0.01209663659
858.000000,0.01186631594
859.000000,0.01229716201
860.000000,0.01397896234
861.000000,0.009981110105
862.000000,0.01311706693
863.000000,0.01436763949
864.000000,0.01182430487
865.000000,0.008337900512
866.000000,0.007940493368
867.000000,0.01160904523
868.000000,0.0131538769
869.000000,0.009400571553
870.000000,0.01133557306
871.000000,0.01226400304
872.000000,0.01385653329
873.000000,0.009137094948
874.000000,0.01263077557
875.000000,0.01081936042
876.000000,0.01036544086
877.000000,0.0121359495
878.000000,0.01373557745
879.000000,0.01004654133
880.000000,0.008380935735
881.000000,0.01156800113
882.000000,0.009197963565
883.000000,0.009204869971
884.000000,0.009242269377
885.000000,0.009693465469
886.000000,0.01243451703
887.000000,0.01115229846
888.000000,0.01074777853
889.000000,0.01170377529
890.000000,0.01023518176
891.000000,0.01109658868
892.000000,0.01465101927
893.000000,0.01185417232
894.000000,0.01084512459
895.000000,0.01152465331
896.000000,0.01269269533
897.000000,0.01225118066
898.000000,0.01110365399
899.000000,0.01140612951
900.000000,0.01026279715
901.000000,0.01544612006
902.000000,0.01273569621
903.000000,0.01356444634
904.000000,0.01112857458
905.000000,0.01293719799
906.000000,0.009767656204
907.000000,0.009417494909
908.000000,0.01502791331
909.000000,0.01348983375
910.000000,0.01084201748
911.000000,0.007401168473
912.000000,0.01291406958
913.000000,0.01380278606
914.000000,0.01050583538
915.000000,0.01276120688
916.000000,0.009377014988
917.000000,0.01029499888
918.000000,0.01148025826
919.000000,0.01283513066
920.000000,0.0129783723
921.000000,0.01516078004
922.000000,0.01324679799
923.000000,0.01127912251
924.000000,0.0134117367
925.000000,0.0128032794
926.000000,0.01232968462
927.000000,0.01257846875
928.000000,0.01235503782
929.000000,0.0125362068
930.000000,0.006719355227
931.000000,0.01495117311
932.000000,0.01285844001
933.000000,0.01276017371
934.000000,0.01304109999
935.000000,0.01304178074
936.000000,0.01103560434
937.000000,0.01543034858
938.000000,0.01260700551
939.000000,0.01484039423
940.000000,0.01188446511
941.000000,0.01222634474
942.000000,0.01370468919
943.000000,0.01449703806
944.000000,0.01821949179
945.000000,0.01084945153
946.000000,0.01172176656
947.000000,0.01367167212
948.000000,0.01333465098
949.000000,0.0177143173
950.000000,0.0143438748
951.000000,0.01285285748
952.000000,0.01213710986
953.000000,0.01408691509
954.000000,0.01194365456
955.000000,0.01608011992
956.000000,0.01934047616
957.000000,0.01370807293
958.000000,0.01680183812
959.000000,0.01779430552
960.000000,0.01671031697
961.000000,0.01666562967
962.000000,0.01815021776
963.000000,0.02038675027
964.000000,0.01735781535
965.000000,0.01712798483
966.000000,0.01833484418
967.000000,0.01753893161
968.000000,0.02329133918
969.000000,0.02089613404
970.000000,0.02058948317
971.000000,0.02260303633
972.000000,0.02199720905
973.000000,0.02551657017
974.000000,0.01962661775
975.000000,0.02282684866
976.000000,0.02803816712
977.000000,0.02920215545
978.000000,0.02959209945
979.000000,0.03090028923
980.000000,0.03400623903
981.000000,0.03408987835
982.000000,0.03607720432
983.000000,0.04041603307
984.000000,0.04092876514
985.000000,0.04528413384
986.000000,0.05429778731
987.000000,0.05921757292
988.000000,0.06464431537
989.000000,0.07161187529
990.000000,0.08498240945
991.000000,0.09806375173
992.000000,0.1133633836
993.000000,0.1376877022
994.000000,0.1706142294
995.000000,0.2098331695
996.000000,0.2787782893
997.000000,0.3717791494
998.000000,0.5131393635
999.000000,0.7082736911
1000.000000,0.9165462033
1001.000000,1.013683869
1002.000000,0.9166979013
1003.000000,0.7087094678
1004.000000,0.5201717325
1005.000000,0.3783579944
1006.000000,0.2817200865
1007.000000,0.2198689507
1008.000000,0.1777645557
1009.000000,0.1434218167
1010.000000,0.1214951455
1011.000000,0.1069055514
1012.000000,0.09160885929
1013.000000,0.08630264833
1014.000000,0.07563666429
1015.000000,0.07481184107
1016.000000,0.06995987414
1017.000000,0.06933889008
1018.000000,0.06625454064
1019.000000,0.06974888586
1020.000000,0.07186283096
1021.000000,0.07623715247
1022.000000,0.082092129
1023.000000,0.09623544391
1024.000000,0.1102155536
1025.000000,0.1294984108
1026.000000,0.1616856882
1027.000000,0.2054660578
1028.000000,0.2649695995
1029.000000,0.3404464976
1030.000000,0.4082861061
1031.000000,0.4388250102
1032.000000,0.4064463895
1033.000000,0.338586642
1034.000000,0.2586824748
1035.000000,0.1965047388
1036.000000,0.1536802211
1037.000000,0.1218384983
1038.000000,0.09919547531
1039.000000,0.08781597127
1040.000000,0.07330383671
1041.000000,0.06022567405
1042.000000,0.05608134301
1043.000000,0.04796734651
1044.000000,0.04546690191
1045.000000,0.04450491058
1046.000000,0.03739761355
1047.000000,0.03356599961
1048.000000,0.03410205935
1049.000000,0.030428977
1050.000000,0.02653805341
1051.000000,0.02622503004
1052.000000,0.02539238892
1053.000000,0.02563947344
1054.000000,0.02492277593
1055.000000,0.02387673137
1056.000000,0.02336833412
1057.000000,0.01480866322
1058.000000,0.01785793036
1059.000000,0.02226940083
1060.000000,0.01950450894
1061.000000,0.01611997448
1062.000000,0.01653600354
1063.000000,0.01887980785
1064.000000,0.01691514078
1065.000000,0.0209162307
1066.000000,0.01341268627
1067.000000,0.01385726357
1068.000000,0.0188151041
1069.000000,0.01974466287
1070.000000,0.01735849295
1071.000000,0.01540370022
1072.000000,0.01370257577
1073.000000,0.0133036132
1074.000000,0.01532359769
1075.000000,0.01450290264
1076.000000,0.01548306868
1077.000000,0.01930830782
1078.000000,0.01453920408
1079.000000,0.01542588738
1080.000000,0.01861769501
1081.000000,0.01310925111
1082.000000,0.01594394201
1083.000000,0.01228498212
1084.000000,0.01125321057
1085.000000,0.02019064693
1086.000000,0.01363471867
1087.000000,0.01471684112
1088.000000,0.01094647746
1089.000000,0.01496414224
1090.000000,0.01477093582
1091.000000,0.01290378477
1092.000000,0.01537033889
1093.000000,0.01380882287
1094.000000,0.01399663073
1095.000000,0.0141401633
1096.000000,0.01370780469
1097.000000,0.009554632709
1098.000000,0.01558967844
1099.000000,0.01554510133
1100.000000,0.01155366692
1101.000000,0.01380994441
1102.000000,0.008674167923
1103.000000,0.0158942623
1104.000000,0.0155950309
1105.000000,0.01245579288
1106.000000,0.01489561458
1107.000000,0.01707198177
1108.000000,0.01270930922
1109.000000,0.01134672999
1110.000000,0.01282555826
1111.000000,0.0163346694
1112.000000,0.01596892421
1113.000000,0.01404837839
1114.000000,0.0129505817
1115.000000,0.0165349719
1116.000000,0.01157659626
1117.000000,0.01406050472
1118.000000,0.0134757386
1119.000000,0.01706314634
1120.000000,0.01696593505
1121.000000,0.01274532333
1122.000000,0.01829708492
1123.000000,0.01822634517
1124.000000,0.01634297428
1125.000000,0.01652164237
1126.000000,0.01701990712
1127.000000,0.0177565636
1128.000000,0.01850375401
1129.000000,0.01475745959
1130.000000,0.02361319205
1131.000000,0.01923452409
1132.000000,0.01847765994
1133.000000,0.02016300488
1134.000000,0.02223255339
1135.000000,0.02142705071
1136.000000,0.01988618237
1137.000000,0.02224639579
1138.000000,0.02654296796
1139.000000,0.02316166703
1140.000000,0.02492922368
1141.000000,0.02734395206
1142.000000,0.03197334716
1143.000000,0.03495867717
1144.000000,0.03400118086
1145.000000,0.04019387459
1146.000000,0.04922499265
1147.000000,0.05364215821
1148.000000,0.06158322596
1149.000000,0.07041350944
1150.000000,0.07969693325
1151.000000,0.09973084477
1152.000000,0.1145520806
1153.000000,0.1302587518
1154.000000,0.1542700309
1155.000000,0.156909302
1156.000000,0.1512605765
1157.000000,0.1370971937
1158.000000,0.1170673393
1159.000000,0.09769689108
1160.000000,0.08659708617
1161.000000,0.07622834039
1162.000000,0.06488862923
1163.000000,0.05456436062
1164.000000,0.04839980233
1165.000000,0.04476584404
1166.000000,0.0425741278
1167.000000,0.03986470238
1168.000000,0.03967597952
1169.000000,0.03683957474
1170.000000,0.037886933
1171.000000,0.03893733154
1172.000000,0.03843462447
1173.000000,0.04069514412
1174.000000,0.04521952454
1175.000000,0.0447036637
1176.000000,0.05207241088
1177.000000,0.06319859498
1178.000000,0.06944250075
1179.000000,0.08156007041
1180.000000,0.09494443126
1181.000000,0.1143635636
1182.000000,0.1291147958
1183.000000,0.1350847345
1184.000000,0.1298922109
1185.000000,0.1152307537
1186.000000,0.09535344411
1187.000000,0.08062419285
1188.000000,0.06841971429
1189.000000,0.05733448146
1190.000000,0.05034834744
1191.000000,0.04512494442
1192.000000,0.03849427704
1193.000000,0.03569141724
1194.000000,0.03046612891
1195.000000,0.02956039327
1196.000000,0.023902389
1197.000000,0.0276464345
1198.000000,0.02385733098
1199.000000,0.02093557378
1200.000000,0.01565319851
1201.000000,0.01944457302
1202.000000,0.01821709577
1203.000000,0.01698299848
1204.000000,0.01513251702
1205.000000,0.01677054972
1206.000000,0.01524210422
1207.000000,0.01746981552
1208.000000,0.01655600399
1209.000000,0.01567190028
1210.000000,0.01549150185
1211.000000,0.0160351529
1212.000000,0.01601809508
1213.000000,0.01712261258
1214.000000,0.01467196463
1215.000000,0.01405734724
1216.000000,0.01632660899
1217.000000,0.01278364849
1218.000000,0.01365630342
1219.000000,0.01437785321
1220.000000,0.01570395291
1221.000000,0.01533256853
1222.000000,0.01232969887
1223.000000,0.01280110508
1224.000000,0.008303151184
1225.000000,0.01459566611
1226.000000,0.01172856468
1227.000000,0.01287611605
1228.000000,0.01077171947
1229.000000,0.01035389712
1230.000000,0.01133421196
1231.000000,0.01189034894
1232.000000,0.01474811671
1233.000000,0.01342188467
1234.000000,0.01153940337
1235.000000,0.01462767589
1236.000000,0.01274963479
1237.000000,0.01635020886
1238.000000,0.01524573913
1239.000000,0.01261894677
1240.000000,0.00899397953
1241.000000,0.01295212337
1242.000000,0.008839911372
1243.000000,0.01374276107
1244.000000,0.01105942154
1245.000000,0.01528902257
1246.000000,0.01260067934
1247.000000,0.01211165496
1248.000000,0.0141711501
1249.000000,0.01117837199
1250.000000,0.01513959139
1251.000000,0.01431223344
1252.000000,0.01301845994
1253.000000,0.01076778582
1254.000000,0.01105816117
1255.000000,0.01293038151
1256.000000,0.01429978603
1257.000000,0.01205818426
1258.000000,0.01243502474
1259.000000,0.009138591403
1260.000000,0.009046024973
1261.000000,0.00926724539
1262.000000,0.01140879163
1263.000000,0.01379214668
1264.000000,0.01453989632
1265.000000,0.01400338258
1266.000000,0.01329632673
1267.000000,0.0100006918
1268.000000,0.01279645956
1269.000000,0.01358633176
1270.000000,0.0102650098
1271.000000,0.01108298433
1272.000000,0.01393428157
1273.000000,0.01250913752
1274.000000,0.0146411578
1275.000000,0.009931497351
1276.000000,0.008771040307
1277.000000,0.01486295938
1278.000000,0.01463479813
1279.000000,0.01277155597
1280.000000,0.01107084659
1281.000000,0.01012584229
1282.000000,0.01350639608
1283.000000,0.01083760569
1284.000000,0.009437982866
1285.000000,0.01132807893
1286.000000,0.01401102887
1287.000000,0.01250660174
1288.000000,0.008168443111
1289.000000,0.01291837742
1290.000000,0.01289973566
1291.000000,0.01252817656
1292.000000,0.008385813172
1293.000000,0.009360835596
1294.000000,0.009272845934
1295.000000,0.01156620394
1296.000000,0.01142852095
1297.000000,0.01138773386
1298.000000,0.008193788569
1299.000000,0.01144237692
1300.000000,0.01248876192
1301.000000,0.01349177623
1302.000000,0.01225212088
1303.000000,0.01013231616
1304.000000,0.01079952511
1305.000000,0.01045239164
1306.000000,0.01155929514
1307.000000,0.01109560898
1308.000000,0.008942851145
1309.000000,0.0121570124
1310.000000,0.01250147704
1311.000000,0.008745448264
1312.000000,0.008990712772
1313.000000,0.01366239269
1314.000000,0.01105431419
1315.000000,0.01047618358
1316.000000,0.008652307745
1317.000000,0.009599553327
1318.000000,0.01111630883
1319.000000,0.006141823718
1320.000000,0.01141890723
1321.000000,0.0121319752
1322.000000,0.009953194614
1323.000000,0.009051711641
1324.000000,0.008302525175
1325.000000,0.01495333233
1326.000000,0.01217454771
1327.000000,0.008826908208
1328.000000,0.01273441407
1329.000000,0.01135699441
1330.000000,0.009450275409
1331.000000,0.01292766967
1332.000000,0.009938398962
1333.000000,0.01392163356
1334.000000,0.01205614064
1335.000000,0.01288141153
1336.000000,0.01144664945
1337.000000,0.007645471463
1338.000000,0.009488379542
1339.000000,0.009270724145
1340.000000,0.01159468311
1341.000000,0.01400245999
1342.000000,0.01153482424
1343.000000,0.01249617412
1344.000000,0.0100445842
1345.000000,0.01049938789
1346.000000,0.01014024661
1347.000000,0.01301049803
1348.000000,0.006343153189
1349.000000,0.01161294502
1350.000000,0.01215036565
1351.000000,0.01272202788
1352.000000,0.0129629976
1353.000000,0.0106838847
1354.000000,0.01029202769
1355.000000,0.008506065206
1356.000000,0.01590310489
1357.000000,0.0137891755
1358.000000,0.01041115532
1359.000000,0.01006548075
1360.000000,0.01346961464
1361.000000,0.01117725089
1362.000000,0.01226397965
1363.000000,0.008647067101
1364.000000,0.00869518714
1365.000000,0.01477625512
1366.000000,0.008316243941
1367.000000,0.01240725082
1368.000000,0.01298724897
1369.000000,0.01287262397
1370.000000,0.01208732928
1371.000000,0.007959687279
1372.000000,0.01148753909
1373.000000,0.01112236522
1374.000000,0.01011295349
1375.000000,0.008731279642
1376.000000,0.01142236639
1377.000000,0.01440546114
1378.000000,0.01101263099
1379.000000,0.01143735461
1380.000000,0.01549433061
1381.000000,0.01048208839
1382.000000,0.01360753928
1383.000000,0.009479987538
1384.000000,0.009712386632
1385.000000,0.01211495291
1386.000000,0.01249336492
1387.000000,0.01267220896
1388.000000,0.01036048586
1389.000000,0.0134630847
1390.000000,0.01489032834
1391.000000,0.009513782312
1392.000000,0.01369355798
1393.000000,0.01274988535
1394.000000,0.01460343539
1395.000000,0.01441119745
1396.000000,0.01446588017
1397.000000,0.01655301381
1398.000000,0.01432528676
1399.000000,0.01468136266
1400.000000,0.01349883032
1401.000000,0.01377470431
1402.000000,0.01626265473
1403.000000,0.01412250699
1404.000000,0.01637488807
1405.000000,0.01474458288
1406.000000,0.01754582819
1407.000000,0.01481364811
1408.000000,0.01704857837
1409.000000,0.01939887506
1410.000000,0.01576295683
1411.000000,0.01490091178
1412.000000,0.02104564487
1413.000000,0.01847786438
1414.000000,0.01817516038
1415.000000,0.02231058522
1416.000000,0.01928226137
1417.000000,0.01989176778
1418.000000,0.02256615338
1419.000000,0.020751694
1420.000000,0.01850416119
1421.000000,0.02273023955
1422.000000,0.02292803421
1423.000000,0.0245346505
1424.000000,0.02742124612
1425.000000,0.02638298865
1426.000000,0.02652890147
1427.000000,0.02780833906
1428.000000,0.02809895568
1429.000000,0.03193723759
1430.000000,0.0328718411
1431.000000,0.03716472223
1432.000000,0.04046056471
1433.000000,0.04487920585
1434.000000,0.04259282773
1435.000000,0.05002441785
1436.000000,0.05361779646
1437.000000,0.0605866825
1438.000000,0.06550490692
1439.000000,0.07434224887
1440.000000,0.08684207082
1441.000000,0.09393255205
1442.000000,0.1051845635
1443.000000,0.1247834989
1444.000000,0.1386779052
1445.000000,0.1552222646
1446.000000,0.1744274711
1447.000000,0.1945712524
1448.000000,0.2162558228
1449.000000,0.2281052899
1450.000000,0.2309111381
1451.000000,0.230224225
1452.000000,0.2154562878
1453.000000,0.1979859195
1454.000000,0.179959604
1455.000000,0.162884208
1456.000000,0.1369232637
1457.000000,0.1215905697
1458.000000,0.100031224
1459.000000,0.09568257074
1460.000000,0.08449563112
1461.000000,0.07374124771
1462.000000,0.06759103419
1463.000000,0.06149167876
1464.000000,0.05529161063
1465.000000,0.05055250858
1466.000000,0.04346236765
1467.000000,0.04533114655
1468.000000,0.03961212706
1469.000000,0.0345672791
1470.000000,0.0363658949
1471.000000,0.03122314477
1472.000000,0.03036926624
1473.000000,0.02909050423
1474.000000,0.03335211276
1475.000000,0.03005481409
1476.000000,0.02618563537
1477.000000,0.02427714948
1478.000000,0.02518396137
1479.000000,0.0229101633
1480.000000,0.02332162846
1481.000000,0.01968062802
1482.000000,0.01999596026
1483.000000,0.02215388155
1484.000000,0.01989662823
1485.000000,0.0198445851
1486.000000,0.01974489128
1487.000000,0.01800884296
1488.000000,0.01598385293
1489.000000,0.01861002205
1490.000000,0.01923621395
1491.000000,0.01876907037
1492.000000,0.01816842163
1493.000000,0.0171988084
1494.000000,0.01890646535
1495.000000,0.01650409767
1496.000000,0.01943271858
1497.000000,0.01199013064
1498.000000,0.01854341314
1499.000000,0.01680945256
1500.000000,0.01761960964
1501.000000,0.01435923148
1502.000000,0.0189310723
1503.000000,0.01346077907
1504.000000,0.01669342341
1505.000000,0.0141879437
1506.000000,0.01858691278
1507.000000,0.01389479734
1508.000000,0.01338446402
1509.000000,0.012839228
1510.000000,0.01758122934
1511.000000,0.0160193883
1512.000000,0.01670171944
1513.000000,0.01521907447
1514.000000,0.01833767439
1515.000000,0.01356320135
1516.000000,0.01338390153
1517.000000,0.01708418213
1518.000000,0.01499105189
1519.000000,0.01392065925
1520.000000,0.0164575745
1521.000000,0.01320413461
1522.000000,0.01629562445
1523.000000,0.01443790989
1524.000000,0.01658905988
1525.000000,0.01605194046
1526.000000,0.0199160715
1527.000000,0.01614042474
1528.000000,0.01631666611
1529.000000,0.01448454194
1530.000000,0.01664123813
1531.000000,0.01685651064
1532.000000,0.01666509783
1533.000000,0.01871550166
1534.000000,0.01465423981
1535.000000,0.01747509043
1536.000000,0.01668336348
1537.000000,0.01973900812
1538.000000,0.01539435664
1539.000000,0.01897311987
1540.000000,0.01698164651
1541.000000,0.01407991117
1542.000000,0.01993167297
1543.000000,0.01656196254
1544.000000,0.0177567309
1545.000000,0.01698458906
1546.000000,0.01785151402
1547.000000,0.01695841276
1548.000000,0.01675971198
1549.000000,0.01779280916
1550.000000,0.0202719003
1551.000000,0.01466253735
1552.000000,0.01648629946
1553.000000,0.02062947915
1554.000000,0.02056780296
1555.000000,0.02059053431
1556.000000,0.02319146828
1557.000000,0.02200086423
1558.000000,0.02340124857
1559.000000,0.02496095228
1560.000000,0.02401809312
1561.000000,0.02588366517
1562.000000,0.02909961759
1563.000000,0.02781717745
1564.000000,0.02888077893
1565.000000,0.02878279818
1566.000000,0.03332516734
1567.000000,0.03300103137
1568.000000,0.03853056625
1569.000000,0.04313915355
1570.000000,0.05008253425
1571.000000,0.05153994226
1572.000000,0.05874798392
1573.000000,0.06280417597
1574.000000,0.07160059215
1575.000000,0.07779821718
1576.000000,0.09253976566
1577.000000,0.1017570912
1578.000000,0.1255970409
1579.000000,0.1504968568
1580.000000,0.1797256524
1581.000000,0.2028630725
1582.000000,0.2241388829
1583.000000,0.237208834
1584.000000,0.2328978734
1585.000000,0.2176595134
1586.000000,0.1958755565
1587.000000,0.1715457083
1588.000000,0.15640068
1589.000000,0.1467600194
1590.000000,0.1417812329
1591.000000,0.1403952388
1592.000000,0.1435705878
1593.000000,0.1486969377
1594.000000,0.1717465234
1595.000000,0.18928879
1596.000000,0.2270341398
1597.000000,0.2772933944
1598.000000,0.3434721784
1599.000000,0.4232764058
1600.000000,0.5236860958
1601.000000,0.6067912471
1602.000000,0.6438079898
1603.000000,0.6063564274
1604.000000,0.5163922494
1605.000000,0.4180615306
1606.000000,0.3271051367
1607.000000,0.2605296056
1608.000000,0.2075583597
1609.000000,0.1715070175
1610.000000,0.1418950799
1611.000000,0.1197962267
1612.000000,0.1006389329
1613.000000,0.08596925564
1614.000000,0.07803893723
1615.000000,0.0695346159
1616.000000,0.06327875256
1617.000000,0.05546335811
1618.000000,0.0521210349
1619.000000,0.04840940572
1620.000000,0.0414349235
1621.000000,0.03850030962
1622.000000,0.03737976791
1623.000000,0.03464004085
1624.000000,0.03050150946
1625.000000,0.03134110678
1626.000000,0.02679246667
1627.000000,0.02621400451
1628.000000,0.03155587354
1629.000000,0.02845677466
1630.000000,0.0244837754
1631.000000,0.02366015946
1632.000000,0.02294337087
1633.000000,0.02485786703
1634.000000,0.02216142387
1635.000000,0.022859622
1636.000000,0.02173564012
1637.000000,0.01777437799
1638.000000,0.01946869248
1639.000000,0.0199882333
1640.000000,0.01549906042
1641.000000,0.0194424044
1642.000000,0.01816708059
1643.000000,0.01974580872
1644.000000,0.01769776622
1645.000000,0.01699354092
1646.000000,0.01456200644
1647.000000,0.01471839898
1648.000000,0.01595830281
1649.000000,0.0166861325
1650.000000,0.01979399597
1651.000000,0.01880394766
1652.000000,0.01368874198
1653.000000,0.01770181692
1654.000000,0.01247978986
1655.000000,0.01285177068
1656.000000,0.01628427392
1657.000000,0.01697056131
1658.000000,0.01216437898
1659.000000,0.01565922334
1660.000000,0.01350283549
1661.000000,0.01746602521
1662.000000,0.01328775538
1663.000000,0.01268081055
1664.000000,0.01326914751
1665.000000,0.01494963851
1666.000000,0.01605816199
1667.000000,0.01418503743
1668.000000,0.01463900448
1669.000000,0.01210262984
1670.000000,0.01559271913
1671.000000,0.01208623126
1672.000000,0.01312638225
1673.000000,0.01213935867
1674.000000,0.01169830223
1675.000000,0.01126862252
1676.000000,0.0112042492
1677.000000,0.01504997243
1678.000000,0.006995638426
1679.000000,0.01379825737
1680.000000,0.008903188488
1681.000000,0.01374684751
1682.000000,0.009892855625
1683.000000,0.01186297411
1684.000000,0.01218563296
1685.000000,0.00920924939
1686.000000,0.01408843293
1687.000000,0.01098814109
1688.000000,0.01208139765
1689.000000,0.0166513682
1690.000000,0.01148575156
1691.000000,0.01399579015
1692.000000,0.01036029952
1693.000000,0.01494390123
1694.000000,0.009392824859
1695.000000,0.01291758293
1696.000000,0.009390378478
1697.000000,0.01262347415
1698.000000,0.01516399866
1699.000000,0.01684168855
1700.000000,0.01005201738
1701.000000,0.01400515022
1702.000000,0.006177019498
1703.000000,0.009684443281
1704.000000,0.01353236393
1705.000000,0.01114115672
1706.000000,0.01179619034
1707.000000,0.01032864623
1708.000000,0.01227128648
1709.000000,0.01347386029
1710.000000,0.0154921676
1711.000000,0.01246750643
1712.000000,0.01280684359
1713.000000,0.01350246087
1714.000000,0.01098259593
1715.000000,0.01398936521
1716.000000,0.01035754007
1717.000000,0.0150553923
1718.000000,0.01116435133
1719.000000,0.0114796479
1720.000000,0.01159856855
1721.000000,0.01164348429
1722.000000,0.01282452225
1723.000000,0.01076122639
1724.000000,0.0100809528
1725.000000,0.00908126568
1726.000000,0.01019605837
1727.000000,0.009341491987
1728.000000,0.01326795844
1729.000000,0.01133515842
1730.000000,0.010966947
1731.000000,0.008376917197
1732.000000,0.01280224829
1733.000000,0.004337185608
1734.000000,0.01160615195
1735.000000,0.01109201374
1736.000000,0.009728804098
1737.000000,0.01130267729
1738.000000,0.008778173947
1739.000000,0.0107607583
1740.000000,0.01014785459
1741.000000,0.0101753589
1742.000000,0.01117117893
1743.000000,0.01456856586
1744.000000,0.01231949714
1745.000000,0.01270709584
1746.000000,0.00953677864
1747.000000,0.01153309585
1748.000000,0.01060259761
1749.000000,0.01021160876
1750.000000,0.009233523294
1751.000000,0.01149875518
1752.000000,0.0136713104
1753.000000,0.01219585405
1754.000000,0.01436481886
1755.000000,0.01158264207
1756.000000,0.009439778067
1757.000000,0.01039855059
1758.000000,0.01001015714
1759.000000,0.007386037353
1760.000000,0.007587656511
1761.000000,0.01140476857
1762.000000,0.01202073111
1763.000000,0.01556996089
1764.000000,0.01296448938
1765.000000,0.01308493836
1766.000000,0.01163949397
1767.000000,0.01351650754
1768.000000,0.008319100101
1769.000000,0.01073487276
1770.000000,0.01545458987
1771.000000,0.01181500029
1772.000000,0.0120297487
1773.000000,0.009874974511
1774.000000,0.006829547999
1775.000000,0.01294758686
1776.000000,0.006597825787
1777.000000,0.01426923275
1778.000000,0.007911787423
1779.000000,0.01278353493
1780.000000,0.009593940393
1781.000000,0.01225785523
1782.000000,0.008248421954
1783.000000,0.007873667964
1784.000000,0.01261174866
1785.000000,0.01231398526
1786.000000,0.01148970165
1787.000000,0.01162604084
1788.000000,0.009526751891
1789.000000,0.01381090448
1790.000000,0.01000675148
1791.000000,0.008785994539
1792.000000,0.01068762028
1793.000000,0.00979094848
1794.000000,0.008970699177
1795.000000,0.006833589827
1796.000000,0.01390963943
1797.000000,0.009728372772
1798.000000,0.01501663056
1799.000000,0.009728625952
1800.000000,0.01019613875
1801.000000,0.01072494789
1802.000000,0.008693692173
1803.000000,0.009169325892
1804.000000,0.008938145109
1805.000000,0.009196318758
1806.000000,0.01236120346
1807.000000,0.007449855061
1808.000000,0.009609361666
1809.000000,0.01662699529
1810.000000,0.009082114486
1811.000000,0.01091296077
1812.000000,0.008626483247
1813.000000,0.01005391588
1814.000000,0.009817784515
1815.000000,0.01253763501
1816.000000,0.01004879841
1817.000000,0.009408418941
1818.000000,0.008862462551
1819.000000,0.008505285926
1820.000000,0.006418580082
1821.000000,0.01249123863
1822.000000,0.007174313318
1823.000000,0.006403876054
1824.000000,0.009111601066
1825.000000,0.004762833016
1826.000000,0.008639168187
1827.000000,0.01043203795
1828.000000,0.009282649774
1829.000000,0.01120763375
1830.000000,0.01089665388
1831.000000,0.0120581397
1832.000000,0.01183546099
1833.000000,0.0122903075
1834.000000,0.009775186422
1835.000000,0.008321348184
1836.000000,0.00884920909
1837.000000,0.008413581811
1838.000000,0.009403826382
1839.000000,0.008037230508
1840.000000,0.009466087281
1841.000000,0.01218024215
1842.000000,0.01017347782
1843.000000,0.009320048154
1844.000000,0.01066678369
1845.000000,0.01102304528
1846.000000,0.0100182609
1847.000000,0.01092605222
1848.000000,0.009769428341
1849.000000,0.009908342337
1850.000000,0.009821386322
1851.000000,0.007076586583
1852.000000,0.01019534604
1853.000000,0.008291201527
1854.000000,0.009579273585
1855.000000,0.01117419953
1856.000000,0.01118122077
1857.000000,0.01504912453
1858.000000,0.007123722761
1859.000000,0.01255313822
1860.000000,0.01136498362
1861.000000,0.009821594528
1862.000000,0.01155437822
1863.000000,0.008484296877
1864.000000,0.01043325952
1865.000000,0.009653228748
1866.000000,0.01399879845
1867.000000,0.009988846921
1868.000000,0.0103246559
1869.000000,0.01137763059
1870.000000,0.009475601178
1871.000000,0.01095832831
1872.000000,0.01108740299
1873.000000,0.01192066148
1874.000000,0.01049660936
1875.000000,0.01127182835
1876.000000,0.00854327263
1877.000000,0.01366495013
1878.000000,0.008807858099
1879.000000,0.007092060229
1880.000000,0.00944351216
1881.000000,0.009940557385
1882.000000,0.005475635654
1883.000000,0.01027836891
1884.000000,0.01266105017
1885.000000,0.01081643511
1886.000000,0.01470394165
1887.000000,0.008902897961
1888.000000,0.008109942495
1889.000000,0.01162374174
1890.000000,0.0140586892
1891.000000,0.01259519813
1892.000000,0.007549917788
1893.000000,0.007059224937
1894.000000,0.0102501335
1895.000000,0.01004296005
1896.000000,0.01244726429
1897.000000,0.009784365087
1898.000000,0.009103891246
1899.000000,0.01110399554
1900.000000,0.01094640594
1901.000000,0.01211125505
1902.000000,0.0127210156
1903.000000,0.007914423526
1904.000000,0.01081218953
1905.000000,0.009259714944
1906.000000,0.009461125379
1907.000000,0.01141157059
1908.000000,0.008381341138
1909.000000,0.00765136379
1910.000000,0.01317799961
1911.000000,0.01315840493
1912.000000,0.007769862145
1913.000000,0.01235399789
1914.000000,0.01000197634
1915.000000,0.01135955909
1916.000000,0.007392259825
1917.000000,0.00756556532
1918.000000,0.009172483046
1919.000000,0.009758983949
1920.000000,0.009214851211
1921.000000,0.01239692266
1922.000000,0.009875328558
1923.000000,0.0113982108
1924.000000,0.01266214506
1925.000000,0.01140756635
1926.000000,0.008700436292
1927.000000,0.01128964989
1928.000000,0.009826290751
1929.000000,0.009928667044
1930.000000,0.01017919109
1931.000000,0.009757135994
1932.000000,0.007996343304
1933.000000,0.010604363
1934.000000,0.009551120037
1935.000000,0.01183057412
1936.000000,0.007922831994
1937.000000,0.00944189007
1938.000000,0.009254296795
1939.000000,0.008308327713
1940.000000,0.009145913648
1941.000000,0.0109480068
1942.000000,0.01065835563
1943.000000,0.008432223339
1944.000000,0.006250831857
1945.000000,0.009133747144
1946.000000,0.009547961838
1947.000000,0.0101999531
1948.000000,0.007072801654
1949.000000,0.01339534821
1950.000000,0.01555225141
1951.000000,0.007598956732
1952.000000,0.01104752845
1953.000000,0.006941493002
1954.000000,0.008143195086
1955.000000,0.009291369306
1956.000000,0.01011148929
1957.000000,0.01093289818
1958.000000,0.01203367991
1959.000000,0.01248145704
1960.000000,0.01066497098
1961.000000,0.01218936771
1962.000000,0.01021255359
1963.000000,0.01140414647
1964.000000,0.01478869339
1965.000000,0.008155761875
1966.000000,0.007138139014
1967.000000,0.009445428012
1968.000000,0.009186335218
1969.000000,0.01455177898
1970.000000,0.007076138175
1971.000000,0.007795627732
1972.000000,0.008659011066
1973.000000,0.008338188898
1974.000000,0.01261632544
1975.000000,0.008672353359
1976.000000,0.0106727163
1977.000000,0.00893108254
1978.000000,0.01399977958
1979.000000,0.01078190068
1980.000000,0.009830724731
1981.000000,0.01383121006
1982.000000,0.008176197542
1983.000000,0.007406419969
1984.000000,0.009441537104
1985.000000,0.01091404381
1986.000000,0.01000441547
1987.000000,0.0103293468
1988.000000,0.01182009832
1989.000000,0.01043008567
1990.000000,0.01428637361
1991.000000,0.005567787455
1992.000000,0.01128249885
1993.000000,0.01256177983
1994.000000,0.005617559706
1995.000000,0.007219472869
1996.000000,0.008276352142
1997.000000,0.01318499147
1998.000000,0.00620604056
1999.000000,0.0117940503
2000.000000,0.007456789505
