pixel_index,raman_shift_cm-1,intensity
0,201.000,-12.195698
1,202.000,3.006575
2,203.000,8.398121
3,204.000,-5.407255
4,205.000,14.138312
5,206.000,4.845988
6,207.000,5.652112
7,208.000,3.459731
8,209.000,1.410133
9,210.000,-0.880691
10,211.000,-2.464648
11,212.000,-6.238261
12,213.000,-4.619234
13,214.000,-1.718878
14,215.000,-1.975407
15,216.000,-8.374999
16,217.000,10.520425
17,218.000,-3.036181
18,219.000,14.080437
19,220.000,1.875655
20,221.000,0.034136
21,222.000,3.84405
22,223.000,-16.227373
23,224.000,8.901796
24,225.000,3.356319
25,226.000,3.461404
26,227.000,-3.219032
27,228.000,5.577044
28,229.000,-3.45682
29,230.000,-7.234507
30,231.000,-5.794536
31,232.000,-3.437349
32,233.000,1.915793
33,234.000,-2.91942
34,235.000,4.155513
35,236.000,3.31669
36,237.000,2.594238
37,238.000,-4.095669
38,239.000,-7.047276
39,240.000,-0.237033
40,241.000,9.652194
41,242.000,5.99621
42,243.000,0.692392
43,244.000,3.960098
44,245.000,-2.639182
45,246.000,-0.095698
46,247.000,1.02503
47,248.000,3.987147
48,249.000,-2.96817
49,250.000,-1.433514
50,251.000,-0.524558
51,252.000,3.628542
52,253.000,3.182195
53,254.000,-8.698801
54,255.000,5.471796
55,256.000,6.856512
56,257.000,3.672372
57,258.000,-9.010069
58,259.000,5.100268
59,260.000,5.296288
60,261.000,8.020788
61,262.000,-1.698866
62,263.000,0.77795
63,264.000,-7.29179
64,265.000,-2.21066
65,266.000,1.313322
66,267.000,-1.496894
67,268.000,3.820521
68,269.000,-9.396931
69,270.000,5.726218
70,271.000,6.779434
71,272.000,-6.153286
72,273.000,-0.507057
73,274.000,-8.807345
74,275.000,3.344773
75,276.000,2.797627
76,277.000,2.815251
77,278.000,-7.627961
78,279.000,2.617483
79,280.000,4.294774
80,281.000,1.257072
81,282.000,-1.839824
82,283.000,-9.672546
83,284.000,-0.089893
84,285.000,-3.619718
85,286.000,8.954641
86,287.000,-4.36509
87,288.000,-0.166916
88,289.000,3.84633
89,290.000,4.08916
90,291.000,-6.513377
91,292.000,-2.606106
92,293.000,-2.708994
93,294.000,13.542976
94,295.000,-7.227947
95,296.000,3.134688
96,297.000,3.875825
97,298.000,-0.86364
98,299.000,-0.99074
99,300.000,2.343955
100,301.000,-4.649173
101,302.000,4.978271
102,303.000,1.173675
103,304.000,4.520954
104,305.000,-13.940843
105,306.000,13.590097
106,307.000,-3.921253
107,308.000,4.313458
108,309.000,1.272463
109,310.000,-2.743758
110,311.000,3.087209
111,312.000,-4.546017
112,313.000,6.470732
113,314.000,4.673779
114,315.000,-5.880783
115,316.000,2.030574
116,317.000,5.500149
117,318.000,0.711421
118,319.000,-2.578827
119,320.000,-3.169295
120,321.000,15.12325
121,322.000,9.532035
122,323.000,-9.107431
123,324.000,3.626889
124,325.000,-7.972991
125,326.000,-0.24717
126,327.000,-0.034206
127,328.000,-7.247552
128,329.000,-0.477326
129,330.000,-10.173181
130,331.000,-0.834236
131,332.000,2.225796
132,333.000,8.461165
133,334.000,7.184097
134,335.000,7.607492
135,336.000,-10.395673
136,337.000,-1.628816
137,338.000,4.087168
138,339.000,-5.065067
139,340.000,4.883401
140,341.000,-12.053775
141,342.000,2.35707
142,343.000,3.359701
143,344.000,-11.914669
144,345.000,-3.400838
145,346.000,-8.962532
146,347.000,2.471625
147,348.000,3.683108
148,349.000,-8.429896
149,350.000,-2.502048
150,351.000,-8.545164
151,352.000,4.264631
152,353.000,-2.371325
153,354.000,8.758494
154,355.000,-13.405266
155,356.000,-5.014544
156,357.000,4.365874
157,358.000,-2.955085
158,359.000,5.427719
159,360.000,4.792426
160,361.000,2.366649
161,362.000,-2.480408
162,363.000,-9.819338
163,364.000,-3.794434
164,365.000,7.841552
165,366.000,5.956683
166,367.000,7.4747
167,368.000,-1.459875
168,369.000,2.196954
169,370.000,-4.000554
170,371.000,-5.341447
171,372.000,7.532628
172,373.000,-7.471254
173,374.000,0.924969
174,375.000,-3.51725
175,376.000,-6.502473
176,377.000,-10.534824
177,378.000,-1.356878
178,379.000,3.434564
179,380.000,4.564204
180,381.000,0.626988
181,382.000,-2.507802
182,383.000,-6.644571
183,384.000,9.464299
184,385.000,-11.722439
185,386.000,6.779267
186,387.000,-11.485491
187,388.000,-5.992499
188,389.000,-2.186998
189,390.000,-2.291016
190,391.000,3.811452
191,392.000,1.898492
192,393.000,-2.072574
193,394.000,0.601713
194,395.000,-15.768086
195,396.000,-10.972142
196,397.000,-6.071994
197,398.000,0.668818
198,399.000,-4.203106
199,400.000,-0.447191
200,401.000,8.681168
201,402.000,8.665147
202,403.000,-7.333171
203,404.000,6.163527
204,405.000,0.850868
205,406.000,-1.69214
206,407.000,4.011277
207,408.000,-1.432537
208,409.000,-5.15556
209,410.000,3.036845
210,411.000,8.199408
211,412.000,3.800045
212,413.000,13.149537
213,414.000,5.32208
214,415.000,5.340919
215,416.000,6.913438
216,417.000,-0.88777
217,418.000,-2.008312
218,419.000,-8.513002
219,420.000,-5.358247
220,421.000,4.109556
221,422.000,5.669132
222,423.000,1.514484
223,424.000,1.548298
224,425.000,2.856633
225,426.000,1.958036
226,427.000,0.704438
227,428.000,-1.178131
228,429.000,2.320051
229,430.000,1.634594
230,431.000,-1.74678
231,432.000,0.648689
232,433.000,6.346315
233,434.000,-5.106319
234,435.000,-0.403262
235,436.000,5.833373
236,437.000,0.60219
237,438.000,-3.159535
238,439.000,9.13808
239,440.000,4.763603
240,441.000,3.094721
241,442.000,-4.328041
242,443.000,-5.121322
243,444.000,-1.217819
244,445.000,7.708951
245,446.000,3.424137
246,447.000,3.225239
247,448.000,-12.281008
248,449.000,-2.338096
249,450.000,5.502993
250,451.000,-1.806037
251,452.000,-1.498879
252,453.000,0.137727
253,454.000,-4.219023
254,455.000,2.010158
255,456.000,-1.127524
256,457.000,-2.233331
257,458.000,0.504221
258,459.000,-5.684486
259,460.000,-1.791681
260,461.000,0.788397
261,462.000,-10.018678
262,463.000,2.957934
263,464.000,1.27595
264,465.000,0.181932
265,466.000,8.525799
266,467.000,0.725843
267,468.000,4.432714
268,469.000,7.892925
269,470.000,6.789909
270,471.000,-10.738218
271,472.000,0.31946
272,473.000,4.1795
273,474.000,3.895803
274,475.000,2.278723
275,476.000,12.750987
276,477.000,11.162695
277,478.000,-5.157626
278,479.000,2.411934
279,480.000,8.103167
280,481.000,3.603055
281,482.000,1.760572
282,483.000,-0.459089
283,484.000,-1.152629
284,485.000,-1.391665
285,486.000,-0.475489
286,487.000,-3.221071
287,488.000,-3.62192
288,489.000,-2.142631
289,490.000,14.163992
290,491.000,9.421891
291,492.000,6.004007
292,493.000,1.061322
293,494.000,9.549549
294,495.000,9.037778
295,496.000,7.690239
296,497.000,-2.194467
297,498.000,1.700673
298,499.000,4.632864
299,500.000,-2.886714
300,501.000,0.64565
301,502.000,-2.697633
302,503.000,0.073426
303,504.000,6.525539
304,505.000,5.761613
305,506.000,2.626031
306,507.000,-3.605839
307,508.000,3.94242
308,509.000,-10.08437
309,510.000,11.54409
310,511.000,-7.358612
311,512.000,-12.230544
312,513.000,7.220711
313,514.000,-1.935162
314,515.000,-3.888428
315,516.000,-8.678673
316,517.000,3.687031
317,518.000,9.510938
318,519.000,-4.988689
319,520.000,-1.007293
320,521.000,4.618038
321,522.000,9.070842
322,523.000,0.835614
323,524.000,-2.312457
324,525.000,3.315161
325,526.000,-0.612136
326,527.000,1.265675
327,528.000,4.625792
328,529.000,0.441676
329,530.000,1.138588
330,531.000,-5.24281
331,532.000,4.592645
332,533.000,-0.945374
333,534.000,11.097954
334,535.000,-3.391392
335,536.000,10.125791
336,537.000,13.820499
337,538.000,7.724883
338,539.000,-1.818916
339,540.000,-2.317703
340,541.000,-12.3051
341,542.000,-3.043864
342,543.000,0.035804
343,544.000,12.97242
344,545.000,2.320952
345,546.000,5.683258
346,547.000,0.473534
347,548.000,1.736693
348,549.000,5.683887
349,550.000,9.50571
350,551.000,-6.093705
351,552.000,12.455921
352,553.000,-2.461492
353,554.000,3.127197
354,555.000,-1.199961
355,556.000,-1.478303
356,557.000,-5.948591
357,558.000,-1.182043
358,559.000,-0.231118
359,560.000,-2.353823
360,561.000,3.047021
361,562.000,-7.597021
362,563.000,9.179983
363,564.000,-1.618581
364,565.000,-0.56232
365,566.000,6.019091
366,567.000,0.771034
367,568.000,-1.80399
368,569.000,5.982724
369,570.000,7.346224
370,571.000,3.740273
371,572.000,2.929857
372,573.000,-2.992716
373,574.000,-2.96598
374,575.000,21.133859
375,576.000,3.234841
376,577.000,-1.70195
377,578.000,1.338658
378,579.000,1.638881
379,580.000,-5.98956
380,581.000,0.457153
381,582.000,6.143796
382,583.000,16.934109
383,584.000,-7.536878
384,585.000,1.043271
385,586.000,-0.246738
386,587.000,20.920673
387,588.000,1.425132
388,589.000,-0.287384
389,590.000,0.279639
390,591.000,8.666342
391,592.000,1.437612
392,593.000,5.604813
393,594.000,2.636623
394,595.000,-1.201541
395,596.000,5.217143
396,597.000,-3.275652
397,598.000,-5.129124
398,599.000,-0.424505
399,600.000,4.499376
400,601.000,9.155431
401,602.000,14.191604
402,603.000,13.723011
403,604.000,16.143978
404,605.000,11.128147
405,606.000,18.978995
406,607.000,6.535085
407,608.000,23.65851
408,609.000,19.98119
409,610.000,9.260777
410,611.000,21.877505
411,612.000,33.852784
412,613.000,39.538133
413,614.000,38.611069
414,615.000,54.616112
415,616.000,66.708551
416,617.000,82.679373
417,618.000,86.165885
418,619.000,129.99016
419,620.000,143.004279
420,621.000,182.131451
421,622.000,185.009305
422,623.000,168.939965
423,624.000,158.799221
424,625.000,132.262282
425,626.000,108.454207
426,627.000,78.782715
427,628.000,53.827456
428,629.000,46.315491
429,630.000,53.102368
430,631.000,30.013931
431,632.000,42.346953
432,633.000,26.219104
433,634.000,27.050409
434,635.000,27.351677
435,636.000,25.083914
436,637.000,13.974187
437,638.000,15.912186
438,639.000,10.868472
439,640.000,2.841543
440,641.000,15.635126
441,642.000,19.641651
442,643.000,11.717482
443,644.000,12.006757
444,645.000,6.532407
445,646.000,-3.086238
446,647.000,14.698434
447,648.000,-0.044688
448,649.000,3.932964
449,650.000,-6.615482
450,651.000,13.596571
451,652.000,1.47269
452,653.000,-0.482506
453,654.000,-10.1501
454,655.000,10.019706
455,656.000,9.914673
456,657.000,2.264426
457,658.000,0.734437
458,659.000,0.826323
459,660.000,2.458842
460,661.000,7.644603
461,662.000,4.828547
462,663.000,-6.092644
463,664.000,1.12143
464,665.000,5.220685
465,666.000,-2.115395
466,667.000,-12.197471
467,668.000,-2.047194
468,669.000,-8.034601
469,670.000,-10.232953
470,671.000,16.255177
471,672.000,3.146102
472,673.000,-8.414813
473,674.000,-5.134088
474,675.000,-13.751322
475,676.000,-1.507458
476,677.000,5.854241
477,678.000,2.811494
478,679.000,2.712702
479,680.000,5.657533
480,681.000,6.900006
481,682.000,11.40923
482,683.000,1.422462
483,684.000,12.274954
484,685.000,8.007382
485,686.000,2.533721
486,687.000,-9.682308
487,688.000,6.154959
488,689.000,8.131056
489,690.000,8.358898
490,691.000,-8.783694
491,692.000,-7.40014
492,693.000,-5.653019
493,694.000,6.138462
494,695.000,10.191094
495,696.000,-11.25468
496,697.000,4.278687
497,698.000,4.804859
498,699.000,-4.422423
499,700.000,4.399758
500,701.000,0.303713
501,702.000,-11.977033
502,703.000,8.143574
503,704.000,-4.23283
504,705.000,-1.12674
505,706.000,6.748615
506,707.000,-5.173675
507,708.000,4.113286
508,709.000,2.736751
509,710.000,0.103279
510,711.000,12.571757
511,712.000,-4.354879
512,713.000,-1.830806
513,714.000,2.902775
514,715.000,-0.438681
515,716.000,-3.896125
516,717.000,8.988559
517,718.000,8.961991
518,719.000,-1.411648
519,720.000,5.733627
520,721.000,0.611087
521,722.000,11.70394
522,723.000,-2.115099
523,724.000,-14.08859
524,725.000,-1.2453
525,726.000,2.869732
526,727.000,5.1873
527,728.000,-7.165074
528,729.000,2.303139
529,730.000,1.503096
530,731.000,8.5569
531,732.000,10.322491
532,733.000,1.630419
533,734.000,-5.544082
534,735.000,1.838571
535,736.000,2.074418
536,737.000,10.130544
537,738.000,-3.044358
538,739.000,-3.245302
539,740.000,9.13487
540,741.000,-3.766811
541,742.000,5.144229
542,743.000,2.641897
543,744.000,8.301379
544,745.000,-5.534768
545,746.000,-6.068225
546,747.000,4.915844
547,748.000,-21.192504
548,749.000,7.552683
549,750.000,-3.578638
550,751.000,11.169221
551,752.000,5.570086
552,753.000,7.658726
553,754.000,9.173138
554,755.000,5.504931
555,756.000,-5.204036
556,757.000,9.581543
557,758.000,-1.61719
558,759.000,9.352035
559,760.000,0.960096
560,761.000,15.697508
561,762.000,-4.585138
562,763.000,9.731974
563,764.000,10.502987
564,765.000,12.527473
565,766.000,10.728943
566,767.000,7.7927
567,768.000,7.473185
568,769.000,10.709856
569,770.000,1.901936
570,771.000,11.633994
571,772.000,6.820252
572,773.000,9.38131
573,774.000,12.761524
574,775.000,7.599072
575,776.000,3.765667
576,777.000,-5.914797
577,778.000,3.380562
578,779.000,3.058265
579,780.000,6.98543
580,781.000,11.348414
581,782.000,17.408502
582,783.000,26.214611
583,784.000,20.372328
584,785.000,20.493269
585,786.000,30.832085
586,787.000,24.470459
587,788.000,24.498019
588,789.000,40.675106
589,790.000,42.669818
590,791.000,52.875672
591,792.000,66.078358
592,793.000,52.722454
593,794.000,75.885353
594,795.000,91.470141
595,796.000,110.285331
596,797.000,92.525416
597,798.000,91.475103
598,799.000,84.630018
599,800.000,84.660724
600,801.000,68.189265
601,802.000,51.736148
602,803.000,51.075719
603,804.000,39.025839
604,805.000,45.253195
605,806.000,35.126005
606,807.000,32.524137
607,808.000,25.84501
608,809.000,21.026702
609,810.000,26.856978
610,811.000,13.354563
611,812.000,9.194276
612,813.000,3.297477
613,814.000,14.253273
614,815.000,2.009177
615,816.000,16.590526
616,817.000,27.168699
617,818.000,9.26371
618,819.000,5.362852
619,820.000,0.972929
620,821.000,10.301189
621,822.000,3.846316
622,823.000,8.886722
623,824.000,6.035892
624,825.000,7.668494
625,826.000,4.217782
626,827.000,-3.7931
627,828.000,6.526427
628,829.000,-7.072178
629,830.000,1.927891
630,831.000,-2.933268
631,832.000,-6.670181
632,833.000,-1.092041
633,834.000,3.730492
634,835.000,-5.187042
635,836.000,-4.528946
636,837.000,6.550693
637,838.000,1.49856
638,839.000,1.560887
639,840.000,4.018312
640,841.000,-3.077817
641,842.000,1.733677
642,843.000,-5.748918
643,844.000,4.48347
644,845.000,-9.090361
645,846.000,-6.134293
646,847.000,4.557489
647,848.000,-4.041829
648,849.000,1.79317
649,850.000,-1.587039
650,851.000,3.683313
651,852.000,-3.585967
652,853.000,2.892297
653,854.000,6.545123
654,855.000,4.008745
655,856.000,5.189007
656,857.000,-1.185106
657,858.000,-6.856606
658,859.000,-4.142108
659,860.000,-4.256593
660,861.000,5.107656
661,862.000,6.585403
662,863.000,8.286212
663,864.000,-4.963058
664,865.000,-4.179045
665,866.000,9.489129
666,867.000,1.552231
667,868.000,9.624342
668,869.000,-4.563385
669,870.000,2.133246
670,871.000,5.178718
671,872.000,5.473509
672,873.000,8.477454
673,874.000,0.198487
674,875.000,2.798563
675,876.000,2.79434
676,877.000,1.387884
677,878.000,11.831862
678,879.000,4.712958
679,880.000,1.318722
680,881.000,10.657841
681,882.000,8.038224
682,883.000,-6.960364
683,884.000,-0.443753
684,885.000,4.134674
685,886.000,0.285443
686,887.000,8.071855
687,888.000,13.629104
688,889.000,14.778179
689,890.000,5.299839
690,891.000,6.589951
691,892.000,9.053291
692,893.000,-7.541372
693,894.000,3.905032
694,895.000,1.7949
695,896.000,-8.85936
696,897.000,-2.77979
697,898.000,7.716576
698,899.000,-2.101526
699,900.000,4.178462
700,901.000,4.548657
701,902.000,5.430559
702,903.000,-4.287888
703,904.000,-7.802926
704,905.000,-1.310442
705,906.000,11.787626
706,907.000,0.895492
707,908.000,1.48344
708,909.000,-7.168745
709,910.000,-1.043737
710,911.000,6.716559
711,912.000,0.27356
712,913.000,4.115531
713,914.000,-4.600945
714,915.000,1.716694
715,916.000,4.275129
716,917.000,2.466147
717,918.000,6.626617
718,919.000,0.070574
719,920.000,-0.933104
720,921.000,0.445742
721,922.000,-1.943365
722,923.000,2.059536
723,924.000,-1.002148
724,925.000,-3.299927
725,926.000,0.843719
726,927.000,5.741044
727,928.000,-0.361021
728,929.000,-6.996604
729,930.000,-0.169722
730,931.000,-0.477353
731,932.000,11.284615
732,933.000,-12.23863
733,934.000,-2.028465
734,935.000,-10.796339
735,936.000,1.736765
736,937.000,11.712896
737,938.000,-0.307008
738,939.000,-4.138829
739,940.000,2.82106
740,941.000,1.133203
741,942.000,2.700829
742,943.000,6.035134
743,944.000,10.855214
744,945.000,-0.174199
745,946.000,15.471495
746,947.000,8.707412
747,948.000,1.086013
748,949.000,2.525788
749,950.000,2.12427
750,951.000,17.967948
751,952.000,-0.454167
752,953.000,0.809298
753,954.000,8.369538
754,955.000,2.798165
755,956.000,7.513325
756,957.000,1.852602
757,958.000,6.743198
758,959.000,13.670339
759,960.000,2.906631
760,961.000,12.183644
761,962.000,0.117856
762,963.000,1.489955
763,964.000,6.176724
764,965.000,2.600858
765,966.000,12.371295
766,967.000,10.945571
767,968.000,15.86246
768,969.000,3.357328
769,970.000,9.177855
770,971.000,12.251646
771,972.000,16.2208
772,973.000,6.60226
773,974.000,16.103605
774,975.000,13.88263
775,976.000,11.81508
776,977.000,14.832082
777,978.000,18.107379
778,979.000,17.053305
779,980.000,11.91787
780,981.000,17.942231
781,982.000,15.156692
782,983.000,18.379983
783,984.000,32.064945
784,985.000,25.307713
785,986.000,28.730928
786,987.000,40.903764
787,988.000,51.619608
788,989.000,47.232294
789,990.000,56.244114
790,991.000,61.418038
791,992.000,70.098095
792,993.000,88.548645
793,994.000,99.531586
794,995.000,133.741392
795,996.000,161.695495
796,997.000,205.501786
797,998.000,263.552938
798,999.000,367.40228
799,1000.000,511.942564
800,1001.000,695.35914
801,1002.000,906.985778
802,1003.000,1005.406812
803,1004.000,898.395203
804,1005.000,691.408114
805,1006.000,497.009308
806,1007.000,367.616337
807,1008.000,267.67221
808,1009.000,218.528006
809,1010.000,174.23274
810,1011.000,136.661517
811,1012.000,117.857114
812,1013.000,93.006921
813,1014.000,90.968482
814,1015.000,72.966754
815,1016.000,75.571363
816,1017.000,62.426243
817,1018.000,64.694316
818,1019.000,58.224385
819,1020.000,54.478792
820,1021.000,62.267681
821,1022.000,64.890302
822,1023.000,75.458189
823,1024.000,69.178703
824,1025.000,90.142067
825,1026.000,96.113062
826,1027.000,118.299774
827,1028.000,154.9395
828,1029.000,194.749045
829,1030.000,266.315542
830,1031.000,330.96061
831,1032.000,382.955135
832,1033.000,427.209908
833,1034.000,399.595934
834,1035.000,338.925691
835,1036.000,249.715454
836,1037.000,188.28134
837,1038.000,148.311767
838,1039.000,108.891772
839,1040.000,90.549258
840,1041.000,68.958209
841,1042.000,54.492122
842,1043.000,46.708901
843,1044.000,42.364234
844,1045.000,40.417218
845,1046.000,33.18084
846,1047.000,35.13706
847,1048.000,16.379672
848,1049.000,26.071392
849,1050.000,29.92111
850,1051.000,17.085397
851,1052.000,13.789366
852,1053.000,15.580265
853,1054.000,18.012693
854,1055.000,16.827948
855,1056.000,3.856681
856,1057.000,8.822095
857,1058.000,22.034251
858,1059.000,5.401031
859,1060.000,5.302854
860,1061.000,9.779391
861,1062.000,20.933818
862,1063.000,15.752838
863,1064.000,5.123109
864,1065.000,2.631653
865,1066.000,6.552516
866,1067.000,-3.530382
867,1068.000,9.10143
868,1069.000,6.135722
869,1070.000,5.271645
870,1071.000,13.030754
871,1072.000,5.391142
872,1073.000,4.626976
873,1074.000,-2.752988
874,1075.000,5.114303
875,1076.000,10.383746
876,1077.000,14.590326
877,1078.000,-0.302051
878,1079.000,4.809515
879,1080.000,3.214059
880,1081.000,0.907341
881,1082.000,3.303441
882,1083.000,0.034658
883,1084.000,3.958902
884,1085.000,5.288234
885,1086.000,7.302117
886,1087.000,-2.364578
887,1088.000,4.133143
888,1089.000,5.516005
889,1090.000,-0.672742
890,1091.000,2.562239
891,1092.000,-5.706605
892,1093.000,-5.181802
893,1094.000,-5.587941
894,1095.000,5.778873
895,1096.000,-2.459553
896,1097.000,1.98091
897,1098.000,-1.585831
898,1099.000,13.825247
899,1100.000,4.008206
900,1101.000,8.467703
901,1102.000,9.315984
902,1103.000,9.549379
903,1104.000,-1.59763
904,1105.000,-3.20045
905,1106.000,1.981709
906,1107.000,3.417724
907,1108.000,5.278185
908,1109.000,2.609961
909,1110.000,1.08545
910,1111.000,9.563518
911,1112.000,5.89981
912,1113.000,9.174665
913,1114.000,5.473058
914,1115.000,1.19959
915,1116.000,6.225488
916,1117.000,3.191047
917,1118.000,-1.510593
918,1119.000,15.37857
919,1120.000,3.358132
920,1121.000,4.231784
921,1122.000,10.474092
922,1123.000,3.162273
923,1124.000,-5.736014
924,1125.000,5.330335
925,1126.000,1.14161
926,1127.000,14.319157
927,1128.000,19.05921
928,1129.000,23.249763
929,1130.000,7.359175
930,1131.000,5.299139
931,1132.000,15.422213
932,1133.000,-5.167279
933,1134.000,11.887234
934,1135.000,1.603994
935,1136.000,12.236074
936,1137.000,7.558302
937,1138.000,18.277623
938,1139.000,11.988771
939,1140.000,10.005071
940,1141.000,25.286583
941,1142.000,5.340708
942,1143.000,9.964905
943,1144.000,25.713204
944,1145.000,23.19412
945,1146.000,18.374916
946,1147.000,30.123741
947,1148.000,46.898518
948,1149.000,41.989018
949,1150.000,44.27579
950,1151.000,73.966744
951,1152.000,71.926236
952,1153.000,91.618468
953,1154.000,103.295756
954,1155.000,125.954822
955,1156.000,134.722922
956,1157.000,156.951386
957,1158.000,133.986208
958,1159.000,128.63997
959,1160.000,111.110395
960,1161.000,92.69716
961,1162.000,81.009509
962,1163.000,72.654665
963,1164.000,47.556133
964,1165.000,44.672357
965,1166.000,36.26294
966,1167.000,37.536056
967,1168.000,38.925764
968,1169.000,27.334789
969,1170.000,27.213022
970,1171.000,26.206531
971,1172.000,30.87582
972,1173.000,24.636853
973,1174.000,31.98044
974,1175.000,19.680037
975,1176.000,30.789121
976,1177.000,42.358073
977,1178.000,56.216419
978,1179.000,43.942641
979,1180.000,72.543691
980,1181.000,73.635492
981,1182.000,89.162997
982,1183.000,112.279346
983,1184.000,117.784763
984,1185.000,116.722155
985,1186.000,121.111161
986,1187.000,104.265283
987,1188.000,89.922742
988,1189.000,68.56184
989,1190.000,53.812158
990,1191.000,42.789231
991,1192.000,29.74558
992,1193.000,49.250492
993,1194.000,33.907435
994,1195.000,31.75027
995,1196.000,16.971287
996,1197.000,11.630821
997,1198.000,11.350298
998,1199.000,13.801192
999,1200.000,11.325641
1000,1201.000,10.723784
1001,1202.000,13.870343
1002,1203.000,11.184132
1003,1204.000,10.719395
1004,1205.000,11.664211
1005,1206.000,10.7829
1006,1207.000,3.831718
1007,1208.000,7.506535
1008,1209.000,6.016946
1009,1210.000,8.789326
1010,1211.000,-6.955471
1011,1212.000,20.481026
1012,1213.000,9.1352
1013,1214.000,-5.122245
1014,1215.000,9.106022
1015,1216.000,4.737659
1016,1217.000,-5.570359
1017,1218.000,5.757704
1018,1219.000,7.302447
1019,1220.000,4.762203
1020,1221.000,8.323906
1021,1222.000,2.761277
1022,1223.000,10.367116
1023,1224.000,-1.873554
1024,1225.000,-1.220137
1025,1226.000,0.45322
1026,1227.000,6.547915
1027,1228.000,2.88455
1028,1229.000,15.96837
1029,1230.000,7.619503
1030,1231.000,5.889297
1031,1232.000,1.432745
1032,1233.000,2.266545
1033,1234.000,7.684754
1034,1235.000,2.516943
1035,1236.000,-2.22648
1036,1237.000,-4.134741
1037,1238.000,4.271792
1038,1239.000,3.093956
1039,1240.000,5.632905
1040,1241.000,10.080449
1041,1242.000,0.712986
1042,1243.000,-0.514223
1043,1244.000,9.342917
1044,1245.000,-2.168869
1045,1246.000,1.501379
1046,1247.000,2.923948
1047,1248.000,16.928808
1048,1249.000,-3.161975
1049,1250.000,-2.702192
1050,1251.000,2.202378
1051,1252.000,-2.659818
1052,1253.000,13.299171
1053,1254.000,13.306946
1054,1255.000,-7.371983
1055,1256.000,-7.838063
1056,1257.000,5.964597
1057,1258.000,3.509416
1058,1259.000,16.177558
1059,1260.000,-4.372144
1060,1261.000,4.973545
1061,1262.000,11.888794
1062,1263.000,5.883418
1063,1264.000,-5.979767
1064,1265.000,1.822693
1065,1266.000,-10.151868
1066,1267.000,0.489895
1067,1268.000,-7.473943
1068,1269.000,0.267322
1069,1270.000,-1.44314
1070,1271.000,3.303215
1071,1272.000,2.89894
1072,1273.000,-2.767933
1073,1274.000,-0.315565
1074,1275.000,2.860574
1075,1276.000,5.72991
1076,1277.000,0.543108
1077,1278.000,-3.159657
1078,1279.000,7.412051
1079,1280.000,-1.654323
1080,1281.000,-12.728843
1081,1282.000,0.667535
1082,1283.000,1.186998
1083,1284.000,-4.664657
1084,1285.000,-7.181257
1085,1286.000,-3.068888
1086,1287.000,14.750056
1087,1288.000,4.923324
1088,1289.000,-10.235167
1089,1290.000,-2.797781
1090,1291.000,0.717865
1091,1292.000,6.765493
1092,1293.000,9.619067
1093,1294.000,9.912591
1094,1295.000,6.792139
1095,1296.000,-3.948486
1096,1297.000,8.11462
1097,1298.000,-4.596288
1098,1299.000,3.966567
1099,1300.000,1.70531
1100,1301.000,-2.789155
1101,1302.000,-9.785324
1102,1303.000,-5.386294
1103,1304.000,-3.223691
1104,1305.000,4.327453
1105,1306.000,1.427027
1106,1307.000,8.735655
1107,1308.000,-7.830378
1108,1309.000,-5.959212
1109,1310.000,1.794405
1110,1311.000,8.931981
1111,1312.000,2.071269
1112,1313.000,-0.101175
1113,1314.000,1.526966
1114,1315.000,6.181504
1115,1316.000,2.445025
1116,1317.000,-1.530774
1117,1318.000,0.514363
1118,1319.000,-0.112975
1119,1320.000,7.836299
1120,1321.000,5.106787
1121,1322.000,3.68096
1122,1323.000,1.251394
1123,1324.000,-5.0809
1124,1325.000,-2.314682
1125,1326.000,4.788734
1126,1327.000,7.265888
1127,1328.000,-3.477208
1128,1329.000,2.347406
1129,1330.000,0.555382
1130,1331.000,8.72489
1131,1332.000,6.072486
1132,1333.000,-5.251992
1133,1334.000,6.908945
1134,1335.000,-7.25249
1135,1336.000,4.425125
1136,1337.000,-0.880724
1137,1338.000,1.403514
1138,1339.000,-2.781907
1139,1340.000,-9.74325
1140,1341.000,-2.661271
1141,1342.000,9.736985
1142,1343.000,-8.617132
1143,1344.000,-1.048433
1144,1345.000,-2.463066
1145,1346.000,-1.995503
1146,1347.000,3.123984
1147,1348.000,-7.901769
1148,1349.000,8.633163
1149,1350.000,5.672729
1150,1351.000,6.894394
1151,1352.000,-1.018089
1152,1353.000,0.585491
1153,1354.000,3.141058
1154,1355.000,-3.026417
1155,1356.000,-6.643625
1156,1357.000,5.524787
1157,1358.000,-19.181269
1158,1359.000,-2.822192
1159,1360.000,0.574479
1160,1361.000,3.204771
1161,1362.000,-0.384631
1162,1363.000,-0.879597
1163,1364.000,-1.406006
1164,1365.000,-9.700972
1165,1366.000,18.312072
1166,1367.000,6.514103
1167,1368.000,5.301591
1168,1369.000,-1.340737
1169,1370.000,-6.116456
1170,1371.000,8.399393
1171,1372.000,-0.004666
1172,1373.000,-4.787262
1173,1374.000,-4.994352
1174,1375.000,-2.425282
1175,1376.000,11.502041
1176,1377.000,-1.516429
1177,1378.000,1.315323
1178,1379.000,2.864159
1179,1380.000,3.630759
1180,1381.000,7.618281
1181,1382.000,7.988437
1182,1383.000,4.425993
1183,1384.000,-2.491974
1184,1385.000,-1.203046
1185,1386.000,-5.731407
1186,1387.000,-3.850511
1187,1388.000,0.405287
1188,1389.000,8.334329
1189,1390.000,1.897341
1190,1391.000,-16.995504
1191,1392.000,11.368336
1192,1393.000,-4.771114
1193,1394.000,-5.622877
1194,1395.000,8.417549
1195,1396.000,1.476687
1196,1397.000,4.87627
1197,1398.000,9.254533
1198,1399.000,4.067516
1199,1400.000,9.882964
1200,1401.000,5.398661
1201,1402.000,4.295554
1202,1403.000,6.321908
1203,1404.000,-0.631517
1204,1405.000,-11.096361
1205,1406.000,9.021581
1206,1407.000,4.268235
1207,1408.000,-1.128759
1208,1409.000,3.763937
1209,1410.000,0.205102
1210,1411.000,5.724618
1211,1412.000,5.859588
1212,1413.000,-10.319512
1213,1414.000,3.937236
1214,1415.000,3.746362
1215,1416.000,21.138201
1216,1417.000,6.756093
1217,1418.000,14.511526
1218,1419.000,20.647766
1219,1420.000,13.360729
1220,1421.000,13.496569
1221,1422.000,19.4356
1222,1423.000,9.428501
1223,1424.000,10.513033
1224,1425.000,19.532482
1225,1426.000,9.625424
1226,1427.000,13.415977
1227,1428.000,15.271565
1228,1429.000,19.210248
1229,1430.000,16.716227
1230,1431.000,23.711058
1231,1432.000,35.85043
1232,1433.000,35.539852
1233,1434.000,27.048327
1234,1435.000,29.786103
1235,1436.000,28.654738
1236,1437.000,43.021351
1237,1438.000,43.755103
1238,1439.000,38.182025
1239,1440.000,43.707384
1240,1441.000,65.608038
1241,1442.000,68.749962
1242,1443.000,84.944399
1243,1444.000,96.027212
1244,1445.000,116.099266
1245,1446.000,125.5392
1246,1447.000,137.176143
1247,1448.000,166.362862
1248,1449.000,190.645897
1249,1450.000,201.199219
1250,1451.000,201.020607
1251,1452.000,220.388319
1252,1453.000,211.740789
1253,1454.000,198.212449
1254,1455.000,201.048876
1255,1456.000,167.560828
1256,1457.000,146.36359
1257,1458.000,133.152621
1258,1459.000,113.138757
1259,1460.000,90.151276
1260,1461.000,82.288101
1261,1462.000,76.84513
1262,1463.000,58.61796
1263,1464.000,65.093787
1264,1465.000,47.102814
1265,1466.000,41.196203
1266,1467.000,51.025888
1267,1468.000,41.6393
1268,1469.000,28.803394
1269,1470.000,27.075042
1270,1471.000,25.349724
1271,1472.000,25.749394
1272,1473.000,16.817521
1273,1474.000,23.186023
1274,1475.000,19.941737
1275,1476.000,14.965307
1276,1477.000,28.587101
1277,1478.000,12.176565
1278,1479.000,4.844366
1279,1480.000,21.340849
1280,1481.000,9.301755
1281,1482.000,10.220156
1282,1483.000,16.157698
1283,1484.000,19.79511
1284,1485.000,14.220693
1285,1486.000,19.43614
1286,1487.000,9.930925
1287,1488.000,16.335637
1288,1489.000,16.239149
1289,1490.000,16.514009
1290,1491.000,15.593567
1291,1492.000,20.687061
1292,1493.000,14.512077
1293,1494.000,11.286454
1294,1495.000,10.529604
1295,1496.000,0.678162
1296,1497.000,1.088084
1297,1498.000,4.217294
1298,1499.000,8.790839
1299,1500.000,7.814065
1300,1501.000,16.639589
1301,1502.000,7.62135
1302,1503.000,-1.425246
1303,1504.000,3.477642
1304,1505.000,6.160469
1305,1506.000,5.274774
1306,1507.000,-11.726319
1307,1508.000,3.436661
1308,1509.000,9.235185
1309,1510.000,8.874733
1310,1511.000,12.019116
1311,1512.000,-2.911161
1312,1513.000,15.73253
1313,1514.000,11.500216
1314,1515.000,11.909083
1315,1516.000,6.204624
1316,1517.000,-2.324176
1317,1518.000,10.612436
1318,1519.000,16.851495
1319,1520.000,21.796737
1320,1521.000,15.039599
1321,1522.000,17.157197
1322,1523.000,11.117813
1323,1524.000,5.410157
1324,1525.000,0.921968
1325,1526.000,-6.237399
1326,1527.000,3.896104
1327,1528.000,-0.114105
1328,1529.000,1.979665
1329,1530.000,-3.542601
1330,1531.000,-7.562426
1331,1532.000,13.723716
1332,1533.000,1.331435
1333,1534.000,13.36542
1334,1535.000,5.293884
1335,1536.000,2.364339
1336,1537.000,-7.978506
1337,1538.000,0.27532
1338,1539.000,14.181032
1339,1540.000,7.013333
1340,1541.000,17.960393
1341,1542.000,-2.482593
1342,1543.000,-0.21789
1343,1544.000,6.48306
1344,1545.000,17.821606
1345,1546.000,4.809241
1346,1547.000,5.983426
1347,1548.000,3.262618
1348,1549.000,11.06431
1349,1550.000,8.544831
1350,1551.000,5.340227
1351,1552.000,12.136052
1352,1553.000,17.076413
1353,1554.000,10.928153
1354,1555.000,17.289314
1355,1556.000,16.282995
1356,1557.000,16.731026
1357,1558.000,12.098428
1358,1559.000,12.074613
1359,1560.000,12.544764
1360,1561.000,14.306198
1361,1562.000,16.930108
1362,1563.000,25.117547
1363,1564.000,19.289248
1364,1565.000,21.129844
1365,1566.000,22.169583
1366,1567.000,39.889628
1367,1568.000,17.531272
1368,1569.000,32.03922
1369,1570.000,41.125373
1370,1571.000,38.852631
1371,1572.000,32.588599
1372,1573.000,43.320259
1373,1574.000,45.319472
1374,1575.000,51.735238
1375,1576.000,56.445637
1376,1577.000,81.652216
1377,1578.000,89.12704
1378,1579.000,94.513858
1379,1580.000,119.396386
1380,1581.000,138.309083
1381,1582.000,160.068998
1382,1583.000,193.562748
1383,1584.000,226.517729
1384,1585.000,221.083376
1385,1586.000,225.283061
1386,1587.000,208.969246
1387,1588.000,179.891549
1388,1589.000,155.561445
1389,1590.000,146.204116
1390,1591.000,137.291933
1391,1592.000,129.877508
1392,1593.000,131.950444
1393,1594.000,128.9618
1394,1595.000,145.21496
1395,1596.000,152.539951
1396,1597.000,181.159175
1397,1598.000,215.588936
1398,1599.000,260.677843
1399,1600.000,326.345086
1400,1601.000,415.405982
1401,1602.000,512.163714
1402,1603.000,586.908503
1403,1604.000,633.378856
1404,1605.000,587.536736
1405,1606.000,502.46004
1406,1607.000,416.380938
1407,1608.000,319.675524
1408,1609.000,252.898475
1409,1610.000,190.080375
1410,1611.000,163.619962
1411,1612.000,132.677426
1412,1613.000,103.148778
1413,1614.000,91.813475
1414,1615.000,72.227836
1415,1616.000,70.597756
1416,1617.000,47.314502
1417,1618.000,49.73509
1418,1619.000,44.925906
1419,1620.000,32.559081
1420,1621.000,46.340919
1421,1622.000,32.097857
1422,1623.000,38.550836
1423,1624.000,25.469104
1424,1625.000,18.23317
1425,1626.000,27.470124
1426,1627.000,27.23441
1427,1628.000,18.522258
1428,1629.000,16.174761
1429,1630.000,9.444576
1430,1631.000,15.070923
1431,1632.000,15.791857
1432,1633.000,17.354354
1433,1634.000,14.892997
1434,1635.000,4.803269
1435,1636.000,8.07677
1436,1637.000,13.029704
1437,1638.000,20.126899
1438,1639.000,12.29067
1439,1640.000,3.57988
1440,1641.000,6.067124
1441,1642.000,13.921586
1442,1643.000,6.403037
1443,1644.000,20.782999
1444,1645.000,4.725452
1445,1646.000,10.734829
1446,1647.000,8.897906
1447,1648.000,11.794445
1448,1649.000,9.865388
1449,1650.000,6.15986
1450,1651.000,4.113685
1451,1652.000,7.977959
1452,1653.000,13.253905
1453,1654.000,8.143395
1454,1655.000,2.751478
1455,1656.000,5.500657
1456,1657.000,7.566362
1457,1658.000,12.232117
1458,1659.000,-3.272467
1459,1660.000,2.5999
1460,1661.000,0.421343
1461,1662.000,9.079639
1462,1663.000,-0.11581
1463,1664.000,11.657547
1464,1665.000,4.021381
1465,1666.000,5.880742
1466,1667.000,-0.756312
1467,1668.000,6.680386
1468,1669.000,-3.338162
1469,1670.000,3.155814
1470,1671.000,5.407359
1471,1672.000,3.32206
1472,1673.000,10.56483
1473,1674.000,-3.441365
1474,1675.000,7.610901
1475,1676.000,-1.528378
1476,1677.000,-1.141821
1477,1678.000,2.33522
1478,1679.000,-7.354328
1479,1680.000,-5.367124
1480,1681.000,1.078673
1481,1682.000,-3.237662
1482,1683.000,-2.14961
1483,1684.000,4.462335
1484,1685.000,-1.349001
1485,1686.000,2.618258
1486,1687.000,6.513854
1487,1688.000,11.504866
1488,1689.000,-2.588673
1489,1690.000,5.542064
1490,1691.000,4.006272
1491,1692.000,-4.26135
1492,1693.000,11.853476
1493,1694.000,0.856173
1494,1695.000,4.403284
1495,1696.000,1.493895
1496,1697.000,6.432159
1497,1698.000,5.73328
1498,1699.000,-2.783865
1499,1700.000,10.475742
1500,1701.000,-8.493842
1501,1702.000,18.054379
1502,1703.000,3.559685
1503,1704.000,-3.095377
1504,1705.000,-17.246783
1505,1706.000,-1.800353
1506,1707.000,8.573403
1507,1708.000,12.991985
1508,1709.000,-2.033896
1509,1710.000,-5.633776
1510,1711.000,-6.52095
1511,1712.000,3.062323
1512,1713.000,7.902837
1513,1714.000,-0.078759
1514,1715.000,5.221497
1515,1716.000,7.916735
1516,1717.000,1.067712
1517,1718.000,-3.84095
1518,1719.000,-2.436018
1519,1720.000,8.35805
1520,1721.000,2.448204
1521,1722.000,-5.062283
1522,1723.000,-2.247795
1523,1724.000,-5.181713
1524,1725.000,3.978004
1525,1726.000,13.163197
1526,1727.000,-2.015871
1527,1728.000,5.750299
1528,1729.000,3.45452
1529,1730.000,5.079466
1530,1731.000,-8.621529
1531,1732.000,-3.759258
1532,1733.000,-14.103794
1533,1734.000,-0.442722
1534,1735.000,5.158762
1535,1736.000,1.111439
1536,1737.000,-3.082326
1537,1738.000,5.709456
1538,1739.000,9.004993
1539,1740.000,4.287312
1540,1741.000,-1.026378
1541,1742.000,-12.056923
1542,1743.000,1.877652
1543,1744.000,-3.897532
1544,1745.000,9.662712
1545,1746.000,-2.971063
1546,1747.000,4.320801
1547,1748.000,2.435316
1548,1749.000,4.587398
1549,1750.000,-3.926562
1550,1751.000,-2.074169
1551,1752.000,-2.284129
1552,1753.000,-2.650785
1553,1754.000,5.424127
1554,1755.000,1.363103
1555,1756.000,9.267419
1556,1757.000,3.271174
1557,1758.000,5.181818
1558,1759.000,-1.702669
1559,1760.000,-2.280117
1560,1761.000,-6.239354
1561,1762.000,-5.147584
1562,1763.000,0.13428
1563,1764.000,-3.929291
1564,1765.000,-1.290498
1565,1766.000,4.033072
1566,1767.000,7.658154
1567,1768.000,-2.909689
1568,1769.000,13.470222
1569,1770.000,-3.659247
1570,1771.000,4.294565
1571,1772.000,5.287181
1572,1773.000,3.145697
1573,1774.000,2.434246
1574,1775.000,6.314748
1575,1776.000,0.840681
1576,1777.000,2.105229
1577,1778.000,4.360294
1578,1779.000,-11.071133
1579,1780.000,15.176958
1580,1781.000,9.353803
1581,1782.000,-1.289327
1582,1783.000,-1.732183
1583,1784.000,-1.869541
1584,1785.000,0.875972
1585,1786.000,-0.751548
1586,1787.000,-7.938104
1587,1788.000,-4.570888
1588,1789.000,0.89546
1589,1790.000,-0.849545
1590,1791.000,-0.422757
1591,1792.000,-2.614119
1592,1793.000,-2.40928
1593,1794.000,-2.691365
1594,1795.000,3.7486
1595,1796.000,-2.035345
1596,1797.000,-10.805383
1597,1798.000,6.552314
1598,1799.000,-1.713146
1599,1800.000,-9.256737
1600,1801.000,-4.245681
1601,1802.000,5.068062
1602,1803.000,-9.864761
1603,1804.000,12.307179
1604,1805.000,-3.26515
1605,1806.000,1.174374
1606,1807.000,1.355377
1607,1808.000,9.150754
1608,1809.000,3.423902
1609,1810.000,-5.445526
1610,1811.000,-4.309429
1611,1812.000,-1.67113
1612,1813.000,-6.254142
1613,1814.000,5.497412
1614,1815.000,2.825634
1615,1816.000,2.645436
1616,1817.000,-0.686835
1617,1818.000,1.955248
1618,1819.000,10.980614
1619,1820.000,17.065267
1620,1821.000,-13.405161
1621,1822.000,4.944253
1622,1823.000,4.004738
1623,1824.000,-6.193323
1624,1825.000,-14.10419
1625,1826.000,5.733067
1626,1827.000,-1.379098
1627,1828.000,-8.034954
1628,1829.000,-1.247742
1629,1830.000,1.172777
1630,1831.000,9.069444
1631,1832.000,-3.133792
1632,1833.000,9.075109
1633,1834.000,-10.740674
1634,1835.000,-5.268188
1635,1836.000,5.704158
1636,1837.000,-0.272661
1637,1838.000,6.052842
1638,1839.000,2.26874
1639,1840.000,-1.019499
1640,1841.000,7.032199
1641,1842.000,-14.118256
1642,1843.000,-2.554288
1643,1844.000,0.477127
1644,1845.000,-7.120211
1645,1846.000,-10.790072
1646,1847.000,1.486036
1647,1848.000,12.564238
1648,1849.000,-2.488763
1649,1850.000,1.691485
1650,1851.000,0.1728
1651,1852.000,2.263738
1652,1853.000,-1.779477
1653,1854.000,2.703316
1654,1855.000,-7.341841
1655,1856.000,-3.75571
1656,1857.000,2.645937
1657,1858.000,11.595037
1658,1859.000,-8.030774
1659,1860.000,6.153775
1660,1861.000,-12.622086
1661,1862.000,1.613757
1662,1863.000,0.565738
1663,1864.000,-0.630733
1664,1865.000,-4.352847
1665,1866.000,-2.185113
1666,1867.000,4.73679
1667,1868.000,3.729723
1668,1869.000,-8.711817
1669,1870.000,0.53703
1670,1871.000,-5.273977
1671,1872.000,-11.812901
1672,1873.000,13.952435
1673,1874.000,-2.625708
1674,1875.000,-1.276059
1675,1876.000,4.685914
1676,1877.000,2.541789
1677,1878.000,-4.500287
1678,1879.000,7.058645
1679,1880.000,5.865563
1680,1881.000,8.185951
1681,1882.000,-2.011771
1682,1883.000,-0.089807
1683,1884.000,3.797087
1684,1885.000,8.770578
1685,1886.000,5.65539
1686,1887.000,-0.432406
1687,1888.000,2.884072
1688,1889.000,-3.886575
1689,1890.000,12.596382
1690,1891.000,2.514676
1691,1892.000,9.868703
1692,1893.000,4.566517
1693,1894.000,0.977279
1694,1895.000,0.085005
1695,1896.000,2.827135
1696,1897.000,-0.474141
1697,1898.000,12.023527
1698,1899.000,0.812955
1699,1900.000,-0.262683
1700,1901.000,2.17806
1701,1902.000,3.167092
1702,1903.000,3.262758
1703,1904.000,-1.456818
1704,1905.000,8.086842
1705,1906.000,3.154121
1706,1907.000,3.099048
1707,1908.000,14.911844
1708,1909.000,1.210843
1709,1910.000,1.223933
1710,1911.000,-13.512674
1711,1912.000,8.464336
1712,1913.000,4.067117
1713,1914.000,-4.951644
1714,1915.000,8.497235
1715,1916.000,-5.165807
1716,1917.000,-3.237133
1717,1918.000,-2.388829
1718,1919.000,7.018751
1719,1920.000,-2.215247
1720,1921.000,-3.371834
1721,1922.000,-1.50156
1722,1923.000,8.440996
1723,1924.000,-6.771543
1724,1925.000,8.119615
1725,1926.000,-7.347851
1726,1927.000,-1.668903
1727,1928.000,4.016705
1728,1929.000,-1.54998
1729,1930.000,-12.887749
1730,1931.000,2.230183
1731,1932.000,7.335699
1732,1933.000,-8.403176
1733,1934.000,-2.306845
1734,1935.000,-0.294282
1735,1936.000,-5.836942
1736,1937.000,2.975449
1737,1938.000,10.383931
1738,1939.000,3.969323
1739,1940.000,-2.686931
1740,1941.000,-4.031878
1741,1942.000,-18.402692
1742,1943.000,4.446878
1743,1944.000,-3.484021
1744,1945.000,-0.951252
1745,1946.000,-7.283696
1746,1947.000,-5.268129
1747,1948.000,-0.691221
1748,1949.000,-12.113171
1749,1950.000,-8.428027
1750,1951.000,-1.124408
1751,1952.000,-0.455378
1752,1953.000,-0.279392
1753,1954.000,-0.183252
1754,1955.000,-6.159604
1755,1956.000,0.884908
1756,1957.000,-1.123915
1757,1958.000,9.68476
1758,1959.000,-2.685474
1759,1960.000,-2.767139
1760,1961.000,-4.957773
1761,1962.000,12.53266
1762,1963.000,0.759748
1763,1964.000,-0.152531
1764,1965.000,8.726412
1765,1966.000,2.463988
1766,1967.000,7.130974
1767,1968.000,-11.709293
1768,1969.000,2.799443
1769,1970.000,2.939968
1770,1971.000,-8.902285
1771,1972.000,3.952332
1772,1973.000,2.631632
1773,1974.000,2.498678
1774,1975.000,-3.136317
1775,1976.000,1.581367
1776,1977.000,2.87089
1777,1978.000,-3.603627
1778,1979.000,-7.879702
1779,1980.000,1.035123
1780,1981.000,-3.430541
1781,1982.000,-4.402535
1782,1983.000,-1.34711
1783,1984.000,4.51985
1784,1985.000,-0.9057
1785,1986.000,3.107597
1786,1987.000,-0.781002
1787,1988.000,2.265218
1788,1989.000,11.663262
1789,1990.000,0.615272
1790,1991.000,4.276391
1791,1992.000,2.326912
1792,1993.000,-0.731398
1793,1994.000,5.074858
1794,1995.000,7.422478
1795,1996.000,0.525007
1796,1997.000,-1.418961
1797,1998.000,3.369492
1798,1999.000,-0.734802
1799,2000.000,-6.725018
1800,2001.000,6.400297
