# laser_nm,532.021
# calibration,factory_polynomial
# exposure_time,0.2
# laser_power_pct,20
pixel,raman_shift_cm-1,wavelength_nm,intensity
0,2435.172,611.2066,220
1,2433.035,611.1268,215
2,2430.897,611.0470,216
3,2428.758,610.9672,214
4,2426.619,610.8873,217
5,2424.480,610.8075,216
6,2422.339,610.7276,221
7,2420.198,610.6478,217
8,2418.056,610.5679,215
9,2415.914,610.4881,217
10,2413.771,610.4082,213
11,2411.627,610.3283,216
12,2409.483,610.2485,215
13,2407.338,610.1686,219
14,2405.192,610.0887,219
15,2403.046,610.0089,214
16,2400.899,609.9290,217
17,2398.751,609.8491,212
18,2396.603,609.7692,216
19,2394.454,609.6893,216
20,2392.304,609.6094,213
21,2390.154,609.5295,215
22,2388.003,609.4496,215
23,2385.851,609.3697,215
24,2383.699,609.2898,218
25,2381.546,609.2099,218
26,2379.392,609.1300,219
27,2377.238,609.0500,215
28,2375.083,608.9701,215
29,2372.927,608.8902,213
30,2370.771,608.8102,214
31,2368.614,608.7303,215
32,2366.457,608.6504,213
33,2364.298,608.5704,215
34,2362.139,608.4905,214
35,2359.980,608.4105,215
36,2357.819,608.3306,213
37,2355.659,608.2506,218
38,2353.497,608.1706,211
39,2351.335,608.0907,219
40,2349.172,608.0107,219
41,2347.008,607.9307,220
42,2344.844,607.8508,218
43,2342.679,607.7708,221
44,2340.513,607.6908,220
45,2338.347,607.6108,218
46,2336.180,607.5308,215
47,2334.012,607.4508,212
48,2331.844,607.3708,215
49,2329.675,607.2908,215
50,2327.505,607.2108,212
51,2325.335,607.1308,216
52,2323.164,607.0508,220
53,2320.993,606.9708,216
54,2318.820,606.8908,213
55,2316.647,606.8107,220
56,2314.474,606.7307,211
57,2312.299,606.6507,215
58,2310.124,606.5706,218
59,2307.949,606.4906,216
60,2305.772,606.4106,214
61,2303.595,606.3305,219
62,2301.418,606.2505,215
63,2299.239,606.1704,215
64,2297.060,606.0904,218
65,2294.881,606.0103,214
66,2292.700,605.9302,217
67,2290.519,605.8502,216
68,2288.338,605.7701,217
69,2286.155,605.6900,211
70,2283.972,605.6099,217
71,2281.789,605.5299,210
72,2279.604,605.4498,216
73,2277.419,605.3697,214
74,2275.233,605.2896,218
75,2273.047,605.2095,216
76,2270.860,605.1294,218
77,2268.672,605.0493,217
78,2266.484,604.9692,222
79,2264.295,604.8891,214
80,2262.105,604.8090,215
81,2259.914,604.7289,216
82,2257.723,604.6488,217
83,2255.531,604.5686,212
84,2253.339,604.4885,220
85,2251.146,604.4084,223
86,2248.952,604.3282,218
87,2246.757,604.2481,217
88,2244.562,604.1680,218
89,2242.366,604.0878,219
90,2240.170,604.0077,218
91,2237.973,603.9275,219
92,2235.775,603.8474,220
93,2233.576,603.7672,218
94,2231.377,603.6871,221
95,2229.177,603.6069,215
96,2226.976,603.5267,220
97,2224.775,603.4466,217
98,2222.573,603.3664,215
99,2220.370,603.2862,223
100,2218.167,603.2060,218
101,2215.963,603.1259,217
102,2213.758,603.0457,222
103,2211.553,602.9655,219
104,2209.347,602.8853,221
105,2207.140,602.8051,217
106,2204.933,602.7249,218
107,2202.725,602.6447,218
108,2200.516,602.5645,218
109,2198.307,602.4843,219
110,2196.096,602.4040,213
111,2193.886,602.3238,218
112,2191.674,602.2436,220
113,2189.462,602.1634,220
114,2187.249,602.0832,219
115,2185.036,602.0029,215
116,2182.821,601.9227,219
117,2180.606,601.8425,216
118,2178.391,601.7622,223
119,2176.175,601.6820,220
120,2173.958,601.6017,223
121,2171.740,601.5215,220
122,2169.522,601.4412,214
123,2167.303,601.3610,222
124,2165.083,601.2807,222
125,2162.863,601.2004,218
126,2160.642,601.1202,216
127,2158.420,601.0399,220
128,2156.197,600.9596,218
129,2153.974,600.8793,217
130,2151.750,600.7991,222
131,2149.526,600.7188,223
132,2147.301,600.6385,220
133,2145.075,600.5582,217
134,2142.848,600.4779,224
135,2140.621,600.3976,224
136,2138.393,600.3173,222
137,2136.165,600.2370,227
138,2133.935,600.1567,220
139,2131.705,600.0764,220
140,2129.475,599.9961,222
141,2127.243,599.9158,216
142,2125.011,599.8354,220
143,2122.779,599.7551,219
144,2120.545,599.6748,226
145,2118.311,599.5945,224
146,2116.076,599.5141,221
147,2113.841,599.4338,222
148,2111.605,599.3534,222
149,2109.368,599.2731,224
150,2107.130,599.1928,222
151,2104.892,599.1124,217
152,2102.653,599.0321,225
153,2100.413,598.9517,223
154,2098.173,598.8713,217
155,2095.932,598.7910,216
156,2093.690,598.7106,218
157,2091.448,598.6302,220
158,2089.205,598.5499,220
159,2086.961,598.4695,221
160,2084.717,598.3891,220
161,2082.471,598.3087,223
162,2080.226,598.2283,220
163,2077.979,598.1480,215
164,2075.732,598.0676,220
165,2073.484,597.9872,221
166,2071.235,597.9068,220
167,2068.986,597.8264,220
168,2066.736,597.7460,223
169,2064.485,597.6656,220
170,2062.234,597.5852,225
171,2059.982,597.5047,226
172,2057.729,597.4243,223
173,2055.475,597.3439,221
174,2053.221,597.2635,223
175,2050.966,597.1831,223
176,2048.711,597.1026,225
177,2046.454,597.0222,223
178,2044.197,596.9418,219
179,2041.940,596.8613,215
180,2039.681,596.7809,221
181,2037.422,596.7004,221
182,2035.163,596.6200,224
183,2032.902,596.5395,223
184,2030.641,596.4591,224
185,2028.379,596.3786,223
186,2026.117,596.2982,216
187,2023.853,596.2177,223
188,2021.589,596.1372,221
189,2019.325,596.0568,226
190,2017.059,595.9763,223
191,2014.793,595.8958,219
192,2012.527,595.8153,223
193,2010.259,595.7348,220
194,2007.991,595.6544,223
195,2005.722,595.5739,220
196,2003.453,595.4934,222
197,2001.182,595.4129,223
198,1998.912,595.3324,224
199,1996.640,595.2519,226
200,1994.368,595.1714,224
201,1992.095,595.0909,221
202,1989.821,595.0104,219
203,1987.546,594.9299,223
204,1985.271,594.8493,224
205,1982.995,594.7688,223
206,1980.719,594.6883,221
207,1978.442,594.6078,219
208,1976.164,594.5272,224
209,1973.885,594.4467,227
210,1971.606,594.3662,223
211,1969.325,594.2856,218
212,1967.045,594.2051,221
213,1964.763,594.1246,221
214,1962.481,594.0440,227
215,1960.198,593.9635,222
216,1957.915,593.8829,218
217,1955.630,593.8024,220
218,1953.345,593.7218,219
219,1951.060,593.6412,223
220,1948.773,593.5607,219
221,1946.486,593.4801,221
222,1944.198,593.3995,228
223,1941.910,593.3190,223
224,1939.620,593.2384,225
225,1937.331,593.1578,223
226,1935.040,593.0772,223
227,1932.749,592.9966,217
228,1930.456,592.9160,218
229,1928.164,592.8355,223
230,1925.870,592.7549,222
231,1923.576,592.6743,220
232,1921.281,592.5937,229
233,1918.986,592.5131,225
234,1916.689,592.4325,224
235,1914.392,592.3518,223
236,1912.094,592.2712,220
237,1909.796,592.1906,220
238,1907.497,592.1100,221
239,1905.197,592.0294,222
240,1902.896,591.9488,223
241,1900.595,591.8681,222
242,1898.293,591.7875,222
243,1895.990,591.7069,224
244,1893.687,591.6262,221
245,1891.383,591.5456,223
246,1889.078,591.4650,227
247,1886.773,591.3843,222
248,1884.466,591.3037,230
249,1882.159,591.2230,220
250,1879.852,591.1424,219
251,1877.543,591.0617,226
252,1875.234,590.9810,229
253,1872.924,590.9004,223
254,1870.614,590.8197,218
255,1868.302,590.7391,220
256,1865.991,590.6584,219
257,1863.678,590.5777,219
258,1861.364,590.4970,220
259,1859.050,590.4164,221
260,1856.736,590.3357,216
261,1854.420,590.2550,219
262,1852.104,590.1743,224
263,1849.787,590.0936,220
264,1847.469,590.0129,220
265,1845.151,589.9322,225
266,1842.832,589.8515,221
267,1840.512,589.7708,222
268,1838.191,589.6901,218
269,1835.870,589.6094,223
270,1833.548,589.5287,224
271,1831.225,589.4480,227
272,1828.902,589.3673,223
273,1826.578,589.2866,227
274,1824.253,589.2058,225
275,1821.927,589.1251,228
276,1819.601,589.0444,224
277,1817.274,588.9636,226
278,1814.946,588.8829,225
279,1812.618,588.8022,225
280,1810.289,588.7214,232
281,1807.959,588.6407,232
282,1805.628,588.5600,224
283,1803.297,588.4792,230
284,1800.965,588.3985,229
285,1798.632,588.3177,223
286,1796.298,588.2370,221
287,1793.964,588.1562,231
288,1791.629,588.0754,224
289,1789.294,587.9947,223
290,1786.957,587.9139,223
291,1784.620,587.8331,225
292,1782.282,587.7524,221
293,1779.944,587.6716,226
294,1777.605,587.5908,232
295,1775.265,587.5100,226
296,1772.924,587.4292,223
297,1770.582,587.3485,221
298,1768.240,587.2677,227
299,1765.897,587.1869,228
300,1763.554,587.1061,230
301,1761.209,587.0253,222
302,1758.864,586.9445,226
303,1756.519,586.8637,225
304,1754.172,586.7829,227
305,1751.825,586.7021,231
306,1749.477,586.6213,221
307,1747.128,586.5405,228
308,1744.779,586.4596,226
309,1742.429,586.3788,234
310,1740.078,586.2980,228
311,1737.726,586.2172,223
312,1735.374,586.1364,235
313,1733.021,586.0555,228
314,1730.667,585.9747,225
315,1728.313,585.8939,227
316,1725.957,585.8130,221
317,1723.601,585.7322,231
318,1721.245,585.6513,227
319,1718.887,585.5705,225
320,1716.529,585.4896,224
321,1714.170,585.4088,229
322,1711.811,585.3279,226
323,1709.450,585.2471,220
324,1707.089,585.1662,223
325,1704.728,585.0854,229
326,1702.365,585.0045,229
327,1700.002,584.9236,225
328,1697.638,584.8428,223
329,1695.273,584.7619,224
330,1692.908,584.6810,221
331,1690.541,584.6001,224
332,1688.175,584.5193,224
333,1685.807,584.4384,229
334,1683.439,584.3575,228
335,1681.069,584.2766,227
336,1678.700,584.1957,232
337,1676.329,584.1148,224
338,1673.958,584.0339,226
339,1671.586,583.9530,225
340,1669.213,583.8721,228
341,1666.839,583.7912,224
342,1664.465,583.7103,227
343,1662.090,583.6294,226
344,1659.715,583.5485,229
345,1657.338,583.4676,226
346,1654.961,583.3867,222
347,1652.583,583.3058,225
348,1650.204,583.2248,230
349,1647.825,583.1439,232
350,1645.445,583.0630,228
351,1643.064,582.9821,229
352,1640.682,582.9011,227
353,1638.300,582.8202,230
354,1635.917,582.7393,222
355,1633.533,582.6583,223
356,1631.149,582.5774,233
357,1628.763,582.4964,231
358,1626.377,582.4155,225
359,1623.991,582.3345,234
360,1621.603,582.2536,225
361,1619.215,582.1726,226
362,1616.826,582.0917,232
363,1614.436,582.0107,228
364,1612.046,581.9298,227
365,1609.655,581.8488,225
366,1607.263,581.7678,229
367,1604.870,581.6869,231
368,1602.477,581.6059,230
369,1600.082,581.5249,231
370,1597.688,581.4439,228
371,1595.292,581.3629,229
372,1592.896,581.2820,230
373,1590.498,581.2010,233
374,1588.101,581.1200,227
375,1585.702,581.0390,229
376,1583.303,580.9580,231
377,1580.903,580.8770,231
378,1578.502,580.7960,229
379,1576.100,580.7150,228
380,1573.698,580.6340,226
381,1571.295,580.5530,227
382,1568.891,580.4720,231
383,1566.487,580.3910,236
384,1564.081,580.3100,232
385,1561.675,580.2290,229
386,1559.268,580.1480,231
387,1556.861,580.0669,236
388,1554.453,579.9859,227
389,1552.044,579.9049,230
390,1549.634,579.8239,227
391,1547.223,579.7428,228
392,1544.812,579.6618,229
393,1542.400,579.5808,230
394,1539.987,579.4997,228
395,1537.574,579.4187,227
396,1535.160,579.3377,226
397,1532.745,579.2566,228
398,1530.329,579.1756,225
399,1527.912,579.0945,228
400,1525.495,579.0135,231
401,1523.077,578.9324,232
402,1520.658,578.8514,231
403,1518.239,578.7703,225
404,1515.819,578.6892,233
405,1513.398,578.6082,228
406,1510.976,578.5271,230
407,1508.554,578.4460,236
408,1506.130,578.3650,238
409,1503.706,578.2839,224
410,1501.282,578.2028,233
411,1498.856,578.1218,230
412,1496.430,578.0407,227
413,1494.003,577.9596,227
414,1491.575,577.8785,227
415,1489.147,577.7974,228
416,1486.717,577.7163,227
417,1484.288,577.6352,227
418,1481.857,577.5542,231
419,1479.425,577.4731,227
420,1476.993,577.3920,228
421,1474.560,577.3109,235
422,1472.126,577.2298,222
423,1469.692,577.1486,231
424,1467.256,577.0675,231
425,1464.820,576.9864,232
426,1462.384,576.9053,233
427,1459.946,576.8242,232
428,1457.508,576.7431,231
429,1455.069,576.6620,229
430,1452.629,576.5808,224
431,1450.188,576.4997,233
432,1447.747,576.4186,234
433,1445.305,576.3375,229
434,1442.862,576.2563,234
435,1440.419,576.1752,231
436,1437.974,576.0941,235
437,1435.529,576.0129,231
438,1433.083,575.9318,229
439,1430.637,575.8507,236
440,1428.189,575.7695,232
441,1425.741,575.6884,231
442,1423.292,575.6072,234
443,1420.843,575.5261,236
444,1418.392,575.4449,232
445,1415.941,575.3638,235
446,1413.489,575.2826,231
447,1411.037,575.2014,225
448,1408.583,575.1203,236
449,1406.129,575.0391,231
450,1403.674,574.9579,235
451,1401.218,574.8768,234
452,1398.762,574.7956,235
453,1396.305,574.7144,228
454,1393.847,574.6333,234
455,1391.388,574.5521,241
456,1388.928,574.4709,245
457,1386.468,574.3897,238
458,1384.007,574.3085,238
459,1381.545,574.2273,236
460,1379.083,574.1462,237
461,1376.619,574.0650,241
462,1374.155,573.9838,243
463,1371.690,573.9026,241
464,1369.225,573.8214,242
465,1366.758,573.7402,244
466,1364.291,573.6590,245
467,1361.823,573.5778,238
468,1359.354,573.4966,241
469,1356.885,573.4154,240
470,1354.415,573.3341,241
471,1351.944,573.2529,231
472,1349.472,573.1717,232
473,1346.999,573.0905,236
474,1344.526,573.0093,233
475,1342.052,572.9281,243
476,1339.577,572.8468,232
477,1337.102,572.7656,241
478,1334.625,572.6844,243
479,1332.148,572.6031,246
480,1329.670,572.5219,243
481,1327.191,572.4407,246
482,1324.712,572.3594,243
483,1322.232,572.2782,254
484,1319.751,572.1970,250
485,1317.269,572.1157,245
486,1314.787,572.0345,256
487,1312.303,571.9532,250
488,1309.819,571.8720,250
489,1307.334,571.7907,250
490,1304.849,571.7095,248
491,1302.362,571.6282,242
492,1299.875,571.5470,242
493,1297.387,571.4657,242
494,1294.899,571.3844,236
495,1292.409,571.3032,243
496,1289.919,571.2219,243
497,1287.428,571.1406,238
498,1284.936,571.0594,234
499,1282.444,570.9781,241
500,1279.950,570.8968,236
501,1277.456,570.8155,237
502,1274.961,570.7343,239
503,1272.466,570.6530,230
504,1269.969,570.5717,234
505,1267.472,570.4904,235
506,1264.974,570.4091,231
507,1262.475,570.3278,226
508,1259.976,570.2465,228
509,1257.476,570.1652,235
510,1254.974,570.0840,234
511,1252.473,570.0027,236
512,1249.970,569.9214,235
513,1247.467,569.8401,235
514,1244.962,569.7588,229
515,1242.457,569.6774,234
516,1239.952,569.5961,231
517,1237.445,569.5148,233
518,1234.938,569.4335,228
519,1232.430,569.3522,230
520,1229.921,569.2709,234
521,1227.411,569.1896,223
522,1224.901,569.1082,233
523,1222.390,569.0269,229
524,1219.878,568.9456,231
525,1217.365,568.8643,227
526,1214.851,568.7829,229
527,1212.337,568.7016,224
528,1209.822,568.6203,233
529,1207.306,568.5390,230
530,1204.790,568.4576,230
531,1202.272,568.3763,228
532,1199.754,568.2949,233
533,1197.235,568.2136,232
534,1194.715,568.1323,229
535,1192.195,568.0509,226
536,1189.673,567.9696,227
537,1187.151,567.8882,223
538,1184.628,567.8069,225
539,1182.104,567.7255,231
540,1179.580,567.6442,228
541,1177.055,567.5628,224
542,1174.529,567.4814,231
543,1172.002,567.4001,231
544,1169.474,567.3187,231
545,1166.946,567.2373,225
546,1164.417,567.1560,230
547,1161.887,567.0746,226
548,1159.356,566.9932,227
549,1156.824,566.9119,226
550,1154.292,566.8305,226
551,1151.759,566.7491,226
552,1149.225,566.6677,235
553,1146.690,566.5864,228
554,1144.155,566.5050,235
555,1141.619,566.4236,231
556,1139.081,566.3422,227
557,1136.544,566.2608,235
558,1134.005,566.1794,232
559,1131.466,566.0980,232
560,1128.925,566.0166,228
561,1126.384,565.9352,228
562,1123.843,565.8538,223
563,1121.300,565.7724,233
564,1118.757,565.6910,227
565,1116.212,565.6096,233
566,1113.668,565.5282,226
567,1111.122,565.4468,230
568,1108.575,565.3654,228
569,1106.028,565.2840,226
570,1103.480,565.2026,232
571,1100.931,565.1212,228
572,1098.381,565.0398,231
573,1095.831,564.9584,224
574,1093.279,564.8769,232
575,1090.727,564.7955,232
576,1088.174,564.7141,225
577,1085.621,564.6327,227
578,1083.066,564.5512,227
579,1080.511,564.4698,230
580,1077.955,564.3884,226
581,1075.398,564.3069,227
582,1072.840,564.2255,231
583,1070.282,564.1441,228
584,1067.723,564.0626,227
585,1065.163,563.9812,226
586,1062.602,563.8997,223
587,1060.040,563.8183,227
588,1057.478,563.7369,227
589,1054.915,563.6554,230
590,1052.351,563.5740,231
591,1049.786,563.4925,226
592,1047.220,563.4111,223
593,1044.654,563.3296,223
594,1042.087,563.2482,230
595,1039.519,563.1667,228
596,1036.950,563.0852,226
597,1034.380,563.0038,230
598,1031.810,562.9223,222
599,1029.239,562.8408,226
600,1026.667,562.7594,232
601,1024.094,562.6779,228
602,1021.520,562.5964,226
603,1018.946,562.5150,227
604,1016.371,562.4335,224
605,1013.795,562.3520,223
606,1011.218,562.2705,223
607,1008.640,562.1891,229
608,1006.062,562.1076,228
609,1003.483,562.0261,225
610,1000.903,561.9446,230
611,998.322,561.8631,227
612,995.740,561.7816,229
613,993.158,561.7002,223
614,990.575,561.6187,227
615,987.990,561.5372,229
616,985.406,561.4557,231
617,982.820,561.3742,222
618,980.234,561.2927,225
619,977.646,561.2112,222
620,975.058,561.1297,228
621,972.469,561.0482,227
622,969.880,560.9667,229
623,967.289,560.8852,231
624,964.698,560.8037,227
625,962.106,560.7222,232
626,959.513,560.6406,224
627,956.919,560.5591,222
628,954.325,560.4776,229
629,951.729,560.3961,225
630,949.133,560.3146,232
631,946.536,560.2331,227
632,943.939,560.1515,226
633,941.340,560.0700,227
634,938.741,559.9885,224
635,936.141,559.9070,229
636,933.540,559.8254,225
637,930.938,559.7439,233
638,928.335,559.6624,226
639,925.732,559.5808,232
640,923.128,559.4993,228
641,920.523,559.4178,225
642,917.917,559.3362,223
643,915.310,559.2547,229
644,912.703,559.1732,231
645,910.094,559.0916,224
646,907.485,559.0101,228
647,904.875,558.9285,227
648,902.265,558.8470,227
649,899.653,558.7654,223
650,897.041,558.6839,232
651,894.428,558.6023,226
652,891.814,558.5208,226
653,889.199,558.4392,229
654,886.583,558.3577,229
655,883.967,558.2761,227
656,881.350,558.1946,228
657,878.732,558.1130,231
658,876.113,558.0314,226
659,873.493,557.9499,232
660,870.873,557.8683,229
661,868.251,557.7867,228
662,865.629,557.7052,225
663,863.006,557.6236,228
664,860.383,557.5420,225
665,857.758,557.4604,229
666,855.133,557.3789,223
667,852.506,557.2973,221
668,849.879,557.2157,228
669,847.251,557.1341,227
670,844.623,557.0526,221
671,841.993,556.9710,222
672,839.363,556.8894,226
673,836.732,556.8078,225
674,834.100,556.7262,226
675,831.467,556.6446,223
676,828.834,556.5630,225
677,826.199,556.4814,224
678,823.564,556.3998,231
679,820.928,556.3182,227
680,818.291,556.2367,224
681,815.653,556.1551,227
682,813.015,556.0735,230
683,810.376,555.9919,222
684,807.735,555.9103,224
685,805.094,555.8286,223
686,802.453,555.7470,223
687,799.810,555.6654,225
688,797.166,555.5838,226
689,794.522,555.5022,224
690,791.877,555.4206,223
691,789.231,555.3390,232
692,786.584,555.2574,226
693,783.937,555.1758,227
694,781.288,555.0941,226
695,778.639,555.0125,229
696,775.989,554.9309,224
697,773.338,554.8493,228
698,770.687,554.7677,224
699,768.034,554.6860,226
700,765.381,554.6044,226
701,762.726,554.5228,225
702,760.071,554.4412,221
703,757.416,554.3595,224
704,754.759,554.2779,226
705,752.101,554.1963,224
706,749.443,554.1146,224
707,746.784,554.0330,222
708,744.124,553.9514,224
709,741.463,553.8697,226
710,738.801,553.7881,223
711,736.139,553.7064,227
712,733.476,553.6248,223
713,730.812,553.5431,230
714,728.147,553.4615,224
715,725.481,553.3799,225
716,722.814,553.2982,225
717,720.147,553.2166,223
718,717.478,553.1349,225
719,714.809,553.0533,223
720,712.139,552.9716,224
721,709.468,552.8899,226
722,706.797,552.8083,226
723,704.124,552.7266,223
724,701.451,552.6450,234
725,698.777,552.5633,222
726,696.102,552.4817,226
727,693.426,552.4000,233
728,690.749,552.3183,223
729,688.072,552.2367,229
730,685.394,552.1550,228
731,682.715,552.0733,223
732,680.035,551.9917,227
733,677.354,551.9100,224
734,674.672,551.8283,222
735,671.990,551.7466,228
736,669.306,551.6650,223
737,666.622,551.5833,229
738,663.937,551.5016,222
739,661.251,551.4199,227
740,658.564,551.3382,226
741,655.877,551.2566,225
742,653.189,551.1749,216
743,650.499,551.0932,228
744,647.809,551.0115,221
745,645.118,550.9298,223
746,642.427,550.8481,224
747,639.734,550.7664,225
748,637.041,550.6848,218
749,634.347,550.6031,225
750,631.651,550.5214,222
751,628.956,550.4397,224
752,626.259,550.3580,225
753,623.561,550.2763,227
754,620.863,550.1946,229
755,618.163,550.1129,223
756,615.463,550.0312,220
757,612.762,549.9495,221
758,610.060,549.8678,224
759,607.358,549.7861,223
760,604.654,549.7044,219
761,601.950,549.6227,227
762,599.245,549.5410,224
763,596.539,549.4592,223
764,593.832,549.3775,228
765,591.124,549.2958,224
766,588.415,549.2141,222
767,585.706,549.1324,220
768,582.996,549.0507,224
769,580.284,548.9690,225
770,577.573,548.8872,225
771,574.860,548.8055,223
772,572.146,548.7238,226
773,569.431,548.6421,226
774,566.716,548.5604,222
775,564.000,548.4786,225
776,561.283,548.3969,226
777,558.565,548.3152,230
778,555.846,548.2335,226
779,553.127,548.1517,232
780,550.406,548.0700,223
781,547.685,547.9883,219
782,544.963,547.9065,223
783,542.240,547.8248,226
784,539.516,547.7431,224
785,536.791,547.6613,225
786,534.065,547.5796,222
787,531.339,547.4979,225
788,528.612,547.4161,225
789,525.884,547.3344,222
790,523.155,547.2526,221
791,520.425,547.1709,227
792,517.694,547.0892,225
793,514.963,547.0074,226
794,512.230,546.9257,225
795,509.497,546.8439,219
796,506.763,546.7622,222
797,504.028,546.6804,222
798,501.292,546.5987,225
799,498.555,546.5169,225
800,495.818,546.4352,222
801,493.079,546.3534,223
802,490.340,546.2717,223
803,487.600,546.1899,221
804,484.859,546.1081,224
805,482.117,546.0264,222
806,479.375,545.9446,225
807,476.631,545.8629,221
808,473.887,545.7811,227
809,471.142,545.6993,225
810,468.395,545.6176,224
811,465.648,545.5358,224
812,462.901,545.4541,220
813,460.152,545.3723,221
814,457.402,545.2905,227
815,454.652,545.2087,224
816,451.901,545.1270,228
817,449.149,545.0452,229
818,446.396,544.9634,226
819,443.642,544.8817,222
820,440.887,544.7999,223
821,438.132,544.7181,229
822,435.375,544.6363,223
823,432.618,544.5546,222
824,429.860,544.4728,221
825,427.101,544.3910,221
826,424.341,544.3092,222
827,421.580,544.2274,222
828,418.818,544.1457,225
829,416.056,544.0639,220
830,413.293,543.9821,222
831,410.528,543.9003,224
832,407.763,543.8185,223
833,404.997,543.7367,219
834,402.231,543.6549,224
835,399.463,543.5732,226
836,396.694,543.4914,214
837,393.925,543.4096,219
838,391.155,543.3278,218
839,388.384,543.2460,225
840,385.612,543.1642,222
841,382.839,543.0824,228
842,380.065,543.0006,227
843,377.290,542.9188,219
844,374.515,542.8370,227
845,371.739,542.7552,221
846,368.961,542.6734,228
847,366.183,542.5916,222
848,363.404,542.5098,221
849,360.624,542.4280,221
850,357.844,542.3462,220
851,355.062,542.2644,223
852,352.280,542.1826,218
853,349.496,542.1008,222
854,346.712,542.0190,221
855,343.927,541.9372,222
856,341.141,541.8554,221
857,338.355,541.7736,220
858,335.567,541.6917,224
859,332.778,541.6099,224
860,329.989,541.5281,219
861,327.199,541.4463,224
862,324.407,541.3645,219
863,321.615,541.2827,225
864,318.822,541.2009,221
865,316.029,541.1190,220
866,313.234,541.0372,224
867,310.438,540.9554,220
868,307.642,540.8736,223
869,304.845,540.7918,223
870,302.047,540.7099,217
871,299.248,540.6281,228
872,296.448,540.5463,218
873,293.647,540.4645,221
874,290.845,540.3827,222
875,288.043,540.3008,219
876,285.239,540.2190,229
877,282.435,540.1372,224
878,279.630,540.0553,223
879,276.824,539.9735,220
880,274.017,539.8917,227
881,271.209,539.8099,225
882,268.400,539.7280,222
883,265.591,539.6462,220
884,262.780,539.5644,221
885,259.969,539.4825,223
886,257.157,539.4007,224
887,254.343,539.3188,221
888,251.529,539.2370,221
889,248.715,539.1552,222
890,245.899,539.0733,224
891,243.082,538.9915,224
892,240.265,538.9097,224
893,237.446,538.8278,219
894,234.627,538.7460,220
895,231.807,538.6641,225
896,228.986,538.5823,220
897,226.164,538.5004,224
898,223.341,538.4186,220
899,220.517,538.3368,219
900,217.693,538.2549,224
901,214.867,538.1731,223
902,212.041,538.0912,222
903,209.213,538.0094,221
904,206.385,537.9275,218
905,203.556,537.8457,223
906,200.726,537.7638,224
907,197.896,537.6820,222
908,195.064,537.6001,220
909,192.231,537.5183,221
910,189.398,537.4364,222
911,186.563,537.3545,219
912,183.728,537.2727,220
913,180.892,537.1908,219
914,178.055,537.1090,218
915,175.217,537.0271,222
916,172.378,536.9453,223
917,169.539,536.8634,221
918,166.698,536.7815,222
919,163.856,536.6997,220
920,161.014,536.6178,230
921,158.171,536.5360,224
922,155.327,536.4541,222
923,152.482,536.3722,218
924,149.636,536.2904,223
925,146.789,536.2085,217
926,143.941,536.1266,220
927,141.093,536.0448,223
928,138.243,535.9629,225
929,135.393,535.8810,222
930,132.541,535.7992,221
931,129.689,535.7173,220
932,126.836,535.6354,223
933,123.982,535.5536,222
934,121.127,535.4717,222
935,118.271,535.3898,218
936,115.415,535.3080,221
937,112.557,535.2261,224
938,109.699,535.1442,222
939,106.839,535.0623,220
940,103.979,534.9805,211
941,101.118,534.8986,210
942,98.256,534.8167,200
943,95.393,534.7348,189
944,92.529,534.6530,175
945,89.664,534.5711,167
946,86.798,534.4892,161
947,83.932,534.4073,154
948,81.064,534.3254,152
949,78.196,534.2436,151
950,75.327,534.1617,151
951,72.457,534.0798,150
952,69.586,533.9979,148
953,66.714,533.9160,149
954,63.841,533.8341,148
955,60.967,533.7523,150
956,58.092,533.6704,149
957,55.217,533.5885,150
958,52.340,533.5066,151
959,49.463,533.4247,150
960,46.585,533.3428,147
961,43.705,533.2609,149
962,40.825,533.1791,148
963,37.944,533.0972,150
964,35.062,533.0153,150
965,32.180,532.9334,149
966,29.296,532.8515,148
967,26.411,532.7696,147
968,23.526,532.6877,150
969,20.639,532.6058,148
970,17.752,532.5239,147
971,14.864,532.4420,152
972,11.974,532.3601,150
973,9.084,532.2783,149
974,6.193,532.1964,150
975,3.302,532.1145,150
976,0.409,532.0326,150
977,-2.485,531.9507,151
978,-5.380,531.8688,150
979,-8.275,531.7869,151
980,-11.171,531.7050,147
981,-14.069,531.6231,149
982,-16.967,531.5412,149
983,-19.866,531.4593,150
984,-22.766,531.3774,150
985,-25.667,531.2955,150
986,-28.569,531.2136,149
987,-31.472,531.1317,150
988,-34.376,531.0498,149
989,-37.280,530.9679,151
990,-40.186,530.8860,150
991,-43.092,530.8041,149
992,-46.000,530.7222,150
993,-48.908,530.6403,151
994,-51.817,530.5584,152
995,-54.727,530.4765,149
996,-57.638,530.3946,150
997,-60.550,530.3126,149
998,-63.463,530.2307,149
999,-66.377,530.1488,149
1000,-69.292,530.0669,149
1001,-72.207,529.9850,149
1002,-75.124,529.9031,150
1003,-78.041,529.8212,149
1004,-80.960,529.7393,150
1005,-83.879,529.6574,149
1006,-86.799,529.5755,150
1007,-89.720,529.4936,150
1008,-92.642,529.4117,150
1009,-95.565,529.3297,148
1010,-98.489,529.2478,146
1011,-101.414,529.1659,151
1012,-104.340,529.0840,149
1013,-107.266,529.0021,149
1014,-110.194,528.9202,150
1015,-113.122,528.8383,149
1016,-116.052,528.7564,151
1017,-118.982,528.6744,151
1018,-121.913,528.5925,150
1019,-124.845,528.5106,149
1020,-127.778,528.4287,151
1021,-130.712,528.3468,150
1022,-133.647,528.2649,149
1023,-136.583,528.1829,151
