pixel_index,raman_shift_cm-1,intensity
0,200.0,148.1304044274484
1,201.0,147.10310764964905
2,202.0,146.08084270952932
3,203.0,145.06359199726938
4,204.0,144.0513389365329
5,205.0,143.04406698443586
6,206.0,142.04176063151544
7,207.0,141.0444014016982
8,208.0,140.05197485226898
9,209.0,139.0644645738392
10,210.0,138.08185219031589
11,211.0,137.10412335886966
12,212.0,136.13126176990403
13,213.0,135.1632491470232
14,214.0,134.20007224700166
15,215.0,133.24171285975154
16,216.0,132.2881548082924
17,217.0,131.339382948719
18,218.0,130.3953811701703
19,219.0,129.45613239479792
20,220.0,128.52162157773475
21,221.0,127.59183270706356
22,222.0,126.66674980378542
23,223.0,125.7463569217887
24,224.0,124.83063714781728
25,225.0,123.91957560143916
26,226.0,123.01315743501553
27,227.0,122.11136483366852
28,228.0,121.21418301525063
29,229.0,120.32159723031282
30,230.0,119.43358976207325
31,231.0,118.550146926386
32,232.0,117.67125207170935
33,233.0,116.79689057907459
34,234.0,115.92704486205477
35,235.0,115.0617013667329
36,236.0,114.20084457167077
37,237.0,113.34445798787769
38,238.0,112.49252615877863
39,239.0,111.6450346601834
40,240.0,110.8019681002547
41,241.0,109.96331011947699
42,242.0,109.12904639062525
43,243.0,108.29916161873311
44,244.0,107.47364054106181
45,245.0,106.65246692706862
46,246.0,105.83562757837569
47,247.0,105.02310532873827
48,248.0,104.21488704401337
49,249.0,103.41095562212885
50,250.0,102.6112979930512
51,251.0,101.81589811875483
52,252.0,101.02474199319039
53,253.0,100.23781264225323
54,254.0,99.45509712375215
55,255.0,98.67658052737814
56,256.0,97.90224697467252
57,257.0,97.13208161899612
58,258.0,96.36607064549739
59,259.0,95.60419927108117
60,260.0,94.84645274437742
61,261.0,94.09281634570945
62,262.0,93.34327438706316
63,263.0,92.59781421205463
64,264.0,91.85641919589978
65,265.0,91.1190767453823
66,266.0,90.38577029882235
67,267.0,89.65648732604544
68,268.0,88.93121332835068
69,269.0,88.2099328384794
70,270.0,87.49263142058405
71,271.0,86.77929567019638
72,272.0,86.06991021419658
73,273.0,85.36446171078103
74,274.0,84.66293584943189
75,275.0,83.96531835088503
76,276.0,83.2715939670985
77,277.0,82.58175048122189
78,278.0,81.89577270756412
79,279.0,81.21364649156263
80,280.0,80.53535770975142
81,281.0,79.86089326973004
82,282.0,79.19023811013217
83,283.0,78.5233782005941
84,284.0,77.86030154172309
85,285.0,77.20099216506647
86,286.0,76.54543613308003
87,287.0,75.89362153909627
88,288.0,75.24553350729346
89,289.0,74.601158192664
90,290.0,73.96048078098329
91,291.0,73.3234904887776
92,292.0,72.69017056329366
93,293.0,72.0605102824666
94,294.0,71.43449295488844
95,295.0,70.8121079197774
96,296.0,70.19333954694564
97,297.0,69.57817523676832
98,298.0,68.96660142015227
99,299.0,68.35860555850442
100,300.0,67.75417214370029
101,301.0,67.1532896980527
102,302.0,66.55594477428045
103,303.0,65.9621229554768
104,304.0,65.37181185507792
105,305.0,64.78499711683192
106,306.0,64.20166741476703
107,307.0,63.62180845316034
108,308.0,63.04540696650646
109,309.0,62.47244971948585
110,310.0,61.902924506933715
111,311.0,61.33681715380872
112,312.0,60.77411651516092
113,313.0,60.214807476101164
114,314.0,59.65887795176903
115,315.0,59.10631488730166
116,316.0,58.55710625780293
117,317.0,58.01123806831066
118,318.0,57.46869835376678
119,319.0,56.929474178984925
120,320.0,56.393551638619016
121,321.0,55.860919857132586
122,322.0,55.33156498876671
123,323.0,54.80547421750873
124,324.0,54.282635757060994
125,325.0,53.76303585080944
126,326.0,53.246663771791965
127,327.0,52.73350482266747
128,328.0,52.22354833568389
129,329.0,51.71678167264706
130,330.0,51.21319122488956
131,331.0,50.71276441323879
132,332.0,50.21549068798586
133,333.0,49.72135652885444
134,334.0,49.23034944496861
135,335.0,48.74245797482235
136,336.0,48.25766968624736
137,337.0,47.77597217638218
138,338.0,47.29735307164043
139,339.0,46.821800027679636
140,340.0,46.349301729369934
141,341.0,45.87984589076206
142,342.0,45.41342025505681
143,343.0,44.950012594572684
144,344.0,44.4896107107155
145,345.0,44.03220443394623
146,346.0,43.57777962374954
147,347.0,43.12632616860325
148,348.0,42.677830985945825
149,349.0,42.23228302214588
150,350.0,41.78967025247002
151,351.0,41.34998068105204
152,352.0,40.91320334086132
153,353.0,40.47932629367113
154,354.0,40.04833663002765
155,355.0,39.62022446921824
156,356.0,39.19497795924036
157,357.0,38.77258427676975
158,358.0,38.35303362712946
159,359.0,37.936313244257995
160,360.0,37.52241339067836
161,361.0,37.11132035746635
162,362.0,36.70302446421916
163,363.0,36.29751305902416
164,364.0,35.89477651842719
165,365.0,35.49480224740161
166,366.0,35.09758067931648
167,367.0,34.703098275905084
168,368.0,34.311345527234124
169,369.0,33.9223099516716
170,370.0,33.535982095855864
171,371.0,33.15235053466406
172,372.0,32.77140287118078
173,373.0,32.39313073666645
174,374.0,32.017519790526336
175,375.0,31.6445627202784
176,376.0,31.274245241522976
177,377.0,30.906559097910446
178,378.0,30.541493061109946
179,379.0,30.179034930778556
180,380.0,29.819175534529307
181,381.0,29.461903727900008
182,382.0,29.107208394321546
183,383.0,28.755079445087247
184,384.0,28.405506819320394
185,385.0,28.05847848394366
186,386.0,27.713985433647537
187,387.0,27.372015690858504
188,388.0,27.032560305708117
189,389.0,26.695608356001273
190,390.0,26.361149947185154
191,391.0,26.02917321231739
192,392.0,25.69967031203501
193,393.0,25.372628434522667
194,394.0,25.04803979548184
195,395.0,24.7258926380986
196,396.0,24.406177233013068
197,397.0,24.08888387828715
198,398.0,23.774001899373985
199,399.0,23.46152264908585
200,400.0,23.15143450756304
201,401.0,22.843729882242584
202,402.0,22.538396207826622
203,403.0,22.23542494625076
204,404.0,21.934806586653806
205,405.0,21.636531645344647
206,406.0,21.340589665771958
207,407.0,21.04697221849294
208,408.0,20.755667901141194
209,409.0,20.46666833839565
210,410.0,20.179964181949387
211,411.0,19.89554611047768
212,412.0,19.61340382960725
213,413.0,19.333528071884544
214,414.0,19.055910596743644
215,415.0,18.78054219047661
216,416.0,18.507412666199954
217,417.0,18.236512863824814
218,418.0,17.96783465002504
219,419.0,17.701367918205563
220,420.0,17.437104588471144
221,421.0,17.175035607595007
222,422.0,16.915151948987642
223,423.0,16.657444612664946
224,424.0,16.40190562521701
225,425.0,16.148525039776814
226,426.0,15.897294935989024
227,427.0,15.648207419977837
228,428.0,15.401252624316413
229,429.0,15.156422707994778
230,430.0,14.913709856389247
231,431.0,14.673104281230039
232,432.0,14.43459922057042
233,433.0,14.198185938755515
234,434.0,13.963855726390392
235,435.0,13.731601900308632
236,436.0,13.501414803541664
237,437.0,13.273287805286472
238,438.0,13.047212300874818
239,439.0,12.823180711741372
240,440.0,12.60118548539262
241,441.0,12.3812190953755
242,442.0,12.163274041245401
243,443.0,11.947341848535828
244,444.0,11.733417068725913
245,445.0,11.521490279209715
246,446.0,11.311556083264165
247,447.0,11.103606110018632
248,448.0,10.897634014422607
249,449.0,10.693632477214763
250,450.0,10.49159520489124
251,451.0,10.291514929674534
252,452.0,10.093385409482067
253,453.0,9.897199427894435
254,454.0,9.702950794124575
255,455.0,9.510634342985583
256,456.0,9.32024193486032
257,457.0,9.131769455669072
258,458.0,8.945209816838457
259,459.0,8.76055595527042
260,460.0,8.57780483331014
261,461.0,8.39694943871504
262,462.0,8.217983784623598
263,463.0,8.040902909523211
264,464.0,7.865702877219434
265,465.0,7.692376776804295
266,466.0,7.520920722625064
267,467.0,7.351329854252938
268,468.0,7.183599336450726
269,469.0,7.017725359142915
270,470.0,6.853702137382882
271,471.0,6.691527911322737
272,472.0,6.531196946180586
273,473.0,6.372706532210387
274,474.0,6.216052984669901
275,475.0,6.061232643788671
276,476.0,5.9082428747384625
277,477.0,5.757081067599614
278,478.0,5.60774363733141
279,479.0,5.460228023739589
280,480.0,5.314533691445547
281,481.0,5.170657129854661
282,482.0,5.0285978531247935
283,483.0,4.888353400135145
284,484.0,4.749923334454749
285,485.0,4.613307244311045
286,486.0,4.478503742558146
287,487.0,4.345513466646224
288,488.0,4.214336078589341
289,489.0,4.084972264934436
290,490.0,3.9574227367296118
291,491.0,3.8316882294932952
292,492.0,3.707771503182144
293,493.0,3.585674342159905
294,494.0,3.4653995551665275
295,495.0,3.3469489752857555
296,496.0,3.230327459914534
297,497.0,3.115536890731377
298,498.0,3.0025841736644026
299,499.0,2.8914722388613967
300,500.0,2.782208040656414
301,501.0,2.6747965575399206
302,502.0,2.56924579212685
303,503.0,2.4655617711249818
304,504.0,2.3637535453041636
305,505.0,2.2638301894642012
306,506.0,2.165799802403427
307,507.0,2.0696745068882763
308,508.0,1.9754634496209746
309,509.0,1.8831808012082831
310,510.0,1.7928387561301093
311,511.0,1.70445153270839
312,512.0,1.6180333730751926
313,513.0,1.5336005431421142
314,514.0,1.4511703325674574
315,515.0,1.3707620547270523
316,516.0,1.2923940466798882
317,517.0,1.216088669139566
318,518.0,1.1418673064410285
319,519.0,1.0697553665100656
320,520.0,0.9997772808316938
321,521.0,0.9319595044181739
322,522.0,0.8663335157787628
323,523.0,0.8029278168870633
324,524.0,0.7417779331505301
325,525.0,0.6829164133786776
326,526.0,0.6263828297516625
327,527.0,0.5722157777891397
328,528.0,0.5204578763182468
329,529.0,0.4711547674430818
330,530.0,0.42435411651258903
331,531.0,0.3801076120892759
332,532.0,0.33846996591806544
333,533.0,0.29949891289476227
334,534.0,0.263256211034701
335,535.0,0.2298076414410275
336,536.0,0.19922400827357478
337,537.0,0.17158113871749947
338,538.0,0.14695888295187842
339,539.0,0.12544111411796166
340,540.0,0.10712072828809482
341,541.0,0.09209464443407
342,542.0,0.08046780439656231
343,543.0,0.0723491728521708
344,544.0,0.06786073728332553
345,545.0,0.06712750794639533
346,546.0,0.07028851784005496
347,547.0,0.07748782267447041
348,548.0,0.08888350083958585
349,549.0,0.10464365337350046
350,550.0,0.12494840393082995
351,551.0,0.14999289875274258
352,552.0,0.17998630663379345
353,553.0,0.21515381889145146
354,554.0,0.2557366493344375
355,555.0,0.3019970342315048
356,556.0,0.3542172322795807
357,557.0,0.4127025245732341
358,558.0,0.47778121457201905
359,559.0,0.5498126280705549
360,560.0,0.6291831131655101
361,561.0,0.7163120402255743
362,562.0,0.8116558018595867
363,563.0,0.9157128128846352
364,564.0,1.029022510295249
365,565.0,1.1521743532312598
366,566.0,1.285814822947998
367,567.0,1.4306474227828687
368,568.0,1.5874446781254505
369,569.0,1.757053136385366
370,570.0,1.9404053669606753
371,571.0,2.1385259612073355
372,572.0,2.3525435324069406
373,573.0,2.583708715736094
374,574.0,2.8334031682342413
375,575.0,3.103158568772244
376,576.0,3.3946796180220815
377,577.0,3.709862038423978
378,578.0,4.050823574156482
379,579.0,4.419932991103451
380,580.0,4.819846076823865
381,581.0,5.253549640520248
382,582.0,5.724409513006549
383,583.0,6.23623254667757
384,584.0,6.79333061547689
385,585.0,7.40060961486617
386,586.0,8.063664461793365
387,587.0,8.788898094660539
388,588.0,9.583662473294424
389,589.0,10.45643157891297
390,590.0,11.417009414094935
391,591.0,12.476782002748308
392,592.0,13.649033390079126
393,593.0,14.949320642559968
394,594.0,16.395956847897736
395,595.0,18.010596115003892
396,596.0,19.818977573961376
397,597.0,21.851852375994326
398,598.0,24.146166693436214
399,599.0,26.746562719698318
400,600.0,29.707300669238748
401,601.0,33.09473777753061
402,602.0,36.99052430103089
403,603.0,41.49575951714874
404,604.0,46.73638772421489
405,605.0,52.870202241448595
406,606.0,60.095896408928354
407,607.0,68.66460158755837
408,608.0,78.89422915903896
409,609.0,91.18638252583412
410,610.0,106.04423311114022
411,611.0,124.08633035885481
412,612.0,146.04403973354522
413,613.0,172.71554572041703
414,614.0,204.82301682528237
415,615.0,242.68235657452988
416,616.0,285.57388151509093
417,617.0,330.79645121441047
418,618.0,372.7889002604144
419,619.0,403.4306412614784
420,620.0,414.7757228463969
421,621.0,403.41873466435106
422,622.0,372.7650773848776
423,623.0,330.76069069783796
424,624.0,285.52615231338586
425,625.0,242.62261696193673
426,626.0,204.75121439413573
427,627.0,172.63161938082715
428,628.0,145.9479157130217
429,629.0,123.9779262018667
430,630.0,105.92345667861315
431,631.0,91.05312899458539
432,632.0,78.74838402114915
433,633.0,68.50604164968058
434,634.0,59.92448479153401
435,635.0,52.68579537801193
436,636.0,46.53882936033219
437,637.0,41.28488470959681
438,638.0,36.76615541676219
439,639.0,32.85668849260517
440,640.0,29.45537396769359
441,641.0,26.480550892353392
442,642.0,23.86585233663945
443,643.0,21.557006390301297
444,644.0,19.509362162753888
445,645.0,17.685962783045085
446,646.0,16.056045399825337
447,647.0,14.59386118131414
448,648.0,13.277746315271514
449,649.0,12.089378008964303
450,650.0,11.013185489135793
451,651.0,10.03587800197414
452,652.0,9.146056813080634
453,653.0,8.333909207439035
454,654.0,7.590950489383346
455,655.0,6.909815982566926
456,656.0,6.284095029930825
457,657.0,5.708181993672866
458,658.0,5.1771602552148295
459,659.0,4.6867072151733
460,660.0,4.2330052933266415
461,661.0,3.8126799285829804
462,662.0,3.4227325789514964
463,663.0,3.060497721508085
464,664.0,2.723594852365551
465,665.0,2.409898486641424
466,666.0,2.1175001584281006
467,667.0,1.8446854207590775
468,668.0,1.5899128455789935
469,669.0,1.3517890237127403
470,670.0,1.1290555648321856
471,671.0,0.9205710974264605
472,672.0,0.7253002687704679
473,673.0,0.5423027448920834
474,674.0,0.3707192105420347
475,675.0,0.2097683691620773
476,676.0,0.05873394285404743
477,677.0,-0.08303732765304517
478,678.0,-0.21614768303217602
479,679.0,-0.3411463453918202
480,680.0,-0.45854251830556336
481,681.0,-0.5688023868451069
482,682.0,-0.6723551176109765
483,683.0,-0.7695998587629163
484,684.0,-0.8609037400533168
485,685.0,-0.9466058728576172
486,686.0,-1.0270233502047574
487,687.0,-1.102447246810243
488,688.0,-1.1731496191066242
489,689.0,-1.2393845052748418
490,690.0,-1.301385925276719
491,691.0,-1.359373880883993
492,692.0,-1.4135533557133044
493,693.0,-1.4641143152538518
494,694.0,-1.5112367069013146
495,695.0,-1.5550864599881322
496,696.0,-1.5958224858156598
497,697.0,-1.6335886776847133
498,698.0,-1.6685259109274284
499,699.0,-1.7007610429391207
500,700.0,-1.7304169132085008
501,701.0,-1.7576083433509382
502,702.0,-1.782442137137366
503,703.0,-1.8050210805280642
504,704.0,-1.8254399417024842
505,705.0,-1.843789471091526
506,706.0,-1.8601554014086048
507,707.0,-1.8746174476813167
508,708.0,-1.8872533072820374
509,709.0,-1.898134659960732
510,710.0,-1.9073291678745363
511,711.0,-1.9149034756212586
512,712.0,-1.9209172102690388
513,713.0,-1.9254309813888142
514,714.0,-1.9284973810848953
515,715.0,-1.9301719840271119
516,716.0,-1.9305033474819027
517,717.0,-1.9295400113439314
518,718.0,-1.9273264981668774
519,719.0,-1.9239073131957696
520,720.0,-1.9193219443970975
521,721.0,-1.9136118624921608
522,722.0,-1.9068135209864465
523,723.0,-1.8989623562024747
524,724.0,-1.8900937873097803
525,725.0,-1.8802392163582908
526,726.0,-1.8694310283080995
527,727.0,-1.8576995910614755
528,728.0,-1.845071255494247
529,729.0,-1.831576355487016
530,730.0,-1.8172392079570159
531,731.0,-1.802086112888503
532,732.0,-1.7861403533659086
533,733.0,-1.7694261956036144
534,734.0,-1.7519648889779091
535,735.0,-1.7337786660588108
536,736.0,-1.714887742640883
537,737.0,-1.6953113177748946
538,738.0,-1.6750685737987965
539,739.0,-1.6541786763702362
540,740.0,-1.6326587744973153
541,741.0,-1.6105250005692255
542,742.0,-1.5877944703888716
543,743.0,-1.5644822832034606
544,744.0,-1.5406045217362703
545,745.0,-1.516174252219173
546,746.0,-1.4912055244208773
547,747.0,-1.4657133716817725
548,748.0,-1.4397098109432704
549,749.0,-1.41320784278048
550,750.0,-1.3862184514322848
551,751.0,-1.3587546048340187
552,752.0,-1.3308272546471471
553,753.0,-1.3024463362942242
554,754.0,-1.2736237689850327
555,755.0,-1.244368455752749
556,756.0,-1.2146912834829777
557,757.0,-1.1846011229458782
558,758.0,-1.1541068288266843
559,759.0,-1.1232182397581596
560,760.0,-1.0919431783517553
561,761.0,-1.0602894512288685
562,762.0,-1.0282648490515953
563,763.0,-0.995878146555981
564,764.0,-0.9631361025810747
565,765.0,-0.9300464601025169
566,766.0,-0.8966149462621615
567,767.0,-0.8628492724003536
568,768.0,-0.8287551340878281
569,769.0,-0.7943392111555454
570,770.0,-0.759608167728004
571,771.0,-0.7245656522536592
572,772.0,-0.6892192975356011
573,773.0,-0.6535727207643163
574,774.0,-0.617632523548707
575,775.0,-0.581403291947538
576,776.0,-0.5448895964991607
577,777.0,-0.5080959922561874
578,778.0,-0.4710270188139134
579,779.0,-0.4336872003435701
580,780.0,-0.39607904562302565
581,781.0,-0.3582080480676382
582,782.0,-0.3200776857632377
583,783.0,-0.28169142149522486
584,784.0,-0.24305170278307742
585,785.0,-0.20416296190796857
586,786.0,-0.1650276159481905
587,787.0,-0.12564906680728427
588,788.0,-0.08602870124667561
589,789.0,-0.04617089091817661
590,790.0,-0.0060769923932753045
591,791.0,0.03425065280356421
592,792.0,0.0748097181649996
593,793.0,0.11559889216800912
594,794.0,0.15661487824388587
595,795.0,0.19785639474571326
596,796.0,0.23932317491761523
597,797.0,0.28101296686219257
598,798.0,0.3229245335122073
599,799.0,0.36505665259426223
600,800.0,0.40740911660213897
601,801.0,0.4499797327624151
602,802.0,0.4927693230046657
603,803.0,0.5357767239287341
604,804.0,0.57900178677437
605,805.0,0.6224443773897974
606,806.0,0.6661033761991462
607,807.0,0.7099806781726556
608,808.0,0.754076192793832
609,809.0,0.7983888440294322
610,810.0,0.8429205702968829
611,811.0,0.8876713244326311
612,812.0,0.9326430736627458
613,813.0,0.9778367995697295
614,814.0,1.023252498060799
615,815.0,1.0688921793377517
616,816.0,1.1147578678659897
617,817.0,1.1608506023400196
618,818.0,1.2071734356566708
619,819.0,1.2537274348791811
620,820.0,1.3005146812090516
621,821.0,1.3475392699523354
622,822.0,1.39480131049055
623,823.0,1.442306926247511
624,824.0,1.490056254657702
625,825.0,1.5380534471372016
626,826.0,1.5863036690489594
627,827.0,1.634808099673819
628,828.0,1.6835719321790066
629,829.0,1.7325993735850602
630,830.0,1.781895644736494
631,831.0,1.8314629802680997
632,832.0,1.881307628576792
633,833.0,1.9314348517859798
634,834.0,1.9818499257174267
635,835.0,2.0325591398593588
636,836.0,2.0835667973341856
637,837.0,2.134879214866146
638,838.0,2.1865047227534546
639,839.0,2.2384476648324494
640,840.0,2.2907173984502833
641,841.0,2.343319294430046
642,842.0,2.396262737041752
643,843.0,2.4495551239693896
644,844.0,2.503203866281524
645,845.0,2.557218388397473
646,846.0,2.6116091280566707
647,847.0,2.6663835362883788
648,848.0,2.7215520773797266
649,849.0,2.7771262288434855
650,850.0,2.833115481386926
651,851.0,2.889531338881511
652,852.0,2.946385318330613
653,853.0,3.0036899498379626
654,854.0,3.061456776575824
655,855.0,3.1196993547555394
656,856.0,3.178432253594451
657,857.0,3.2376690552838454
658,858.0,3.297423354960074
659,859.0,3.3577117606700426
660,860.0,3.4185498933434815
661,861.0,3.479954386757413
662,862.0,3.5419418875080737
663,863.0,3.604530054977488
664,864.0,3.6677385613031674
665,865.0,3.731587091346853
666,866.0,3.7960943426611493
667,867.0,3.8612820254612643
668,868.0,3.927171862590285
669,869.0,3.9937865894905826
670,870.0,4.06114895417096
671,871.0,4.129284717174642
672,872.0,4.198218651550405
673,873.0,4.267978542817843
674,874.0,4.338590188938383
675,875.0,4.410084400282699
676,876.0,4.482488999600321
677,877.0,4.555836821987498
678,878.0,4.630159714854983
679,879.0,4.705492537898181
680,880.0,4.781869163065721
681,881.0,4.859328474526592
682,882.0,4.937906368639574
683,883.0,5.017644753922582
684,884.0,5.098585551019482
685,885.0,5.1807716926705325
686,886.0,5.264248123679522
687,887.0,5.349062800883985
688,888.0,5.435266693121207
689,889.0,5.522909781200838
690,890.0,5.612048057868037
691,891.0,5.702736527777347
692,892.0,5.795034207458684
693,893.0,5.889005125285678
694,894.0,5.984712321444476
695,895.0,6.082223847904061
696,896.0,6.181611768382595
697,897.0,6.282949158317251
698,898.0,6.386315104833102
699,899.0,6.491790706709139
700,900.0,6.599461074350245
701,901.0,6.709417329755183
702,902.0,6.821753606482218
703,903.0,6.936568049621769
704,904.0,7.053964815762129
705,905.0,7.174054072959223
706,906.0,7.296951000704439
707,907.0,7.422775789895127
708,908.0,7.551656642801049
709,909.0,7.683726773033527
710,910.0,7.819127405513768
711,911.0,7.9580087764447285
712,912.0,8.100526133272751
713,913.0,8.246846734664473
714,914.0,8.397144850467384
715,915.0,8.551605761686062
716,916.0,8.710424760444255
717,917.0,8.873809149957879
718,918.0,9.041976244500972
719,919.0,9.215160369376349
720,920.0,9.393604860882135
721,921.0,9.577572066281903
722,922.0,9.767338343772678
723,923.0,9.96319706245373
724,924.0,10.16546060229416
725,925.0,10.374461354103687
726,926.0,10.59055271949876
727,927.0,10.814113110873166
728,928.0,11.045541951365465
729,929.0,11.285269674827191
730,930.0,11.533754725793301
731,931.0,11.7914855594492
732,932.0,12.05898664159912
733,933.0,12.336820448636047
734,934.0,12.62558646750955
735,935.0,12.925933195693403
736,936.0,13.238553141156842
737,937.0,13.564192822329971
738,938.0,13.903655768075282
739,939.0,14.257808517654155
740,940.0,14.627585620695015
741,941.0,15.013996637165235
742,942.0,15.418134137336665
743,943.0,15.841180701753842
744,944.0,16.284421921206615
745,945.0,16.749249396692562
746,946.0,17.237179739392218
747,947.0,17.749864570632667
748,948.0,18.289105521857834
749,949.0,18.85687023459826
750,950.0,19.45531336043763
751,951.0,20.08679356098213
752,952.0,20.753904507830555
753,953.0,21.459498882540515
754,954.0,22.20671837659836
755,955.0,22.99903369138832
756,956.0,23.840286538158068
757,957.0,24.73473363799218
758,958.0,25.687107721776215
759,959.0,26.702679530168098
760,960.0,27.787332813566536
761,961.0,28.947652332076586
762,962.0,30.19102685548239
763,963.0,31.525770163212883
764,964.0,32.96126004431301
765,965.0,34.508108297408285
766,966.0,36.17835973067861
767,967.0,37.985728161821385
768,968.0,39.94588141802535
769,969.0,42.07678033593322
770,970.0,44.39909276161836
771,971.0,46.93669055054477
772,972.0,49.71725856754074
773,973.0,52.77304168676653
774,974.0,56.141760791683964
775,975.0,59.86774477502058
776,976.0,64.00335053874528
777,977.0,68.61072599403087
778,978.0,73.76403506122415
779,979.0,79.55227966981738
780,980.0,86.08288175841358
781,981.0,93.48627527469603
782,982.0,101.92181817539768
783,983.0,111.58541942626891
784,984.0,122.71945000204619
785,985.0,135.6256078864211
786,986.0,150.68162207200896
787,987.0,168.36282556031608
788,988.0,189.26965936171098
789,989.0,214.16184349538992
790,990.0,243.99870698934797
791,991.0,279.9817758803464
792,992.0,323.58771921388086
793,993.0,376.56231604415177
794,994.0,440.8110124340308
795,995.0,518.0589234550308
796,996.0,609.0646521872736
797,997.0,712.12201171946
798,998.0,820.8081221488364
799,999.0,921.8917645811646
800,1000.0,996.0493271306907
801,1001.0,1024.374736920112
802,1002.0,998.7748100805476
803,1003.0,927.3750557515065
804,1004.0,829.1147780808552
805,1005.0,723.3526882247872
806,1006.0,623.3580093477904
807,1007.0,535.5957306226179
808,1008.0,461.8196562302552
809,1009.0,401.3260083598875
810,1010.0,352.4537992088715
811,1011.0,313.3736429827011
812,1012.0,282.4310848949775
813,1013.0,258.2603091673768
814,1014.0,239.79568202962002
815,1015.0,226.24592171943914
816,1016.0,217.06073648255096
817,1017.0,211.9023845726175
818,1018.0,210.62664725122318
819,1019.0,213.2741307878357
820,1020.0,220.07088245978252
821,1021.0,231.4350995522127
822,1022.0,247.98237935806776
823,1023.0,270.5124701780529
824,1024.0,299.94141932059995
825,1025.0,337.1086301018428
826,1026.0,382.3398208455807
827,1027.0,434.61932588324873
828,1028.0,490.3486575538867
829,1029.0,542.1937762041078
830,1030.0,579.4769791880648
831,1031.0,591.7558068674232
832,1032.0,574.539168611326
833,1033.0,532.2594057963631
834,1034.0,475.2985748065404
835,1035.0,414.2705890332496
836,1036.0,356.4404058752342
837,1037.0,305.3299777385598
838,1038.0,261.86841303658264
839,1039.0,225.630337189917
840,1040.0,195.65976962640502
841,1041.0,170.9023987810865
842,1042.0,150.39245609616182
843,1043.0,133.3128130209708
844,1044.0,118.99822201194786
845,1045.0,106.9171205326038
846,1046.0,96.64814905348555
847,1047.0,87.85791705214808
848,1048.0,80.2821660131234
849,1049.0,73.71060442788757
850,1050.0,67.9750067948296
851,1051.0,62.94000061922179
852,1052.0,58.495964413186584
853,1053.0,54.553556695665065
854,1054.0,51.03949799238683
855,1055.0,47.893307835836026
856,1056.0,45.06476276522551
857,1057.0,42.51190832645693
858,1058.0,40.19950607209796
859,1059.0,38.09779056134607
860,1060.0,36.18149535999646
861,1061.0,34.429062040413896
862,1062.0,32.822014181498844
863,1063.0,31.34444336865738
864,1064.0,29.982593193769617
865,1065.0,28.72452325515644
866,1066.0,27.559827157552036
867,1067.0,26.479404512066708
868,1068.0,25.47526893616282
869,1069.0,24.54038505361666
870,1070.0,23.668544494489993
871,1071.0,22.85424389509933
872,1072.0,22.092597897983296
873,1073.0,21.379255151872144
874,1074.0,20.710330311654957
875,1075.0,20.082351038347497
876,1076.0,19.492199999066884
877,1077.0,18.937079866990643
878,1078.0,18.414473321333958
879,1079.0,17.92211204731302
880,1080.0,17.457949736114642
881,1081.0,17.020136084866976
882,1082.0,16.606999796604555
883,1083.0,16.21702758024128
884,1084.0,15.848851150535666
885,1085.0,15.501231228058941
886,1086.0,15.17304553916722
887,1087.0,14.863282815966272
888,1088.0,14.571025796283493
889,1089.0,14.295453223633558
890,1090.0,14.035822847188342
891,1091.0,13.791473421745764
892,1092.0,13.561814707697863
893,1093.0,13.346325471000114
894,1094.0,13.144551483138457
895,1095.0,12.956096521099653
896,1096.0,12.780626367339323
897,1097.0,12.617864809750813
898,1098.0,12.467589641631434
899,1099.0,12.32963766165392
900,1100.0,12.203898673835283
901,1101.0,12.090319487502939
902,1102.0,11.988903917263997
903,1103.0,11.89971578297525
904,1104.0,11.822877909711679
905,1105.0,11.758576127732908
906,1106.0,11.707068272453967
907,1107.0,11.668680184412437
908,1108.0,11.643817709237624
909,1109.0,11.632970697621772
910,1110.0,11.636722005281172
911,1111.0,11.655755492934077
912,1112.0,11.690871026263153
913,1113.0,11.742993475886465
914,1114.0,11.813187717323785
915,1115.0,11.90268163097005
916,1116.0,12.012885102056543
917,1117.0,12.14541502062707
918,1118.0,12.302123281502077
919,1119.0,12.485140784247847
920,1120.0,12.69691143314526
921,1121.0,12.940248137160893
922,1122.0,13.2183918099106
923,1123.0,13.535088369632945
924,1124.0,13.894676739155102
925,1125.0,14.302194845862232
926,1126.0,14.763518621665071
927,1127.0,15.28551700297055
928,1128.0,15.876258930648874
929,1129.0,16.545258350003223
930,1130.0,17.303785210736237
931,1131.0,18.16524846692039
932,1132.0,19.14569107696593
933,1133.0,20.264401003592752
934,1134.0,21.54470021378995
935,1135.0,23.0149536787967
936,1136.0,24.709863374059523
937,1137.0,26.672147279212368
938,1138.0,28.95471037802895
939,1139.0,31.623475658411166
940,1140.0,34.76105111234085
941,1141.0,38.47147073586041
942,1142.0,42.88623652903016
943,1143.0,48.171833495908345
944,1144.0,54.53858764451229
945,1145.0,62.25002798678747
946,1146.0,71.63012253858199
947,1147.0,83.06193331960537
948,1148.0,96.96352535340748
949,1149.0,113.71314566733997
950,1150.0,133.4762402925262
951,1151.0,155.8758032638333
952,1152.0,179.49692361983693
953,1153.0,201.42658640279114
954,1154.0,217.41112465859783
955,1155.0,223.2883514367726
956,1156.0,217.2744557904183
957,1157.0,201.15319877618924
958,1158.0,179.0867184542593
959,1159.0,155.32863188829663
960,1160.0,132.79190514542245
961,1161.0,112.89139729619114
962,1162.0,96.00406541454822
963,1163.0,81.9644105778068
964,1164.0,70.39413586660942
965,1165.0,60.8751223649042
966,1166.0,53.02425415990683
967,1167.0,46.51750934207257
968,1168.0,41.091305005064896
969,1169.0,36.53525724572273
970,1170.0,32.68282416402735
971,1171.0,29.40244486307631
972,1172.0,26.59002344904775
973,1173.0,24.16289103116992
974,1174.0,22.055060721689756
975,1175.0,20.21356163584278
976,1176.0,18.595607891819668
977,1177.0,17.166429610735463
978,1178.0,15.897587916600742
979,1179.0,14.76568593628565
980,1180.0,13.751358799490617
981,1181.0,12.838484638716977
982,1182.0,12.013569589233384
983,1183.0,11.265258789042377
984,1184.0,10.583947378856237
985,1185.0,9.961474502053989
986,1186.0,9.390871304664302
987,1187.0,8.866161935318814
988,1188.0,8.382201545234807
989,1189.0,7.934539288173028
990,1190.0,7.519315320414535
991,1191.0,7.1331648007202375
992,1192.0,6.773147890310838
993,1193.0,6.436686752823675
994,1194.0,6.121510554289671
995,1195.0,5.825617463098979
996,1196.0,5.547236649969932
997,1197.0,5.284794287916839
998,1198.0,5.03689055221821
999,1199.0,4.8022766203883975
1000,1200.0,4.579834672142852
1001,1201.0,4.368563889367124
1002,1202.0,4.1675654560880275
1003,1203.0,3.9760265584409353
1004,1204.0,3.7932173846353407
1005,1205.0,3.6184761249292023
1006,1206.0,3.451204971590869
1007,1207.0,3.2908581188736434
1008,1208.0,3.1369417629815644
1009,1209.0,2.9890051020385044
1010,1210.0,2.846638336054866
1011,1211.0,2.709463666901229
1012,1212.0,2.5771392982699126
1013,1213.0,2.4493494356496512
1014,1214.0,2.3258042862914863
1015,1215.0,2.206237059177397
1016,1216.0,2.090404964989375
1017,1217.0,1.9780792160769352
1018,1218.0,1.869054026427193
1019,1219.0,1.7631356116349934
1020,1220.0,1.6601451888658403
1021,1221.0,1.5599189768303177
1022,1222.0,1.4623031957485182
1023,1223.0,1.3671550673235515
1024,1224.0,1.27434481470425
1025,1225.0,1.1837466624571107
1026,1226.0,1.0952478365369416
1027,1227.0,1.0087415642493625
1028,1228.0,0.9241290742244246
1029,1229.0,0.84131559638422
1030,1230.0,0.7602163619102384
1031,1231.0,0.6807496032139397
1032,1232.0,0.6028385539008241
1033,1233.0,0.5264124487472372
1034,1234.0,0.45140552366126485
1035,1235.0,0.3777540156515897
1036,1236.0,0.30540016280588134
1037,1237.0,0.23428920424237276
1038,1238.0,0.164367380096337
1039,1239.0,0.09558793147823508
1040,1240.0,0.02790410044053715
1041,1241.0,-0.038726870043092276
1042,1242.0,-0.10434673612166989
1043,1243.0,-0.16899125308748353
1044,1244.0,-0.2326991754151777
1045,1245.0,-0.2955032567899707
1046,1246.0,-0.35743625014117697
1047,1247.0,-0.4185279076663164
1048,1248.0,-0.4788069808739692
1049,1249.0,-0.5383002206070842
1050,1250.0,-0.5970343770768523
1051,1251.0,-0.6550311998914822
1052,1252.0,-0.7123164380951721
1053,1253.0,-0.7689088401896242
1054,1254.0,-0.8248301541716501
1055,1255.0,-0.8801001275651288
1056,1256.0,-0.9347355074481811
1057,1257.0,-0.9887550404845342
1058,1258.0,-1.0421744729629836
1059,1259.0,-1.0950075508192185
1060,1260.0,-1.147271019670825
1061,1261.0,-1.198977624849249
1062,1262.0,-1.250140111434689
1063,1263.0,-1.3007712242757634
1064,1264.0,-1.3508827080357833
1065,1265.0,-1.4004833072146994
1066,1266.0,-1.449585766181599
1067,1267.0,-1.4981988292109918
1068,1268.0,-1.5463322405061035
1069,1269.0,-1.5939927442382213
1070,1270.0,-1.6411900845743048
1071,1271.0,-1.6879300057092905
1072,1272.0,-1.734221251894951
1073,1273.0,-1.780069567475607
1074,1274.0,-1.8254816969146077
1075,1275.0,-1.8704623848343545
1076,1276.0,-1.9150173760335747
1077,1277.0,-1.9591514155334835
1078,1278.0,-2.0028692486008595
1079,1279.0,-2.046173620779996
1080,1280.0,-2.0890702779265666
1081,1281.0,-2.1315619662369727
1082,1282.0,-2.173651432282213
1083,1283.0,-2.2153414230364206
1084,1284.0,-2.256634685909944
1085,1285.0,-2.2975319687832325
1086,1286.0,-2.338037020027059
1087,1287.0,-2.378150588551307
1088,1288.0,-2.417873423823721
1089,1289.0,-2.4572072759049206
1090,1290.0,-2.4961508954789906
1091,1291.0,-2.5347070338863205
1092,1292.0,-2.5728744431571613
1093,1293.0,-2.610652876035715
1094,1294.0,-2.6480430860182196
1095,1295.0,-2.6850428273831994
1096,1296.0,-2.7216508552202185
1097,1297.0,-2.75786692546626
1098,1298.0,-2.793689794926422
1099,1299.0,-2.8291172213218942
1100,1300.0,-2.8641459633049635
1101,1301.0,-2.898775780503229
1102,1302.0,-2.9330024335414464
1103,1303.0,-2.9668226840789202
1104,1304.0,-3.0002352948364432
1105,1305.0,-3.0332350296368986
1106,1306.0,-3.0658196534210447
1107,1307.0,-3.097983932294369
1108,1308.0,-3.129724633546971
1109,1309.0,-3.161035525696434
1110,1310.0,-3.1919133785066833
1111,1311.0,-3.2223529630275607
1112,1312.0,-3.252348051625404
1113,1313.0,-3.281892418011921
1114,1314.0,-3.3109808372784073
1115,1315.0,-3.339606085920309
1116,1316.0,-3.3677629418829156
1117,1317.0,-3.3954421845764955
1118,1318.0,-3.4226375949185694
1119,1319.0,-3.4493399553587096
1120,1320.0,-3.475543049916041
1121,1321.0,-3.5012366642062034
1122,1322.0,-3.5264115854743068
1123,1323.0,-3.551058602626995
1124,1324.0,-3.575168506262571
1125,1325.0,-3.5987290887003383
1126,1326.0,-3.621731144019577
1127,1327.0,-3.644162468080026
1128,1328.0,-3.666011858565298
1129,1329.0,-3.687265115004493
1130,1330.0,-3.707910038806176
1131,1331.0,-3.727933433293856
1132,1332.0,-3.7473211037342935
1133,1333.0,-3.7660578573677412
1134,1334.0,-3.7841265034389835
1135,1335.0,-3.8015128532338167
1136,1336.0,-3.818199720104303
1137,1337.0,-3.8341679195068537
1138,1338.0,-3.8494002690242723
1139,1339.0,-3.8638755884060174
1140,1340.0,-3.8775746995972895
1141,1341.0,-3.8904764267663268
1142,1342.0,-3.902557596338511
1143,1343.0,-3.9137950370313774
1144,1344.0,-3.9241645798822447
1145,1345.0,-3.933640058276069
1146,1346.0,-3.9421943079860284
1147,1347.0,-3.9498001671959173
1148,1348.0,-3.956427476537783
1149,1349.0,-3.962045079121026
1150,1350.0,-3.9666198205597993
1151,1351.0,-3.970118549012568
1152,1352.0,-3.972505115212698
1153,1353.0,-3.973741372485847
1154,1354.0,-3.9737881768026
1155,1355.0,-3.972602386792005
1156,1356.0,-3.970141863785102
1157,1357.0,-3.966359471837677
1158,1358.0,-3.9612060777690203
1159,1359.0,-3.954631551187049
1160,1360.0,-3.946579764523676
1161,1361.0,-3.93699459306481
1162,1362.0,-3.9258159149849234
1163,1363.0,-3.91298061136672
1164,1364.0,-3.898419566250368
1165,1365.0,-3.882061666655318
1166,1366.0,-3.8638328026052022
1167,1367.0,-3.843651867171957
1168,1368.0,-3.8214337565023015
1169,1369.0,-3.7970903698439997
1170,1370.0,-3.7705236095855525
1171,1371.0,-3.7416343812808464
1172,1372.0,-3.710314593684643
1173,1373.0,-3.676449158783953
1174,1374.0,-3.639914991827254
1175,1375.0,-3.600584011356659
1176,1376.0,-3.55831613924056
1177,1377.0,-3.512964300701242
1178,1378.0,-3.464370424354456
1179,1379.0,-3.412364442228636
1180,1380.0,-3.3567652898091183
1181,1381.0,-3.297379906059632
1182,1382.0,-3.234001233460731
1183,1383.0,-3.1664042180350407
1184,1384.0,-3.0943508093848777
1185,1385.0,-3.0175809607160318
1186,1386.0,-2.9358196288794716
1187,1387.0,-2.84876577439195
1188,1388.0,-2.756096361476466
1189,1389.0,-2.657462358086832
1190,1390.0,-2.5524867359422387
1191,1391.0,-2.4407594705567135
1192,1392.0,-2.3218365412785715
1193,1393.0,-2.195235931305433
1194,1394.0,-2.0604336277342554
1195,1395.0,-1.9168586215801042
1196,1396.0,-1.7638869078120933
1197,1397.0,-1.600838485384429
1198,1398.0,-1.4269683572663325
1199,1399.0,-1.2414605304754787
1200,1400.0,-1.043418016110536
1201,1401.0,-0.831854829377562
1202,1402.0,-0.6056859896245896
1203,1403.0,-0.3637125203767937
1204,1404.0,-0.10460744935812727
1205,1405.0,0.1730981914640779
1206,1406.0,0.4710363658632559
1207,1407.0,0.7910240333055754
1208,1408.0,1.1350861489349882
1209,1409.0,1.5054906635252792
1210,1410.0,1.9047765234656708
1211,1411.0,2.3357976707127364
1212,1412.0,2.801771042776636
1213,1413.0,3.306332572667543
1214,1414.0,3.8535981888903734
1215,1415.0,4.448252815388287
1216,1416.0,5.095634371532697
1217,1417.0,5.801850772072839
1218,1418.0,6.573915927123153
1219,1419.0,7.419911742111708
1220,1420.0,8.349186117767658
1221,1421.0,9.372593950079363
1222,1422.0,10.502798130262818
1223,1423.0,11.754626544735402
1224,1424.0,13.14553107507868
1225,1425.0,14.69614859801436
1226,1426.0,16.431002985365012
1227,1427.0,18.37939310402726
1228,1428.0,20.57651881593779
1229,1429.0,23.064907978046904
1230,1430.0,25.896251442279663
1231,1431.0,29.133756055510503
1232,1432.0,32.85519965953108
1233,1433.0,37.15688009101609
1234,1434.0,42.158757181490046
1235,1435.0,48.01112375730463
1236,1436.0,54.903226639599325
1237,1437.0,63.07425164427241
1238,1438.0,72.82698458195
1239,1439.0,84.543922257953
1240,1440.0,98.70428847227163
1241,1441.0,115.89719201952153
1242,1442.0,136.81918968892728
1243,1443.0,162.23047226427843
1244,1444.0,192.81883252391117
1245,1445.0,228.8851502406594
1246,1446.0,269.7440281818392
1247,1447.0,312.82296810921207
1248,1448.0,352.8256407789506
1249,1449.0,382.01816994161027
1250,1450.0,392.8330023420958
1251,1451.0,382.02690671963364
1252,1452.0,352.8431428077349
1253,1453.0,312.8492903341689
1254,1454.0,269.7792540209341
1255,1455.0,228.9293925842103
1256,1456.0,192.87222973435337
1257,1457.0,162.29319317584213
1258,1458.0,136.8914316072562
1259,1459.0,115.9791807212423
1260,1460.0,98.79627820448604
1261,1461.0,84.64619873767947
1262,1462.0,72.93986199547726
1263,1463.0,63.19807564649477
1264,1464.0,55.03837235324113
1265,1465.0,48.15800077211702
1266,1466.0,42.31780455336002
1267,1467.0,37.32857134103756
1268,1468.0,33.04003977298862
1269,1469.0,29.33228648082013
1270,1470.0,26.10904808984833
1271,1471.0,23.2925832190881
1272,1472.0,20.819720481210197
1273,1473.0,18.638809482520855
1274,1474.0,16.70735882291251
1275,1475.0,14.99021109584919
1276,1476.0,13.458107888328186
1277,1477.0,12.086567780849919
1278,1478.0,10.854998347385845
1279,1479.0,9.74599615534521
1280,1480.0,8.744776765546476
1281,1481.0,7.838728732188201
1282,1482.0,7.017046602809387
1283,1483.0,6.27043591826623
1284,1484.0,5.590870212698746
1285,1485.0,4.971392013495461
1286,1486.0,4.405953841264591
1287,1487.0,3.8892772098063233
1288,1488.0,3.4167446260730685
1289,1489.0,2.9843045901504865
1290,1490.0,2.58839259521028
1291,1491.0,2.2258661274929636
1292,1492.0,1.8939466662664017
1293,1493.0,1.5901756838009078
1294,1494.0,1.3123696453346838
1295,1495.0,1.0585920090445597
1296,1496.0,0.8271172260094772
1297,1497.0,0.6164117401870044
1298,1498.0,0.4251079883795228
1299,1499.0,0.2519864001910719
1300,1500.0,0.09596139801783465
1301,1501.0,-0.043933603002642485
1302,1502.0,-0.1685591950140406
1303,1503.0,-0.27867997747148365
1304,1504.0,-0.37497155717687747
1305,1505.0,-0.45803054831276313
1306,1506.0,-0.5283835724617347
1307,1507.0,-0.5864872586560068
1308,1508.0,-0.6327372433870551
1309,1509.0,-0.6674721706599485
1310,1510.0,-0.6909786920082297
1311,1511.0,-0.7034894665312095
1312,1512.0,-0.7051921609231613
1313,1513.0,-0.696227449510161
1314,1514.0,-0.6766930142746332
1315,1515.0,-0.6466415448928728
1316,1516.0,-0.6060867387593589
1317,1517.0,-0.5549983010273536
1318,1518.0,-0.4933079446298052
1319,1519.0,-0.4209033903218824
1320,1520.0,-0.3376323667014276
1321,1521.0,-0.24329761024887375
1322,1522.0,-0.13766186535053748
1323,1523.0,-0.020438884345367114
1324,1524.0,0.10870457246687693
1325,1525.0,0.2501497367727552
1326,1526.0,0.40433283222500904
1327,1527.0,0.5717470744084494
1328,1528.0,0.7529436708141475
1329,1529.0,0.9485398207884828
1330,1530.0,1.159224715533128
1331,1531.0,1.3857635380445572
1332,1532.0,1.6290034630981154
1333,1533.0,1.8898836572104756
1334,1534.0,2.1694472786186907
1335,1535.0,2.468844477231869
1336,1536.0,2.789352394610205
1337,1537.0,3.132382163937791
1338,1538.0,3.4995019099787896
1339,1539.0,3.892447749056828
1340,1540.0,4.313148789019124
1341,1541.0,4.763753129201859
1342,1542.0,5.246650860406135
1343,1543.0,5.76451206486081
1344,1544.0,6.3203208161946804
1345,1545.0,6.917422179403275
1346,1546.0,7.559574210815981
1347,1547.0,8.251009958067016
1348,1548.0,8.996506460063074
1349,1549.0,9.801476746956041
1350,1550.0,10.672069840099084
1351,1551.0,11.615290752032024
1352,1552.0,12.639154486438429
1353,1553.0,13.752859038117776
1354,1554.0,14.967002392950917
1355,1555.0,16.293850527880295
1356,1556.0,17.747654410857876
1357,1557.0,19.345052000835494
1358,1558.0,21.105561247718015
1359,1559.0,23.0521950923403
1360,1560.0,25.21223246643035
1361,1561.0,27.618189292585612
1362,1562.0,30.30905648422936
1363,1563.0,33.33186894559071
1364,1564.0,36.743727571671116
1365,1565.0,40.61440024820649
1366,1566.0,45.0296848516432
1367,1567.0,50.09577424909935
1368,1568.0,55.94490629834013
1369,1569.0,62.742644847747215
1370,1570.0,70.69716173627944
1371,1571.0,80.07075079344895
1372,1572.0,91.19342883928039
1373,1573.0,104.4773546842971
1374,1574.0,120.42813812946679
1375,1575.0,139.64339296619278
1376,1576.0,162.7772969762609
1377,1577.0,190.42923593182763
1378,1578.0,222.88541759537407
1379,1579.0,259.6257727196876
1380,1580.0,298.5825190478115
1381,1581.0,335.45207231303834
1382,1582.0,363.93407223885265
1383,1583.0,377.88323153892907
1384,1584.0,374.7444049170638
1385,1585.0,357.3425110671842
1386,1586.0,332.10670867327985
1387,1587.0,305.65038940939735
1388,1588.0,282.6363479395982
1389,1589.0,265.5576219179268
1390,1590.0,255.4489709883851
1391,1591.0,252.6550257848935
1392,1592.0,257.35114193126424
1393,1593.0,269.8232690411676
1394,1594.0,290.57639471810694
1395,1595.0,320.30278655537563
1396,1596.0,359.6731501360364
1397,1597.0,408.83827203288547
1398,1598.0,466.48597480841795
1399,1599.0,528.4315380148032
1400,1600.0,586.309507193851
1401,1601.0,628.0083638769756
1402,1602.0,641.6994135851701
1403,1603.0,622.2761868289731
1404,1604.0,574.7015441084363
1405,1605.0,510.6530719130956
1406,1606.0,442.07565172193404
1407,1607.0,377.14353100335916
1408,1608.0,319.81506321516395
1409,1609.0,271.1284598044988
1410,1610.0,230.59714520783677
1411,1611.0,197.1380328509522
1412,1612.0,169.55844614887678
1413,1613.0,146.76650650587135
1414,1614.0,127.83866631540127
1415,1615.0,112.0231879600999
1416,1616.0,98.7195038117352
1417,1617.0,87.45164623117876
1418,1618.0,77.84310456838512
1419,1619.0,69.59552016234079
1420,1620.0,62.47154834105254
1421,1621.0,56.28140342150118
1422,1622.0,50.872436709618114
1423,1623.0,46.121110500253735
1424,1624.0,41.92680907714066
1425,1625.0,38.207069712867906
1426,1626.0,34.893889668848715
1427,1627.0,31.93085219528416
1428,1628.0,29.270882531140842
1429,1629.0,26.874479904104874
1430,1630.0,24.70832353057176
1431,1631.0,22.7441606155935
1432,1632.0,20.957919352861836
1433,1633.0,19.328997924668556
1434,1634.0,17.83968250187877
1435,1635.0,16.474678243894914
1436,1636.0,15.220728298635777
1437,1637.0,14.066297802486815
1438,1638.0,13.00131188028945
1439,1639.0,12.016940645291697
1440,1640.0,11.105422199133045
1441,1641.0,10.259908631798226
1442,1642.0,9.474340021593889
1443,1643.0,8.743341435116008
1444,1644.0,8.0621279272209
1445,1645.0,7.426432540986752
1446,1646.0,6.832438307691518
1447,1647.0,6.276722246768486
1448,1648.0,5.756209365793666
1449,1649.0,5.268128660433831
1450,1650.0,4.809978114429896
1451,1651.0,4.3794966995617415
1452,1652.0,3.9746343756107763
1453,1653.0,3.593528090337486
1454,1654.0,3.234483779445327
1455,1655.0,2.895959366548823
1456,1656.0,2.576542763143607
1457,1657.0,2.2749458685750596
1458,1658.0,1.9899885700019695
1459,1659.0,1.7205867423786003
1460,1660.0,1.4657452484066198
1461,1661.0,1.224548938515909
1462,1662.0,0.9961536508264999
1463,1663.0,0.779781211118916
1464,1664.0,0.5747114328019052
1465,1665.0,0.3802801168890255
1466,1666.0,0.1958710519518263
1467,1667.0,0.02091201410235044
1468,1668.0,-0.1451262330449481
1469,1669.0,-0.30273793840274266
1470,1670.0,-0.4523813634443741
1471,1671.0,-0.5944837822300997
1472,1672.0,-0.7294424814463127
1473,1673.0,-0.8576317604295127
1474,1674.0,-0.9793959312009974
1475,1675.0,-1.0950633184997969
1476,1676.0,-1.2049352598112364
1477,1677.0,-1.3092981053969197
1478,1678.0,-1.4084182183362373
1479,1679.0,-1.5025469745412465
1480,1680.0,-1.5919197628013535
1481,1681.0,-1.6767579848119567
1482,1682.0,-1.7572700552020706
1483,1683.0,-1.8336514015661578
1484,1684.0,-1.9060884645032274
1485,1685.0,-1.9747556976358283
1486,1686.0,-2.0398155676543865
1487,1687.0,-2.101425554332991
1488,1688.0,-2.159731150581365
1489,1689.0,-2.214871862455766
1490,1690.0,-2.266979209206511
1491,1691.0,-2.3161787232936604
1492,1692.0,-2.3625859504402342
1493,1693.0,-2.4063154496350307
1494,1694.0,-2.4474717931936993
1495,1695.0,-2.4861565667642935
1496,1696.0,-2.522465369381962
1497,1697.0,-2.556488813477017
1498,1698.0,-2.5883145249297286
1499,1699.0,-2.618024143080447
1500,1700.0,-2.645697320776435
1501,1701.0,-2.671406724395638
1502,1702.0,-2.695226033877816
1503,1703.0,-2.717221942761853
1504,1704.0,-2.7374601582143896
1505,1705.0,-2.7560014010564373
1506,1706.0,-2.7729064057987216
1507,1707.0,-2.7882319206739794
1508,1708.0,-2.802030707671065
1509,1709.0,-2.814355542556541
1510,1710.0,-2.82525621491709
1511,1711.0,-2.83477952818248
1512,1712.0,-2.842972299660687
1513,1713.0,-2.8498763605766726
1514,1714.0,-2.855535556082714
1515,1715.0,-2.8599897453157155
1516,1716.0,-2.863276801411075
1517,1717.0,-2.8654346115404223
1518,1718.0,-2.866498076935386
1519,1719.0,-2.8665021129377237
1520,1720.0,-2.8654786490112656
1521,1721.0,-2.8634616287790777
1522,1722.0,-2.860480010059973
1523,1723.0,-2.8565627648931695
1524,1724.0,-2.8517398795779627
1525,1725.0,-2.846038354694201
1526,1726.0,-2.839484205142071
1527,1727.0,-2.832102460173246
1528,1728.0,-2.8239181634160104
1529,1729.0,-2.8149553729101626
1530,1730.0,-2.8052371611463514
1531,1731.0,-2.7947856150788084
1532,1732.0,-2.783621836178554
1533,1733.0,-2.7717669404462413
1534,1734.0,-2.7592410584577465
1535,1735.0,-2.746063335383269
1536,1736.0,-2.7322539310303
1537,1737.0,-2.717829019867395
1538,1738.0,-2.7028077910531465
1539,1739.0,-2.687207448486106
1540,1740.0,-2.6710442108012558
1541,1741.0,-2.6543343114476556
1542,1742.0,-2.63709399866525
1543,1743.0,-2.619338535577299
1544,1744.0,-2.601082200162182
1545,1745.0,-2.582340285333885
1546,1746.0,-2.5631260989346174
1547,1747.0,-2.5434539638051774
1548,1748.0,-2.523336217766655
1549,1749.0,-2.502787213711372
1550,1750.0,-2.481819319575834
1551,1751.0,-2.46044391841815
1552,1752.0,-2.4386744084254133
1553,1753.0,-2.416521202944523
1554,1754.0,-2.3939967305300343
1555,1755.0,-2.3711124349563306
1556,1756.0,-2.347878775258323
1557,1757.0,-2.3243062257706697
1558,1758.0,-2.3004052761407365
1559,1759.0,-2.2761864313777096
1560,1760.0,-2.251660211868966
1561,1761.0,-2.226835153426464
1562,1762.0,-2.201721807303329
1563,1763.0,-2.1763297402410444
1564,1764.0,-2.1506675344846826
1565,1765.0,-2.1247447878258754
1566,1766.0,-2.098570113630558
1567,1767.0,-2.0721511408648894
1568,1768.0,-2.0454985141411726
1569,1769.0,-2.0186198937310564
1570,1770.0,-1.9915219556087322
1571,1771.0,-1.9642153914826395
1572,1772.0,-1.936705908819249
1573,1773.0,-1.9090022308810148
1574,1774.0,-1.88111309676151
1575,1775.0,-1.8530442613985088
1576,1776.0,-1.8248034956268384
1577,1777.0,-1.7963995861975945
1578,1778.0,-1.7678383358147585
1579,1779.0,-1.7391275631630378
1580,1780.0,-1.7102741029441404
1581,1781.0,-1.6812848058973486
1582,1782.0,-1.6521665388493147
1583,1783.0,-1.6229261847247471
1584,1784.0,-1.5935706425943863
1585,1785.0,-1.564105827697631
1586,1786.0,-1.5345386714702727
1587,1787.0,-1.504876121591451
1588,1788.0,-1.47512314200344
1589,1789.0,-1.445287712935169
1590,1790.0,-1.4153748309599905
1591,1791.0,-1.3853915089937345
1592,1792.0,-1.355342776352927
1593,1793.0,-1.3252346787728584
1594,1794.0,-1.2950742784437352
1595,1795.0,-1.2648676540375163
1596,1796.0,-1.2346189007507746
1597,1797.0,-1.204335130311165
1598,1798.0,-1.1740224710506482
1599,1799.0,-1.1436860678800258
1600,1800.0,-1.1133310823845477
1601,1801.0,-1.0829636927924184
1602,1802.0,-1.0525890940648424
1603,1803.0,-1.0222134978753274
1604,1804.0,-0.9918411326871137
1605,1805.0,-0.9614792437328106
1606,1806.0,-0.9311330931107022
1607,1807.0,-0.9008059597474585
1608,1808.0,-0.8705051394927068
1609,1809.0,-0.8402359450956283
1610,1810.0,-0.8100027062801018
1611,1811.0,-0.7798107697412888
1612,1812.0,-0.7496664992102069
1613,1813.0,-0.7195732754503297
1614,1814.0,-0.6895384963208926
1615,1815.0,-0.6595655767887365
1616,1816.0,-0.6296609489641014
1617,1817.0,-0.5998290621309934
1618,1818.0,-0.5700743827874248
1619,1819.0,-0.5404033946679192
1620,1820.0,-0.5108205987712608
1621,1821.0,-0.4813305134039183
1622,1822.0,-0.45193867420084644
1623,1823.0,-0.4226496341671009
1624,1824.0,-0.3934699636956793
1625,1825.0,-0.3644022506150577
1626,1826.0,-0.335453100203722
1627,1827.0,-0.3066271352372496
1628,1828.0,-0.2779289960094502
1629,1829.0,-0.24936434036544597
1630,1830.0,-0.2209378437369196
1631,1831.0,-0.19265419917019244
1632,1832.0,-0.16451811735487354
1633,1833.0,-0.13653432666706067
1634,1834.0,-0.1087095731863883
1635,1835.0,-0.0810456207336756
1636,1836.0,-0.053550250905118446
1637,1837.0,-0.02622726310073631
1638,1838.0,0.0009185254498333961
1639,1839.0,0.027882279641289642
1640,1840.0,0.05465914647675163
1641,1841.0,0.08124425502637678
1642,1842.0,0.1076327164050781
1643,1843.0,0.13381862372125397
1644,1844.0,0.15979905207814227
1645,1845.0,0.18556705850915023
1646,1846.0,0.21111968197192255
1647,1847.0,0.2364509432941304
1648,1848.0,0.26155684516788824
1649,1849.0,0.28643037208985334
1650,1850.0,0.31106949035802245
1651,1851.0,0.33546714801650523
1652,1852.0,0.35962027484401915
1653,1853.0,0.3835217822966115
1654,1854.0,0.4071695635166179
1655,1855.0,0.43055549325163156
1656,1856.0,0.45367742786993404
1657,1857.0,0.47652920528662435
1658,1858.0,0.49910664498202095
1659,1859.0,0.5214035479048107
1660,1860.0,0.5434156965134207
1661,1861.0,0.5651388546798444
1662,1862.0,0.5865677677111307
1663,1863.0,0.6076961622679846
1664,1864.0,0.6285207463888582
1665,1865.0,0.6490362093963995
1666,1866.0,0.6692372219299614
1667,1867.0,0.6891184358551072
1668,1868.0,0.708676484285661
1669,1869.0,0.7279049815060716
1670,1870.0,0.7467985229636724
1671,1871.0,0.7653536852453726
1672,1872.0,0.7835650260281
1673,1873.0,0.8014270840481004
1674,1874.0,0.8189343790850216
1675,1875.0,0.8360824119126846
1676,1876.0,0.8528666642887401
1677,1877.0,0.8692815988938492
1678,1878.0,0.885321659334295
1679,1879.0,0.900983270078541
1680,1880.0,0.9162598364482619
1681,1881.0,0.9311467445791095
1682,1882.0,0.9456393613845648
1683,1883.0,0.9597310345375263
1684,1884.0,0.9734190924241375
1685,1885.0,0.9866968441206154
1686,1886.0,0.999558579362656
1687,1887.0,1.0120005685107571
1688,1888.0,1.0240170625147584
1689,1889.0,1.0356032928934837
1690,1890.0,1.0467524716973458
1691,1891.0,1.0574607914713852
1692,1892.0,1.0677234252343624
1693,1893.0,1.0775345264405587
1694,1894.0,1.0868882289501016
1695,1895.0,1.0957796469970162
1696,1896.0,1.104203875157964
1697,1897.0,1.1121559883249574
1698,1898.0,1.119629041659664
1699,1899.0,1.1266200705927076
1700,1900.0,1.133122090748202
1701,1901.0,1.139129097959085
1702,1902.0,1.144638068189579
1703,1903.0,1.1496419575473737
1704,1904.0,1.154135702216081
1705,1905.0,1.1581142184586497
1706,1906.0,1.1615714025419948
1707,1907.0,1.1645021307567731
1708,1908.0,1.166901259338374
1709,1909.0,1.1687636244705573
1710,1910.0,1.1700830422287254
1711,1911.0,1.1708533085775343
1712,1912.0,1.1710711993027871
1713,1913.0,1.170729470014976
1714,1914.0,1.1698218560882196
1715,1915.0,1.1683450726595765
1716,1916.0,1.1662918145593721
1717,1917.0,1.1636577563267565
1718,1918.0,1.1604355521290017
1719,1919.0,1.1566208357762662
1720,1920.0,1.1522082206447521
1721,1921.0,1.1471912996912579
1722,1922.0,1.1415646453783665
1723,1923.0,1.1353218096819546
1724,1924.0,1.1284593240297909
1725,1925.0,1.1209686992833667
1726,1926.0,1.1128464257108135
1727,1927.0,1.104084972943383
1728,1928.0,1.0946797899505327
1729,1929.0,1.0846243050145858
1730,1930.0,1.0739139256861563
1731,1931.0,1.0625410387638112
1732,1932.0,1.050501010256994
1733,1933.0,1.0377881853537474
1734,1934.0,1.0243958883984305
1735,1935.0,1.0103184228469217
1736,1936.0,0.9955500712476351
1737,1937.0,0.9800840951943428
1738,1938.0,0.9639167353152516
1739,1939.0,0.9470392112266381
1740,1940.0,0.9294477215048573
1741,1941.0,0.9111344436623767
1742,1942.0,0.8920955340995533
1743,1943.0,0.8723231280914661
1744,1944.0,0.8518113397476554
1745,1945.0,0.8305552619790433
1746,1946.0,0.8085469664724769
1747,1947.0,0.7857825036494432
1748,1948.0,0.7622539026533559
1749,1949.0,0.7379561712923532
1750,1950.0,0.7128822960307843
1751,1951.0,0.6870272419482717
1752,1952.0,0.6603829527070957
1753,1953.0,0.6329443505101153
1754,1954.0,0.6047063361124856
1755,1955.0,0.5756597887184398
1756,1956.0,0.545800566032085
1757,1957.0,0.5151225041499856
1758,1958.0,0.4836174175934502
1759,1959.0,0.45128109922143267
1760,1960.0,0.41810532024828717
1761,1961.0,0.38408583017417186
1762,1962.0,0.34921335678109244
1763,1963.0,0.3134836060730777
1764,1964.0,0.2768902622915448
1765,1965.0,0.2394259878160483
1766,1966.0,0.20108342320463635
1767,1967.0,0.16185818710209787
1768,1968.0,0.1217418762557827
1769,1969.0,0.080729065444757
1770,1970.0,0.03881330748617984
1771,1971.0,-0.004013866833247448
1772,1972.0,-0.04775594875400202
1773,1973.0,-0.09242245161567553
1774,1974.0,-0.13801891083039663
1775,1975.0,-0.18455088398377484
1776,1976.0,-0.23202695080226476
1777,1977.0,-0.28045371323923973
1778,1978.0,-0.32983579544907116
1779,1979.0,-0.3801828438845405
1780,1980.0,-0.4314995272666238
1781,1981.0,-0.48379253665871147
1782,1982.0,-0.5370705854729749
1783,1983.0,-0.5913384095160836
1784,1984.0,-0.6466047670110129
1785,1985.0,-0.702875438637875
1786,1986.0,-0.7601572275607396
1787,1987.0,-0.8184569594536697
1788,1988.0,-0.877782482535622
1789,1989.0,-0.9381406676138795
1790,1990.0,-0.9995374080990587
1791,1991.0,-1.0619806200365929
1792,1992.0,-1.1254772421493726
1793,1993.0,-1.1900342358699163
1794,1994.0,-1.2556575853545837
1795,1995.0,-1.3223572975275601
1796,1996.0,-1.3901374021197626
1797,1997.0,-1.45900695168757
1798,1998.0,-1.5289720216383103
1799,1999.0,-1.6000397102825445
1800,2000.0,-1.6722191388453211
