pixel_index,raman_shift_cm-1,intensity
0,200.0,1.8110901872365304
1,201.0,1.7900301050597491
2,202.0,1.7689986043872707
3,203.0,1.747994550314111
4,204.0,1.7270178084130094
5,205.0,1.7060682447340483
6,206.0,1.6851467258041097
7,207.0,1.664251118626403
8,208.0,1.6433832906800347
9,209.0,1.622543109919512
10,210.0,1.6017284447742597
11,211.0,1.5809411641481645
12,212.0,1.5601811374191072
13,213.0,1.5394462344384579
14,214.0,1.5187393255306603
15,215.0,1.4980582814926748
16,216.0,1.4774029735936054
17,217.0,1.4567742735741476
18,218.0,1.4361720536461604
19,219.0,1.4155951864921548
20,220.0,1.3950445452648736
21,221.0,1.374520003586774
22,222.0,1.3540214355495834
23,223.0,1.3335487157137962
24,224.0,1.3131007191082276
25,225.0,1.2926783212295376
26,226.0,1.2722823980417601
27,227.0,1.2519108259758127
28,228.0,1.231564481929027
29,229.0,1.2112442432647015
30,230.0,1.1909479878116116
31,231.0,1.1706775938635303
32,232.0,1.1504319401787484
33,233.0,1.1302119059796567
34,234.0,1.110015370952162
35,235.0,1.0898442152453853
36,236.0,1.0696983194709944
37,237.0,1.049576564702889
38,238.0,1.0294788324766273
39,239.0,1.0094060047890139
40,240.0,0.9893579640976071
41,241.0,0.9693335933202007
42,242.0,0.9493337758344325
43,243.0,0.9293583954773155
44,244.0,0.9094073365446178
45,245.0,0.8894794837905735
46,246.0,0.8695767224273183
47,247.0,0.8496969381244242
48,248.0,0.8298420170084313
49,249.0,0.8100098456623712
50,250.0,0.7902023111253129
51,251.0,0.7704183008918903
52,252.0,0.7506587029117711
53,253.0,0.7309214055892923
54,254.0,0.7112082977828678
55,255.0,0.6915192688046119
56,256.0,0.6718532084198117
57,257.0,0.6522100068464738
58,258.0,0.6325905547548487
59,259.0,0.6129947432669738
60,260.0,0.5934224639561378
61,261.0,0.573873608846533
62,262.0,0.5543470704126321
63,263.0,0.5348447415788229
64,264.0,0.5153645157189075
65,265.0,0.49590828665561304
66,266.0,0.4764739486601215
67,267.0,0.4570633964516233
68,268.0,0.43767652519681377
69,269.0,0.4183122305094358
70,270.0,0.3989704084498271
71,271.0,0.3796519555243876
72,272.0,0.3603557686851673
73,273.0,0.34108274532937344
74,274.0,0.32183278329889475
75,275.0,0.3026057808798086
76,276.0,0.2834006368019715
77,277.0,0.2642192502384546
78,278.0,0.24506052080516838
79,279.0,0.2259243485603193
80,280.0,0.2068106340039435
81,281.0,0.18772027807749225
82,282.0,0.16865218216328515
83,283.0,0.1496062480840905
84,284.0,0.13058437810260415
85,285.0,0.11158447492104528
86,286.0,0.09260644168062981
87,287.0,0.07365218196108714
88,288.0,0.054720599780253565
89,289.0,0.03581159959354352
90,290.0,0.016924086293478524
91,291.0,-0.0019390347907801697
92,292.0,-0.020780857893853977
93,293.0,-0.039598476814688865
94,294.0,-0.05839498491702244
95,295.0,-0.0771674751297553
96,296.0,-0.09591803994759118
97,297.0,-0.11464577143140531
98,298.0,-0.13335076120867484
99,299.0,-0.15203210047406657
100,300.0,-0.17069187998983182
101,301.0,-0.1893281900863002
102,302.0,-0.2079411206623547
103,303.0,-0.22653176118591034
104,304.0,-0.2450992006943551
105,305.0,-0.26364452779506564
106,306.0,-0.28216583066585343
107,307.0,-0.3006641970554256
108,308.0,-0.31913971428390653
109,309.0,-0.33759246924328323
110,310.0,-0.3560215483977913
111,311.0,-0.3744280377846181
112,312.0,-0.3928100230140785
113,313.0,-0.41116958927033664
114,314.0,-0.42950582131171444
115,315.0,-0.44781880347127867
116,316.0,-0.4661076196572367
117,317.0,-0.48437335335343334
118,318.0,-0.5026150876198372
119,319.0,-0.5208329050929947
120,320.0,-0.5390278879865207
121,321.0,-0.5571981180915273
122,322.0,-0.5753446767771635
123,323.0,-0.593467644991037
124,324.0,-0.6115661032597401
125,325.0,-0.6296411316892119
126,326.0,-0.6476908099653471
127,327.0,-0.665717217354377
128,328.0,-0.6837184327033938
129,329.0,-0.7016945344407617
130,330.0,-0.7196466005766666
131,331.0,-0.7375747087035336
132,332.0,-0.7554769359965192
133,333.0,-0.7733543592139966
134,334.0,-0.7912070546979422
135,335.0,-0.8090340983746174
136,336.0,-0.8268355657547559
137,337.0,-0.8446115319342482
138,338.0,-0.8623620715945819
139,339.0,-0.8800872590032114
140,340.0,-0.8977861680141714
141,341.0,-0.9154588720683918
142,342.0,-0.9331054441943607
143,343.0,-0.9507259570084017
144,344.0,-0.9683204827152991
145,345.0,-0.9858870931086585
146,346.0,-1.0034278595715094
147,347.0,-1.0209408530765955
148,348.0,-1.0384271441870467
149,349.0,-1.0558858030566824
150,350.0,-1.0733168994306226
151,351.0,-1.0907205026456026
152,352.0,-1.108095681630651
153,353.0,-1.1254425049073902
154,354.0,-1.1427620405905614
155,355.0,-1.160052356388519
156,356.0,-1.1773135196036648
157,357.0,-1.1945465971329838
158,358.0,-1.2117496554684948
159,359.0,-1.2289237606975973
160,360.0,-1.2460669785037908
161,361.0,-1.263181374166905
162,362.0,-1.2802650125637385
163,363.0,-1.2973189581684181
164,364.0,-1.314341275052989
165,365.0,-1.3313330268877266
166,366.0,-1.348292276941784
167,367.0,-1.3652210880835938
168,368.0,-1.382117522781229
169,369.0,-1.3989826431030963
170,370.0,-1.4158145107182278
171,371.0,-1.432613186896809
172,372.0,-1.4493797325106925
173,373.0,-1.4661112080337944
174,374.0,-1.482810673542673
175,375.0,-1.499474188716846
176,376.0,-1.5161048128394725
177,377.0,-1.5326996047975427
178,378.0,-1.5492586230827357
179,379.0,-1.5657829257914386
180,380.0,-1.5822705706256244
181,381.0,-1.5987216148930798
182,382.0,-1.6151361155079513
183,383.0,-1.631513128991216
184,384.0,-1.6478517114711764
185,385.0,-1.6641529186839108
186,386.0,-1.68041480597374
187,387.0,-1.6966384282936957
188,388.0,-1.71282184020599
189,389.0,-1.7289650958825433
190,390.0,-1.7450672491054036
191,391.0,-1.7611293532672079
192,392.0,-1.777148461371695
193,393.0,-1.7931266260341943
194,394.0,-1.8090608994819917
195,395.0,-1.8249523335549043
196,396.0,-1.8407999797057784
197,397.0,-1.8566028890008255
198,398.0,-1.8723611121202595
199,399.0,-1.888072699358574
200,400.0,-1.9037387006252828
201,401.0,-1.9193561654450662
202,402.0,-1.934927142958628
203,403.0,-1.95044968192272
204,404.0,-1.9659228307110084
205,405.0,-1.9813456373143055
206,406.0,-1.9967181493411914
207,407.0,-2.0120384140183916
208,408.0,-2.0273074781912896
209,409.0,-2.0425233883243124
210,410.0,-2.0576851905016156
211,411.0,-2.072791930427286
212,412.0,-2.0878436534260345
213,413.0,-2.1028394044435714
214,414.0,-2.1177772280470037
215,415.0,-2.132656168425541
216,416.0,-2.147476269390708
217,417.0,-2.1622365743769194
218,418.0,-2.176935126442075
219,419.0,-2.191571968267766
220,420.0,-2.2061451421600538
221,421.0,-2.2206536900497014
222,422.0,-2.235096653492775
223,423.0,-2.249473073670984
224,424.0,-2.2637809913923945
225,425.0,-2.2780204470916203
226,426.0,-2.292189480830487
227,427.0,-2.3062861322985384
228,428.0,-2.3203104408131736
229,429.0,-2.3342604453206377
230,430.0,-2.3481341843960166
231,431.0,-2.361931696244042
232,432.0,-2.3756500186993463
233,433.0,-2.3892881892270736
234,434.0,-2.4028452449232987
235,435.0,-2.4163182225154713
236,436.0,-2.4297071583629304
237,437.0,-2.44300908845743
238,438.0,-2.4562230484234533
239,439.0,-2.469347073518847
240,440.0,-2.482379198635172
241,441.0,-2.4953174582983166
242,442.0,-2.508159886668821
243,443.0,-2.5209055175423885
244,444.0,-2.5335503843504625
245,445.0,-2.5460945201605654
246,446.0,-2.5585339576768433
247,447.0,-2.570867729240476
248,448.0,-2.583092866830256
249,449.0,-2.595207402062968
250,450.0,-2.6072083661939303
251,451.0,-2.619093790117361
252,452.0,-2.630860704366995
253,453.0,-2.6425071391163897
254,454.0,-2.6540301241795845
255,455.0,-2.6654256890114
256,456.0,-2.67669286270808
257,457.0,-2.687826674007596
258,458.0,-2.6988251512901797
259,459.0,-2.7096863225788894
260,460.0,-2.7204042155399577
261,461.0,-2.7309768574832987
262,462.0,-2.74140127536306
263,463.0,-2.751673495777922
264,464.0,-2.7617885449717505
265,465.0,-2.7717444488340703
266,466.0,-2.7815362329002653
267,467.0,-2.7911599223524206
268,468.0,-2.8006115420195528
269,469.0,-2.8098861163781663
270,470.0,-2.818980669552772
271,471.0,-2.82788822531613
272,472.0,-2.836605807090095
273,473.0,-2.8451274379457914
274,474.0,-2.8534481406041436
275,475.0,-2.861562937436517
276,476.0,-2.8694658504648913
277,477.0,-2.877150901362654
278,478.0,-2.8846131114548115
279,479.0,-2.8918465017186605
280,480.0,-2.8988430927840625
281,481.0,-2.905597904934197
282,482.0,-2.912102958105649
283,483.0,-2.918352271889262
284,484.0,-2.92433786553039
285,485.0,-2.930051757929391
286,486.0,-2.935486967642163
287,487.0,-2.9406345128806777
288,488.0,-2.945486411513116
289,489.0,-2.9500336810648378
290,490.0,-2.954267338718452
291,491.0,-2.9581784013145693
292,492.0,-2.9617558853520194
293,493.0,-2.964989806988541
294,494.0,-2.967869182041028
295,495.0,-2.970384025986334
296,496.0,-2.9725213539613975
297,497.0,-2.9742711807639353
298,498.0,-2.9756185208528194
299,499.0,-2.9765523883485656
300,500.0,-2.9770577970338366
301,501.0,-2.9771217603538815
302,502.0,-2.9767282914170607
303,503.0,-2.975863402995202
304,504.0,-2.9745101075242673
305,505.0,-2.972651417104558
306,506.0,-2.9702713435014374
307,507.0,-2.9673498981456845
308,508.0,-2.963870092133945
309,509.0,-2.9598099362293624
310,510.0,-2.95514944086176
311,511.0,-2.949866616128446
312,512.0,-2.9439394717944083
313,513.0,-2.937344017292986
314,514.0,-2.9300552617261673
315,515.0,-2.922046213865272
316,516.0,-2.9132908821512444
317,517.0,-2.9037592746952186
318,518.0,-2.8934223992788617
319,519.0,-2.8822472633550973
320,520.0,-2.8702018740482913
321,521.0,-2.8572522381549987
322,522.0,-2.8433593621441844
323,523.0,-2.828487252157828
324,524.0,-2.8125929140114465
325,525.0,-2.7956363531943964
326,526.0,-2.7775705748705093
327,527.0,-2.7583495838785126
328,528.0,-2.737923384732497
329,529.0,-2.716238981622368
330,530.0,-2.6932413784142426
331,531.0,-2.6688715786512063
332,532.0,-2.6430675855534247
333,533.0,-2.615764402018897
334,534.0,-2.5868930306237132
335,535.0,-2.5563804736227382
336,536.0,-2.524148732949925
337,537.0,-2.490114810218813
338,538.0,-2.4541917067231793
339,539.0,-2.416288423437038
340,540.0,-2.3763049610157054
341,541.0,-2.334137319796042
342,542.0,-2.2896734997966064
343,543.0,-2.2427975007186376
344,544.0,-2.193380321946222
345,545.0,-2.141289962546864
346,546.0,-2.086380421271855
347,547.0,-2.0285006965570176
348,548.0,-1.9674857865227011
349,549.0,-1.9031606889747366
350,550.0,-1.8353384014047265
351,551.0,-1.7638169209903083
352,552.0,-1.6883802445960612
353,553.0,-1.6087963687736533
354,554.0,-1.524817289762268
355,555.0,-1.4361740034893273
356,556.0,-1.3425775055709153
357,557.0,-1.2437157913120984
358,558.0,-1.1392538557074374
359,559.0,-1.0288256934415188
360,560.0,-0.912038298889513
361,561.0,-0.7884656661174461
362,562.0,-0.6576447888827772
363,563.0,-0.5190706606348954
364,564.0,-0.37219727451554263
365,565.0,-0.21642862335937707
366,566.0,-0.051111699694217805
367,567.0,0.12446350425810238
368,568.0,0.3110759965817351
369,569.0,0.5095787856658376
370,570.0,0.7209108802046558
371,571.0,0.9461032891964578
372,572.0,1.1862910219435605
373,573.0,1.442731088051545
374,574.0,1.7168114974290063
375,575.0,2.0100702602867955
376,576.0,2.3242183871378472
377,577.0,2.66115788879668
378,578.0,3.0230127763784935
379,579.0,3.4121580612993796
380,580.0,3.8312557552752935
381,581.0,4.283298870321744
382,582.0,4.771659418753643
383,583.0,5.300150413184156
384,584.0,5.873089866524964
385,585.0,6.495389791985218
386,586.0,7.172651203071467
387,587.0,7.9112831135868475
388,588.0,8.718643537630982
389,589.0,9.603212489599088
390,590.0,10.574799984181936
391,591.0,11.644798036364989
392,592.0,12.826496661428166
393,593.0,14.135458874945385
394,594.0,15.590003692783824
395,595.0,17.211791131103922
396,596.0,19.026566206358297
397,597.0,21.06508593529182
398,598.0,23.364302334940874
399,599.0,25.968863422632865
400,600.0,28.93303521598591
401,601.0,32.323180732908185
402,602.0,36.22095599159758
403,603.0,40.72746601054112
404,604.0,45.96866080851467
405,605.0,52.102339404582125
406,606.0,59.32720081809555
407,607.0,67.89438206869386
408,608.0,78.12180017630308
409,609.0,90.41106416113558
410,610.0,105.26535104368952
411,611.0,123.3032158447484
412,612.0,145.25602958538104
413,613.0,171.92198228694022
414,614.0,204.02324797106309
415,615.0,241.87573565967023
416,616.0,284.7597673749652
417,617.0,329.9742081394341
418,618.0,371.9578979758453
419,619.0,402.5902549072488
420,620.0,413.9253329569756
421,621.0,402.5577271486375
422,622.0,371.8928435061263
423,623.0,329.876627053614
424,624.0,284.6296608155515
425,625.0,241.71310481666862
426,626.0,203.8280940819734
427,627.0,171.694308636752
428,628.0,144.99583750656754
429,629.0,123.01050871726045
430,630.0,104.94013329494732
431,631.0,90.053338266021
432,632.0,77.73156965714941
433,633.0,67.47165249527589
434,634.0,58.87197480761813
435,635.0,51.61462362166779
436,636.0,45.44845996519044
437,637.0,40.17478686622454
438,638.0,35.63580335308117
439,639.0,31.70556145434378
440,640.0,28.282956198867367
441,641.0,25.286331615778295
442,642.0,22.649325734473535
443,643.0,20.317671584620484
444,644.0,18.246723196156296
445,645.0,16.399528599287493
446,646.0,14.745329824489545
447,647.0,13.258382902506185
448,648.0,11.917028864349078
449,649.0,10.70294974129743
450,650.0,9.600579564897401
451,651.0,8.596632366961614
452,652.0,7.6797141795689186
453,653.0,6.840017035063511
454,654.0,6.069060966054593
455,655.0,5.359486005416358
456,656.0,4.704886186286899
457,657.0,4.099660542067994
458,658.0,3.5388971064246277
459,659.0,3.0182779132845496
460,660.0,2.533989996837761
461,661.0,2.0826633915360446
462,662.0,1.6613041320924538
463,663.0,1.2672512534809073
464,664.0,0.8981287909358855
465,665.0,0.5518157799513403
466,666.0,0.2264082562809051
467,667.0,-0.07980374406272972
468,668.0,-0.36835718480855917
469,669.0,-0.6406410294275133
470,670.0,-0.8979092411331635
471,671.0,-1.1412987828818189
472,672.0,-1.3718406173732092
473,673.0,-1.5904707070511108
474,674.0,-1.7980440141033966
475,675.0,-1.9953375004631084
476,676.0,-2.1830631278082535
477,677.0,-2.36186985756288
478,678.0,-2.5323556508971308
479,679.0,-2.695065468727961
480,680.0,-2.8505042717195295
481,681.0,-2.9991340202834635
482,682.0,-3.141379674579838
483,683.0,-3.2776361945171004
484,684.0,-3.4082665397529865
485,685.0,-3.533605669694566
486,686.0,-3.653966543499024
487,687.0,-3.7696361200742103
488,688.0,-3.880882358078651
489,689.0,-3.9879552159225398
490,690.0,-4.091084651768057
491,691.0,-4.190486623529523
492,692.0,-4.2863620888742275
493,693.0,-4.378897005222967
494,694.0,-4.4682673297499775
495,695.0,-4.554635019384335
496,696.0,-4.638155030809315
497,697.0,-4.718967320463776
498,698.0,-4.797208844542013
499,699.0,-4.873002558994813
500,700.0,-4.94646741952937
501,701.0,-5.01771438160992
502,702.0,-5.0868464004587395
503,703.0,-5.153962431055703
504,704.0,-5.21915342813935
505,705.0,-5.2825063462072706
506,706.0,-5.344103139516648
507,707.0,-5.404019762084374
508,708.0,-5.462330167688094
509,709.0,-5.5191023098659855
510,710.0,-5.5744001419176925
511,711.0,-5.628286616905029
512,712.0,-5.680817687651853
513,713.0,-5.732050306744696
514,714.0,-5.782033426533729
515,715.0,-5.83081899913239
516,716.0,-5.878451976418745
517,717.0,-5.924977310035331
518,718.0,-5.970435951389817
519,719.0,-6.014868851655564
520,720.0,-6.058311961772063
521,721.0,-6.100803232445429
522,722.0,-6.142375614148563
523,723.0,-6.1830610571222735
524,724.0,-6.222891511374797
525,725.0,-6.26189492668351
526,726.0,-6.300100252594177
527,727.0,-6.337534438422324
528,728.0,-6.374220433253242
529,729.0,-6.410185185942339
530,730.0,-6.4454496451161845
531,731.0,-6.480036759172606
532,732.0,-6.513966476280984
533,733.0,-6.547259744383098
534,734.0,-6.579934511193358
535,735.0,-6.612009724199595
536,736.0,-6.643502330662955
537,737.0,-6.674428277618972
538,738.0,-6.704803511877742
539,739.0,-6.734643980024316
540,740.0,-6.763963628419447
541,741.0,-6.792775403199755
542,742.0,-6.821093250278636
543,743.0,-6.8489291153460385
544,744.0,-6.87629594386982
545,745.0,-6.903203681095363
546,746.0,-6.929663272046469
547,747.0,-6.955686661526215
548,748.0,-6.981282794116453
549,749.0,-7.006461614179386
550,750.0,-7.031231065856957
551,751.0,-7.055601093072198
552,752.0,-7.0795796395293
553,753.0,-7.103173648714176
554,754.0,-7.126392063894684
555,755.0,-7.149240828121663
556,756.0,-7.171727884228744
557,757.0,-7.1938591748335625
558,758.0,-7.215640642337291
559,759.0,-7.23707922892595
560,760.0,-7.25817987657058
561,761.0,-7.27894752702764
562,762.0,-7.299387121839459
563,763.0,-7.319504602334746
564,764.0,-7.339303909629336
565,765.0,-7.358789984626242
566,766.0,-7.377965768016566
567,767.0,-7.396836200279267
568,768.0,-7.415404221682479
569,769.0,-7.433673772283441
570,770.0,-7.451648791929131
571,771.0,-7.469330220256779
572,772.0,-7.486722996694255
573,773.0,-7.503828060460535
574,774.0,-7.520649350566373
575,775.0,-7.53718880581431
576,776.0,-7.553448364799749
577,777.0,-7.5694299659111834
578,778.0,-7.585135547330083
579,779.0,-7.600567047032541
580,780.0,-7.615724402788828
581,781.0,-7.6306105521640575
582,782.0,-7.645226432518996
583,783.0,-7.659572981009944
584,784.0,-7.6736501345898205
585,785.0,-7.687459830008379
586,786.0,-7.701002003812334
587,787.0,-7.714277592346548
588,788.0,-7.727285531753978
589,789.0,-7.740027757976122
590,790.0,-7.752503206753943
591,791.0,-7.764711813627912
592,792.0,-7.776653513938641
593,793.0,-7.788327242827393
594,794.0,-7.799733935236361
595,795.0,-7.8108725259093035
596,796.0,-7.821740949392279
597,797.0,-7.832339140033525
598,798.0,-7.842666031984265
599,799.0,-7.852720559199383
600,800.0,-7.862500655437373
601,801.0,-7.8720062542613505
602,802.0,-7.8812342890392415
603,803.0,-7.890183692944049
604,804.0,-7.89885239895483
605,805.0,-7.907238339857145
606,806.0,-7.915340448242546
607,807.0,-7.9231546565107465
608,808.0,-7.930678896868358
609,809.0,-7.937912101330369
610,810.0,-7.94485020172084
611,811.0,-7.95149112967232
612,812.0,-7.957830816627222
613,813.0,-7.963866193838214
614,814.0,-7.96959519236799
615,815.0,-7.975013743090699
616,816.0,-7.9801177766917135
617,817.0,-7.984904223668423
618,818.0,-7.989368014330637
619,819.0,-7.99350607880109
620,820.0,-7.997314347015788
621,821.0,-8.000786748724522
622,822.0,-8.003921213491537
623,823.0,-8.006709670695898
624,824.0,-8.009150049531684
625,825.0,-8.01123627900887
626,826.0,-8.012961287953544
627,827.0,-8.014322005008637
628,828.0,-8.01531135863388
629,829.0,-8.015923277106992
630,830.0,-8.016150688523453
631,831.0,-8.015989520797746
632,832.0,-8.015431701662749
633,833.0,-8.014470158671429
634,834.0,-8.013097819196332
635,835.0,-8.011306610430779
636,836.0,-8.009090459388744
637,837.0,-8.006441292905777
638,838.0,-8.003349037639055
639,839.0,-7.999807620068395
640,840.0,-7.995805966496164
641,841.0,-7.991337003048329
642,842.0,-7.986389655674145
643,843.0,-7.980954850147725
644,844.0,-7.975023512067253
645,845.0,-7.968584566856521
646,846.0,-7.961625939764531
647,847.0,-7.954138555867132
648,848.0,-7.946110340066014
649,849.0,-7.937528217090289
650,850.0,-7.9283811114966625
651,851.0,-7.918655947669606
652,852.0,-7.908339649822324
653,853.0,-7.897418141996923
654,854.0,-7.885878348064637
655,855.0,-7.873705191727026
656,856.0,-7.860882596515808
657,857.0,-7.847395485793527
658,858.0,-7.833228782754304
659,859.0,-7.818364410423612
660,860.0,-7.802785291659575
661,861.0,-7.7864733491528
662,862.0,-7.769410505427288
663,863.0,-7.7515776828406615
664,864.0,-7.732953803584678
665,865.0,-7.713517789685511
666,866.0,-7.6932495630048265
667,867.0,-7.672126045239679
668,868.0,-7.650124157923187
669,869.0,-7.6272198224249905
670,870.0,-7.603388959951644
671,871.0,-7.578604491547026
672,872.0,-7.552840338093517
673,873.0,-7.5260674203112785
674,874.0,-7.49825865875971
675,875.0,-7.469381973837358
676,876.0,-7.439408285782804
677,877.0,-7.408303514674742
678,878.0,-7.376034580432815
679,879.0,-7.342565402817684
680,880.0,-7.307860901431923
681,881.0,-7.271880995720267
682,882.0,-7.234588604969986
683,883.0,-7.1959406483115345
684,884.0,-7.155894044719162
685,885.0,-7.114404713010856
686,886.0,-7.071426571849429
687,887.0,-7.026910539742687
688,888.0,-6.980804535043831
689,889.0,-6.933057475952069
690,890.0,-6.883612280513034
691,891.0,-6.832412866619279
692,892.0,-6.77939915201074
693,893.0,-6.724506054275423
694,894.0,-6.667669490849335
695,895.0,-6.608820379017459
696,896.0,-6.547885635914099
697,897.0,-6.484791178523039
698,898.0,-6.419456923678581
699,899.0,-6.351800788065873
700,900.0,-6.281736688220633
701,901.0,-6.209172540530744
702,902.0,-6.134013261235907
703,903.0,-6.056159766428834
704,904.0,-5.975506972054802
705,905.0,-5.891943793912617
706,906.0,-5.805354147655635
707,907.0,-5.71561694879108
708,908.0,-5.622603112681645
709,909.0,-5.526178554544913
710,910.0,-5.4262011894549005
711,911.0,-5.322519932341436
712,912.0,-5.214978697991626
713,913.0,-5.103409401049646
714,914.0,-4.987636956017866
715,915.0,-4.867475277256176
716,916.0,-4.742728278983748
717,917.0,-4.613187875278925
718,918.0,-4.478635980079673
719,919.0,-4.338837507183882
720,920.0,-4.193548370250255
721,921.0,-4.042505482798674
722,922.0,-3.8854317582105296
723,923.0,-3.7220331097288977
724,924.0,-3.551996450460024
725,925.0,-3.374988693372586
726,926.0,-3.1906557512988343
727,927.0,-2.998618536935453
728,928.0,-2.798476962842585
729,929.0,-2.589799941446074
730,930.0,-2.372128385036717
731,931.0,-2.1449732057712367
732,932.0,-1.90780931567258
733,933.0,-1.6600736266304352
734,934.0,-1.4011660504020824
735,935.0,-1.1304374986119115
736,936.0,-0.8471948827529445
737,937.0,-0.5506911141866908
738,938.0,-0.240122104143893
739,939.0,0.08537923627540067
740,940.0,0.4267479961005165
741,941.0,0.7849942644907628
742,942.0,1.1612111307343298
743,943.0,1.5565816842476465
744,944.0,1.9723920145755187
745,945.0,2.4100342113899273
746,946.0,2.8710253644905492
747,947.0,3.357017563802742
748,948.0,3.869812899379099
749,949.0,4.411379461397303
750,950.0,4.983872340159962
751,951.0,5.589650626094965
752,952.0,6.231308409754206
753,953.0,6.91169878181347
754,954.0,7.633963833071618
755,955.0,8.401574654450826
756,956.0,9.218373336995
757,957.0,10.088616971870408
758,958.0,11.017038650364498
759,959.0,12.008909463885857
760,960.0,13.070113503963285
761,961.0,14.20723586224608
762,962.0,15.427665630502474
763,963.0,16.73971690062001
764,964.0,18.15276776460479
765,965.0,19.677430314581443
766,966.0,21.325749642791436
767,967.0,23.11143984159412
768,968.0,25.050169003465044
769,969.0,27.159898220996297
770,970.0,29.461295586895517
771,971.0,31.978233193985773
772,972.0,34.73839613520488
773,973.0,37.77402950360499
774,974.0,41.122854392352
775,975.0,44.829199894725434
776,976.0,48.94542310411748
777,977.0,53.53367211403281
778,978.0,58.668111018088325
779,979.0,64.43774191001216
780,980.0,70.94998688364353
781,981.0,78.33528003293225
782,982.0,86.7529794519379
783,983.0,96.39899423483041
784,984.0,107.51569547588804
785,985.0,120.40478126949813
786,986.0,135.4439807101562
787,987.0,153.10862689246528
788,988.0,173.99916091113573
789,989.0,198.87530286098502
790,990.0,228.6963818369362
791,991.0,264.66392393401895
792,992.0,308.25459824736754
793,993.0,361.21418387222184
794,994.0,425.44812690392587
795,995.0,502.68154243792674
796,996.0,593.6730335697767
797,997.0,696.7164133951295
798,998.0,805.3888020097422
799,999.0,906.4589805094733
800,1000.0,980.603336990284
801,1001.0,1008.9157985482352
802,1002.0,983.3031812794892
803,1003.0,911.8909942803084
804,1004.0,813.6185416470548
805,1005.0,707.8445344761898
806,1006.0,607.838195864273
807,1007.0,520.0645149079628
808,1008.0,446.2772957040153
809,1009.0,385.77276034928343
810,1010.0,336.8899209407176
811,1011.0,297.79939157536467
812,1012.0,266.8467173503665
813,1013.0,242.66608236296145
814,1014.0,224.19185271048195
815,1015.0,210.63274649035554
816,1016.0,201.43847180010357
817,1017.0,196.2712867373408
818,1018.0,194.9869723997749
819,1019.0,197.62613488520662
820,1020.0,204.4148212915287
821,1021.0,215.77122871672532
822,1022.0,232.3109542588718
823,1023.0,254.83374601613457
824,1024.0,284.2556510867696
825,1025.0,321.4160725691231
826,1026.0,366.6407285616309
827,1027.0,418.9139531628168
828,1028.0,474.63725847129353
829,1029.0,526.4766045857616
830,1030.0,563.7542886050085
831,1031.0,576.0278506279094
832,1032.0,558.8061997534252
833,1033.0,516.5216770806032
834,1034.0,459.5563387085758
835,1035.0,398.5240977365611
836,1036.0,340.6899112638612
837,1037.0,289.5757313898623
838,1038.0,246.11066621403472
839,1039.0,209.86934083593098
840,1040.0,179.89577435518743
841,1041.0,155.13565487152164
842,1042.0,134.62321348473336
843,1043.0,117.54132129470383
844,1044.0,103.22473040139414
845,1045.0,91.14187790484675
846,1046.0,80.87140390518334
847,1047.0,72.07991750260521
848,1048.0,64.50315979739241
849,1049.0,57.930838889903384
850,1050.0,52.194728880574644
851,1051.0,47.159456869920064
852,1052.0,42.715400958530495
853,1053.0,38.77321924707337
854,1054.0,35.259631836292215
855,1055.0,32.11415782700601
856,1056.0,29.286573320108914
857,1057.0,26.734923416569927
858,1058.0,24.423969217431704
859,1059.0,22.323944823811303
860,1060.0,20.40958333689798
861,1061.0,18.65932585795474
862,1062.0,17.054695488316383
863,1063.0,15.579783329389556
864,1064.0,14.2208324826521
865,1065.0,12.96590204965321
866,1066.0,11.804585132011653
867,1067.0,10.727780831416908
868,1068.0,9.727502249627264
869,1069.0,8.796713488470687
870,1070.0,7.929205649842629
871,1071.0,7.119474835707592
872,1072.0,6.362635148096729
873,1073.0,5.654334689108964
874,1074.0,4.99068756090935
875,1075.0,4.368220865729313
876,1076.0,3.783816705866343
877,1077.0,3.2346771836818107
878,1078.0,2.718284401603114
879,1079.0,2.2323694621212553
880,1080.0,1.7748854677913641
881,1081.0,1.3439815212313988
882,1082.0,0.9379857251223029
883,1083.0,0.5553841822077175
884,1084.0,0.19480799529264914
885,1085.0,-0.14498273275614793
886,1086.0,-0.4651108990112789
887,1087.0,-0.7665884004844656
888,1088.0,-1.0503331341280955
889,1089.0,-1.317166996834203
890,1090.0,-1.5678328854365873
891,1091.0,-1.802992696710021
892,1092.0,-2.0232373273711346
893,1093.0,-2.2290886740796623
894,1094.0,-2.4210016334369584
895,1095.0,-2.599373101988931
896,1096.0,-2.7645379762243465
897,1097.0,-2.9167731525769796
898,1098.0,-3.0563015274248073
899,1099.0,-3.183286997091159
900,1100.0,-3.297840457845382
901,1101.0,-3.4000158059025125
902,1102.0,-3.489809937424411
903,1103.0,-3.567159748520112
904,1104.0,-3.631943135246388
905,1105.0,-3.6839749936074213
906,1106.0,-3.722998219556871
907,1107.0,-3.748687708996499
908,1108.0,-3.7606383577780207
909,1109.0,-3.7583610617032264
910,1110.0,-3.741273716523665
911,1111.0,-3.7086932179423684
912,1112.0,-3.6598204616137764
913,1113.0,-3.593731343143645
914,1114.0,-3.5093617580904493
915,1115.0,-3.405484601965327
916,1116.0,-3.2806907702326953
917,1117.0,-3.1333641583106555
918,1118.0,-2.961653661571404
919,1119.0,-2.7634291753420257
920,1120.0,-2.536247594904694
921,1121.0,-2.2772968154971522
922,1122.0,-1.9833367323127504
923,1123.0,-1.650622240502571
924,1124.0,-1.2748152351736053
925,1125.0,-0.85087861139084
926,1126.0,-0.37293726417715334
927,1127.0,0.16587691148583872
928,1128.0,0.7736320206585106
929,1129.0,1.4598411684405619
930,1130.0,2.2357734599727337
931,1131.0,3.114837000435273
932,1132.0,4.113073895047478
933,1133.0,5.2497712490670665
934,1134.0,6.548250167790684
935,1135.0,8.036874756552038
936,1136.0,9.750346120722952
937,1137.0,11.731381365710945
938,1138.0,14.032884596961253
939,1139.0,16.720777919954003
940,1140.0,19.877668440204616
941,1141.0,23.607589263264458
942,1142.0,28.04204149471809
943,1143.0,33.34750924018533
944,1144.0,39.73431760531855
945,1145.0,47.46599469580349
946,1146.0,56.86650761735859
947,1147.0,68.31891747573422
948,1148.0,82.24128837671242
949,1149.0,99.0118664261064
950,1150.0,118.79609672976017
951,1151.0,141.2169723935474
952,1152.0,164.8595815233723
953,1153.0,186.81090822516774
954,1154.0,202.81728460489614
955,1155.0,208.71652276854695
956,1156.0,202.72481082213858
957,1157.0,186.62590887171632
958,1158.0,164.58195402335252
959,1159.0,140.84656238314608
960,1160.0,118.33269905722159
961,1161.0,98.45522215172912
962,1162.0,81.59108777284382
963,1163.0,67.57479602676563
964,1164.0,56.028049019718196
965,1165.0,46.53272685794889
966,1166.0,38.70571264772832
967,1167.0,32.222983495349354
968,1168.0,26.820955507127564
969,1169.0,22.289243789399848
970,1170.0,18.461305448524627
971,1171.0,15.205578590880577
972,1172.0,12.4179663228673
973,1173.0,10.015798750903741
974,1174.0,7.93308798142823
975,1175.0,6.116862120898418
976,1176.0,4.5243342757894425
977,1177.0,3.120733552595425
978,1178.0,1.87762005782713
979,1179.0,0.7715958980126061
980,1180.0,-0.2167048203034483
981,1181.0,-1.1034049905605343
982,1182.0,-1.9019995061826194
983,1183.0,-2.623844260578494
984,1184.0,-3.278545147142154
985,1185.0,-3.8742640592538464
986,1186.0,-4.417970890280003
987,1187.0,-4.915642533573532
988,1188.0,-5.372424882475116
989,1189.0,-5.792769830312977
990,1190.0,-6.18053827040319
991,1191.0,-6.539096096051367
992,1192.0,-6.871384200551688
993,1193.0,-7.179981477187994
994,1194.0,-7.467159819234212
995,1195.0,-7.7349221199553995
996,1196.0,-7.985040272606966
997,1197.0,-8.219089170436064
998,1198.0,-8.438469706681985
999,1199.0,-8.64443177457656
1000,1200.0,-8.838094267344673
1001,1201.0,-9.020459078203885
1002,1202.0,-9.192426100366447
1003,1203.0,-9.354809227038913
1004,1204.0,-9.50833935142225
1005,1205.0,-9.653679366712822
1006,1206.0,-9.79142816610306
1007,1207.0,-9.92213264278189
1008,1208.0,-10.04628768993382
1009,1209.0,-10.164345200741991
1010,1210.0,-10.27671606838635
1011,1211.0,-10.383779186045217
1012,1212.0,-10.485877446895188
1013,1213.0,-10.583327744112808
1014,1214.0,-10.676420970873323
1015,1215.0,-10.765425020352609
1016,1216.0,-10.850583785726712
1017,1217.0,-10.932127160172513
1018,1218.0,-11.010262036868767
1019,1219.0,-11.085183308996193
1020,1220.0,-11.157070869737368
1021,1221.0,-11.226089612278088
1022,1222.0,-11.292394429807928
1023,1223.0,-11.356129215519218
1024,1224.0,-11.41742486260955
1025,1225.0,-11.476408264280963
1026,1226.0,-11.53319331374064
1027,1227.0,-11.587887904201466
1028,1228.0,-11.640591928882941
1029,1229.0,-11.691401281010144
1030,1230.0,-11.740401853816707
1031,1231.0,-11.787676540542634
1032,1232.0,-11.833303234436812
1033,1233.0,-11.8773538287561
1034,1234.0,-11.919895216767145
1035,1235.0,-11.960992291745129
1036,1236.0,-12.000703946976046
1037,1237.0,-12.039086075755563
1038,1238.0,-12.076193571390945
1039,1239.0,-12.112074327200503
1040,1240.0,-12.146776236514143
1041,1241.0,-12.18034319267474
1042,1242.0,-12.212818089037228
1043,1243.0,-12.244237818970646
1044,1244.0,-12.27464227585699
1045,1245.0,-12.304065353093051
1046,1246.0,-12.332540944090056
1047,1247.0,-12.360099942274019
1048,1248.0,-12.386772241087328
1049,1249.0,-12.412585733988294
1050,1250.0,-12.437568314451255
1051,1251.0,-12.461742875968184
1052,1252.0,-12.485136312048553
1053,1253.0,-12.50776851621913
1054,1254.0,-12.529662382026231
1055,1255.0,-12.550838803034367
1056,1256.0,-12.571315672827609
1057,1257.0,-12.591112885010034
1058,1258.0,-12.610247333205962
1059,1259.0,-12.628733911060976
1060,1260.0,-12.646590512241119
1061,1261.0,-12.663831030434721
1062,1262.0,-12.680469359352855
1063,1263.0,-12.696519392728078
1064,1264.0,-12.711994024317505
1065,1265.0,-12.72690314790077
1066,1266.0,-12.741260657282396
1067,1267.0,-12.755076446291241
1068,1268.0,-12.768361408781402
1069,1269.0,-12.781123438632108
1070,1270.0,-12.793373429749295
1071,1271.0,-12.805118276064832
1072,1272.0,-12.81636787153775
1073,1273.0,-12.827129110154715
1074,1274.0,-12.837409885930128
1075,1275.0,-12.847216092906592
1076,1276.0,-12.85655462515615
1077,1277.0,-12.865431376779725
1078,1278.0,-12.873852241907798
1079,1279.0,-12.881821114701893
1080,1280.0,-12.889344889354106
1081,1281.0,-12.896427460086898
1082,1282.0,-12.903072721155468
1083,1283.0,-12.90928456684685
1084,1284.0,-12.91506689148082
1085,1285.0,-12.920421589409784
1086,1286.0,-12.925353555020251
1087,1287.0,-12.929864682732727
1088,1288.0,-12.933956867002166
1089,1289.0,-12.937633002318648
1090,1290.0,-12.940892983207164
1091,1291.0,-12.943740704229754
1092,1292.0,-12.94617605998394
1093,1293.0,-12.948199945104307
1094,1294.0,-12.949814254263401
1095,1295.0,-12.951017882171072
1096,1296.0,-12.95181072357525
1097,1297.0,-12.95219367326365
1098,1298.0,-12.95216662606208
1099,1299.0,-12.951728476837047
1100,1300.0,-12.95087712049451
1101,1301.0,-12.949613451981463
1102,1302.0,-12.94793436628629
1103,1303.0,-12.945837758438643
1104,1304.0,-12.943323523510458
1105,1305.0,-12.940387556615747
1106,1306.0,-12.937028752912624
1107,1307.0,-12.933243007601618
1108,1308.0,-12.929028215928156
1109,1309.0,-12.924379273181444
1110,1310.0,-12.919294074695813
1111,1311.0,-12.913768515851302
1112,1312.0,-12.9077974920732
1113,1313.0,-12.901375898833862
1114,1314.0,-12.894499631652138
1115,1315.0,-12.887162586094064
1116,1316.0,-12.879360657773873
1117,1317.0,-12.871085742353216
1118,1318.0,-12.862332735543305
1119,1319.0,-12.85309353310447
1120,1320.0,-12.843363030846149
1121,1321.0,-12.833132124628264
1122,1322.0,-12.822392710361441
1123,1323.0,-12.811136684007124
1124,1324.0,-12.79935594157871
1125,1325.0,-12.787039379140765
1126,1326.0,-12.774178892811733
1127,1327.0,-12.760763378761226
1128,1328.0,-12.746782733214104
1129,1329.0,-12.732223852448442
1130,1330.0,-12.717075632795968
1131,1331.0,-12.701325970644575
1132,1332.0,-12.68496176243616
1133,1333.0,-12.667968904669806
1134,1334.0,-12.650331293899399
1135,1335.0,-12.632035826737138
1136,1336.0,-12.613066399850823
1137,1337.0,-12.593404909967148
1138,1338.0,-12.573035253871012
1139,1339.0,-12.551937328405074
1140,1340.0,-12.53009303047179
1141,1341.0,-12.507482257032734
1142,1342.0,-12.484082905109744
1143,1343.0,-12.459872871786047
1144,1344.0,-12.434829054204101
1145,1345.0,-12.408926349569356
1146,1346.0,-12.382138655148538
1147,1347.0,-12.354439868270674
1148,1348.0,-12.325800886328352
1149,1349.0,-12.296191606776574
1150,1350.0,-12.265579927135832
1151,1351.0,-12.23393374498869
1152,1352.0,-12.201217957984
1153,1353.0,-12.167395463835419
1154,1354.0,-12.132428160322888
1155,1355.0,-12.096273945291387
1156,1356.0,-12.058891716653761
1157,1357.0,-12.020235372389834
1158,1358.0,-11.98025681054537
1159,1359.0,-11.938906929236964
1160,1360.0,-11.896130626647846
1161,1361.0,-11.851872801030822
1162,1362.0,-11.806074350708514
1163,1363.0,-11.758673174072783
1164,1364.0,-11.709601169587131
1165,1365.0,-11.658788235784186
1166,1366.0,-11.606161271269912
1167,1367.0,-11.551640174721115
1168,1368.0,-11.495140844886919
1169,1369.0,-11.43657618059001
1170,1370.0,-11.375849080725175
1171,1371.0,-11.31286144426167
1172,1372.0,-11.247506170243469
1173,1373.0,-11.179669157787885
1174,1374.0,-11.109228306089335
1175,1375.0,-11.03605651441626
1176,1376.0,-10.960014682113524
1177,1377.0,-10.88095670860298
1178,1378.0,-10.798725493384154
1179,1379.0,-10.713151936032318
1180,1380.0,-10.62405593620224
1181,1381.0,-10.53124539362716
1182,1382.0,-10.434514208118117
1183,1383.0,-10.33363827956714
1184,1384.0,-10.228380507945303
1185,1385.0,-10.118481793303772
1186,1386.0,-10.003668035775263
1187,1387.0,-9.883639135573048
1188,1388.0,-9.758072992992993
1189,1389.0,-9.626621508412882
1190,1390.0,-9.488908582293334
1191,1391.0,-9.344525115177476
1192,1392.0,-9.19302800769401
1193,1393.0,-9.033936160553594
1194,1394.0,-8.866726474552479
1195,1395.0,-8.690828850572416
1196,1396.0,-8.505620189580213
1197,1397.0,-8.310421392628996
1198,1398.0,-8.104488360857886
1199,1399.0,-7.88700599549361
1200,1400.0,-7.657078197849842
1201,1401.0,-7.413719869329498
1202,1402.0,-7.155846911421804
1203,1403.0,-6.882261225706316
1204,1404.0,-6.591636713852267
1205,1405.0,-6.28250527761702
1206,1406.0,-5.953235818850089
1207,1407.0,-5.602012239490705
1208,1408.0,-5.226810441569796
1209,1409.0,-4.825363327209743
1210,1410.0,-4.395132798624672
1211,1411.0,-3.933265758122843
1212,1412.0,-3.436546108104949
1213,1413.0,-2.901338751063804
1214,1414.0,-2.32352858958825
1215,1415.0,-1.6984315263614462
1216,1416.0,-1.0207104641608566
1217,1417.0,-0.28425830585979384
1218,1418.0,0.5179380455726914
1219,1419.0,1.3939596870702644
1220,1420.0,2.353153715470853
1221,1421.0,3.406374227514334
1222,1422.0,4.566283319842341
1223,1423.0,5.847708088999525
1224,1424.0,7.268099631429777
1225,1425.0,8.848094043479705
1226,1426.0,10.612214421394128
1227,1427.0,12.589758861319979
1228,1428.0,14.815926459301181
1229,1429.0,17.33324431128176
1230,1430.0,20.193402513104274
1231,1431.0,23.459607160508085
1232,1432.0,27.209635349131304
1233,1433.0,31.53978417450776
1234,1434.0,36.57001273206902
1235,1435.0,42.45061311714062
1236,1436.0,49.37083142494566
1237,1437.0,57.56985275060151
1238,1438.0,67.35046218911998
1239,1439.0,79.09515583540701
1240,1440.0,93.28315678426247
1241,1441.0,110.50357313037853
1242,1442.0,131.4529609683418
1243,1443.0,156.89151039262902
1244,1444.0,187.50701349761016
1245,1445.0,223.6003493775454
1246,1446.0,264.48612012658646
1247,1447.0,307.591826838775
1248,1448.0,347.621139608043
1249,1449.0,376.84018152821136
1250,1450.0,387.6813986929901
1251,1451.0,376.90155919597737
1252,1452.0,347.74392213065926
1253,1453.0,307.7760665904093
1254,1454.0,264.73189666848884
1255,1455.0,223.9077704580452
1256,1456.0,187.876211052112
1257,1457.0,157.32264554360722
1258,1458.0,131.9462220253356
1259,1459.0,111.05917558998613
1260,1460.0,93.90134333013089
1261,1461.0,79.77619933822689
1262,1462.0,68.0946627066146
1263,1463.0,58.37754052751575
1264,1464.0,50.24236489303553
1265,1465.0,43.386383895160634
1266,1466.0,37.57044062575869
1267,1467.0,32.60532217657942
1268,1468.0,28.340766639250887
1269,1469.0,24.656850105283638
1270,1470.0,21.457308666065273
1271,1471.0,18.664400412864097
1272,1472.0,16.21495343682568
1273,1473.0,14.05731682897408
1274,1474.0,12.14899868021189
1275,1475.0,10.454841081316772
1276,1476.0,8.945585122945204
1277,1477.0,7.596748895628252
1278,1478.0,6.387739489772457
1279,1479.0,5.301152995661141
1280,1480.0,4.322204503450848
1281,1481.0,3.4382821031733783
1282,1482.0,2.6385798847336446
1283,1483.0,1.9138029379103045
1284,1484.0,1.2559243523537589
1285,1485.0,0.6579862175888138
1286,1486.0,0.11394062301019403
1287,1487.0,-0.3814913421147139
1288,1488.0,-0.83292758864809
1289,1489.0,-1.2444200275820094
1290,1490.0,-1.6195335700381293
1291,1491.0,-1.9614111272678656
1292,1492.0,-2.272831610654748
1293,1493.0,-2.556253931713627
1294,1494.0,-2.8138620020904455
1295,1495.0,-3.0475927335648976
1296,1496.0,-3.2591720380471543
1297,1497.0,-3.450133827583386
1298,1498.0,-3.6218460143511493
1299,1499.0,-3.7755285106650263
1300,1500.0,-3.9122672289715865
1301,1501.0,-4.033029081854011
1302,1502.0,-4.138674982030352
1303,1503.0,-4.229969842356468
1304,1504.0,-4.307589575822703
1305,1505.0,-4.3721310955581885
1306,1506.0,-4.424121314828653
1307,1507.0,-4.464017147038248
1308,1508.0,-4.492214505729862
1309,1509.0,-4.509052304584884
1310,1510.0,-4.514817457423987
1311,1511.0,-4.509742878207817
1312,1512.0,-4.494016481038898
1313,1513.0,-4.467779180158914
1314,1514.0,-4.431128889950969
1315,1515.0,-4.384118524940959
1316,1516.0,-4.326761999796872
1317,1517.0,-4.259029229328235
1318,1518.0,-4.180852128489505
1319,1519.0,-4.092118612377817
1320,1520.0,-3.992676596234787
1321,1521.0,-3.882328995446642
1322,1522.0,-3.7608387255447724
1323,1523.0,-3.627919702206327
1324,1524.0,-3.483238841254206
1325,1525.0,-3.326415058657858
1326,1526.0,-3.1570122705340964
1327,1527.0,-2.974537393147102
1328,1528.0,-2.7784393429087686
1329,1529.0,-2.568101036379403
1330,1530.0,-2.3428333902691065
1331,1531.0,-2.101871321435965
1332,1532.0,-1.84436774688902
1333,1533.0,-1.5693835837871575
1334,1534.0,-1.2758757494402744
1335,1535.0,-0.9626941613091731
1336,1536.0,-0.6285617370069758
1337,1537.0,-0.2720673942981193
1338,1538.0,0.10835694889919978
1339,1539.0,0.514447374513793
1340,1540.0,0.9481329643217578
1341,1541.0,1.411561799944593
1342,1542.0,1.9071239628485728
1343,1543.0,2.437489534345559
1344,1544.0,3.0056425955924624
1345,1545.0,3.614928227588507
1346,1546.0,4.269104511177375
1347,1547.0,4.97240452704682
1348,1548.0,5.729605355726335
1349,1549.0,6.546120077586465
1350,1550.0,7.428097772840829
1351,1551.0,8.382543521543539
1352,1552.0,9.4174724035895
1353,1553.0,10.542082498715217
1354,1554.0,11.76697188649382
1355,1555.0,13.104406646340522
1356,1556.0,14.568637857508293
1357,1557.0,16.17630359908867
1358,1558.0,17.946921950010164
1359,1559.0,19.90350598904024
1360,1560.0,22.073334794782568
1361,1561.0,24.488924445676048
1362,1562.0,27.189266019997376
1363,1563.0,30.221394595857873
1364,1564.0,33.64241125120407
1365,1565.0,37.52208406381692
1366,1566.0,41.946211111311186
1367,1567.0,47.020985471136555
1368,1568.0,52.87864522057316
1369,1569.0,59.68475443673742
1370,1570.0,67.64748519657428
1371,1571.0,77.02913157686362
1372,1572.0,88.159710654214
1373,1573.0,101.45138150506614
1374,1574.0,117.40975420569066
1375,1575.0,136.6324428321882
1376,1576.0,159.7736254604888
1377,1577.0,187.432688166351
1378,1578.0,219.8958390253615
1379,1579.0,256.64300911293617
1380,1580.0,295.6064165043167
1381,1581.0,332.48247727457374
1382,1582.0,360.9708314986026
1383,1583.0,374.92619225112503
1384,1584.0,371.79341460668934
1385,1585.0,354.397417639668
1386,1586.0,329.1673604242585
1387,1587.0,302.7166350344821
1388,1588.0,279.70803654418455
1389,1589.0,262.63460302703334
1390,1590.0,252.53109455652066
1391,1591.0,249.74214220595923
1392,1592.0,254.44310204848466
1393,1593.0,266.91992415705295
1394,1594.0,287.6775966044422
1395,1595.0,317.4083874632497
1396,1596.0,356.7830028058929
1397,1597.0,405.9522297046092
1398,1598.0,463.6038912314541
1399,1599.0,525.553267458303
1400,1600.0,583.4349044568471
1401,1601.0,625.1372842985982
1402,1602.0,638.8317130548814
1403,1603.0,619.4117217968419
1404,1604.0,571.8401715954387
1405,1605.0,507.79464952144804
1406,1606.0,439.22003764545934
1407,1607.0,374.29058403787894
1408,1608.0,316.96464276892607
1409,1609.0,268.280425908634
1410,1610.0,227.75135852684957
1411,1611.0,194.29435469323153
1412,1612.0,166.71673847725197
1413,1613.0,143.9266319481951
1414,1614.0,125.00048817515471
1415,1615.0,109.18657022703746
1416,1616.0,95.88431117255982
1417,1617.0,84.61774408024803
1418,1618.0,75.01035901843738
1419,1619.0,66.76379805527313
1420,1620.0,59.640717258708946
1421,1621.0,53.45133169650558
1422,1622.0,48.042993436233246
1423,1623.0,43.29216554526715
1424,1624.0,39.09823309079047
1425,1625.0,35.37873413979332
1426,1626.0,32.06566675906902
1427,1627.0,29.102615015218134
1428,1628.0,26.442504974646226
1429,1629.0,24.045836703561235
1430,1630.0,21.87929026797724
1431,1631.0,19.914613733710212
1432,1632.0,18.12773616637878
1433,1633.0,16.49805663140546
1434,1634.0,15.007862194013569
1435,1635.0,13.641858919227843
1436,1636.0,12.386790871874382
1437,1637.0,11.231124116580531
1438,1638.0,10.164784717771454
1439,1639.0,9.17894373967465
1440,1640.0,8.265840246314838
1441,1641.0,7.418627301515926
1442,1642.0,6.631245968899975
1443,1643.0,5.898322311886886
1444,1644.0,5.215072393693845
1445,1645.0,4.577230277334365
1446,1646.0,3.9809800256177823
1447,1647.0,3.4228997011507545
1448,1648.0,2.8999153663341986
1449,1649.0,2.409257083364082
1450,1650.0,1.9484239142302613
1451,1651.0,1.5151559207179162
1452,1652.0,1.107404164403988
1453,1653.0,0.7233067066590593
1454,1654.0,0.3611706086467166
1455,1655.0,0.01945493132188858
1456,1656.0,-0.3032512645688712
1457,1657.0,-0.6082349184875966
1458,1658.0,-0.89667497010646
1459,1659.0,-1.1696543593059232
1460,1660.0,-1.4281670261786985
1461,1661.0,-1.673126911028021
1462,1662.0,-1.9053769543666021
1463,1663.0,-2.125694096920597
1464,1664.0,-2.334797279628674
1465,1665.0,-2.5333494436406454
1466,1666.0,-2.7219655303208583
1467,1667.0,-2.9012164812472747
1468,1668.0,-3.0716302382109006
1469,1669.0,-3.2336997432180397
1470,1670.0,-3.3878819384899543
1471,1671.0,-3.534602766463877
1472,1672.0,-3.674258169793575
1473,1673.0,-3.8072210913464914
1474,1674.0,-3.933834474210471
1475,1675.0,-4.054425261688948
1476,1676.0,-4.169293397303591
1477,1677.0,-4.278723824794497
1478,1678.0,-4.382981488120777
1479,1679.0,-4.482316331460197
1480,1680.0,-4.5769622992118
1481,1681.0,-4.667139335992715
1482,1682.0,-4.7530543866430435
1483,1683.0,-4.834901396223131
1484,1684.0,-4.91286531001424
1485,1685.0,-4.9871190735207165
1486,1686.0,-5.057823632470672
1487,1687.0,-5.125134932812216
1488,1688.0,-5.189196920719269
1489,1689.0,-5.2501475425901845
1490,1690.0,-5.308116745047073
1491,1691.0,-5.363228474936022
1492,1692.0,-5.41559667932961
1493,1693.0,-5.465334305527222
1494,1694.0,-5.512544301053822
1495,1695.0,-5.557326613660507
1496,1696.0,-5.599775191325989
1497,1697.0,-5.639978982258754
1498,1698.0,-5.67802393489319
1499,1699.0,-5.713989997893123
1500,1700.0,-5.7479551201529375
1501,1701.0,-5.779990250794299
1502,1702.0,-5.810167339171585
1503,1703.0,-5.838551334868271
1504,1704.0,-5.865206187699869
1505,1705.0,-5.89019084771212
1506,1706.0,-5.913564265184505
1507,1707.0,-5.935381390629118
1508,1708.0,-5.955693174788848
1509,1709.0,-5.974550568642144
1510,1710.0,-5.992001523401086
1511,1711.0,-6.008090990511164
1512,1712.0,-6.022863921655244
1513,1713.0,-6.0363602687480125
1514,1714.0,-6.0486219839431214
1515,1715.0,-6.059687019629564
1516,1716.0,-6.069591328432125
1517,1717.0,-6.078370863215241
1518,1718.0,-6.0860585770778926
1519,1719.0,-6.092687423359621
1520,1720.0,-6.0982873556383765
1521,1721.0,-6.10289032773062
1522,1722.0,-6.1065232936925895
1523,1723.0,-6.109213207821995
1524,1724.0,-6.110988024654489
1525,1725.0,-6.111872698969819
1526,1726.0,-6.111891185786362
1527,1727.0,-6.1110664403668125
1528,1728.0,-6.109421418214879
1529,1729.0,-6.106978075078359
1530,1730.0,-6.103757366947548
1531,1731.0,-6.099779250057281
1532,1732.0,-6.095062680886713
1533,1733.0,-6.0896266161589665
1534,1734.0,-6.083489012843074
1535,1735.0,-6.076666828155339
1536,1736.0,-6.069178019555238
1537,1737.0,-6.061036544751687
1538,1738.0,-6.052259361698816
1539,1739.0,-6.0428614286011
1540,1740.0,-6.032856703908465
1541,1741.0,-6.022259146319584
1542,1742.0,-6.011082714785061
1543,1743.0,-5.999340368502544
1544,1744.0,-5.987044066919225
1545,1745.0,-5.9742067697357015
1546,1746.0,-5.9608394369004145
1547,1747.0,-5.946954028615664
1548,1748.0,-5.932560505333868
1549,1749.0,-5.917670827760276
1550,1750.0,-5.902294956855258
1551,1751.0,-5.886441853829183
1552,1752.0,-5.8701224801477565
1553,1753.0,-5.853344797531236
1554,1754.0,-5.836118767954986
1555,1755.0,-5.818453353648692
1556,1756.0,-5.800356517097498
1557,1757.0,-5.7818362210443865
1558,1758.0,-5.762900428486773
1559,1759.0,-5.743557102681507
1560,1760.0,-5.723814207140549
1561,1761.0,-5.703677705637574
1562,1762.0,-5.683155562199772
1563,1763.0,-5.662254741118886
1564,1764.0,-5.64098120694166
1565,1765.0,-5.619341924476885
1566,1766.0,-5.597342858793354
1567,1767.0,-5.574988975221913
1568,1768.0,-5.552288239352265
1569,1769.0,-5.529245617039123
1570,1770.0,-5.505865074396979
1571,1771.0,-5.482154577803385
1572,1772.0,-5.458117093901592
1573,1773.0,-5.433758589595072
1574,1774.0,-5.409085032054463
1575,1775.0,-5.384099388713594
1576,1776.0,-5.358806627272315
1577,1777.0,-5.333212715695026
1578,1778.0,-5.307320622212046
1579,1779.0,-5.281135315323127
1580,1780.0,-5.254660763790525
1581,1781.0,-5.227900936649348
1582,1782.0,-5.200859803198455
1583,1783.0,-5.173541333005687
1584,1784.0,-5.145949495910372
1585,1785.0,-5.118087262019117
1586,1786.0,-5.089958601708531
1587,1787.0,-5.061567485626256
1588,1788.0,-5.032915884691647
1589,1789.0,-5.004008770092696
1590,1790.0,-4.974848113291273
1591,1791.0,-4.945437886021864
1592,1792.0,-4.915780060288853
1593,1793.0,-4.885877608373903
1594,1794.0,-4.855734502829364
1595,1795.0,-4.825353716482823
1596,1796.0,-4.794736222435404
1597,1797.0,-4.763885994065731
1598,1798.0,-4.732806005025623
1599,1799.0,-4.7014982292432705
1600,1800.0,-4.669964640924945
1601,1801.0,-4.638208214551696
1602,1802.0,-4.606230924884358
1603,1803.0,-4.5740357469599076
1604,1804.0,-4.541623656094771
1605,1805.0,-4.508998627883557
1606,1806.0,-4.476162638200549
1607,1807.0,-4.443115663199023
1608,1808.0,-4.409861679314417
1609,1809.0,-4.376402663262297
1610,1810.0,-4.342739592036878
1611,1811.0,-4.308874442918523
1612,1812.0,-4.27481019346601
1613,1813.0,-4.240546821522457
1614,1814.0,-4.2060883052140525
1615,1815.0,-4.171434622951438
1616,1816.0,-4.136588753426167
1617,1817.0,-4.101551675617884
1618,1818.0,-4.066324368789992
1619,1819.0,-4.0309098124917
1620,1820.0,-3.995308986555756
1621,1821.0,-3.9595228711050368
1622,1822.0,-3.92355344654743
1623,1823.0,-3.8874016935778855
1624,1824.0,-3.8510705931789744
1625,1825.0,-3.8145591266238625
1626,1826.0,-3.7778702754735605
1627,1827.0,-3.741005021575347
1628,1828.0,-3.7039643470702686
1629,1829.0,-3.666750234387564
1630,1830.0,-3.629363666248082
1631,1831.0,-3.591805625662346
1632,1832.0,-3.5540770959350994
1633,1833.0,-3.516179060660761
1634,1834.0,-3.478114503726374
1635,1835.0,-3.439881409314239
1636,1836.0,-3.4014837618979072
1637,1837.0,-3.362921546245616
1638,1838.0,-3.3241957474219817
1639,1839.0,-3.2853073507826593
1640,1840.0,-3.2462573419829823
1641,1841.0,-3.207046706969777
1642,1842.0,-3.1676764319909125
1643,1843.0,-3.128148503587454
1644,1844.0,-3.0884619085982195
1645,1845.0,-3.0486196341626055
1646,1846.0,-3.008620667715604
1647,1847.0,-2.968466996991083
1648,1848.0,-2.928158610023729
1649,1849.0,-2.887698495145287
1650,1850.0,-2.8470846409909427
1651,1851.0,-2.806320036492707
1652,1852.0,-2.7654036708881904
1653,1853.0,-2.7243385337114887
1654,1854.0,-2.6831226148037786
1655,1855.0,-2.6417599043043083
1656,1856.0,-2.600248392658159
1657,1857.0,-2.558590070614173
1658,1858.0,-2.5167849292220126
1659,1859.0,-2.474834959838063
1660,1860.0,-2.432740154124076
1661,1861.0,-2.390500504046031
1662,1862.0,-2.3481170018749253
1663,1863.0,-2.3055916401899594
1664,1864.0,-2.262923411876727
1665,1865.0,-2.2201133101257255
1666,1866.0,-2.177162328439408
1667,1867.0,-2.1340714606230904
1668,1868.0,-2.090839700795641
1669,1869.0,-2.0474690433825344
1670,1870.0,-2.003960483119954
1671,1871.0,-1.9603130150521793
1672,1872.0,-1.9165276345361235
1673,1873.0,-1.872605337238383
1674,1874.0,-1.8285471191384204
1675,1875.0,-1.7843529765268613
1676,1876.0,-1.7400229060062884
1677,1877.0,-1.6955579044924889
1678,1878.0,-1.6509589692141162
1679,1879.0,-1.6062250977165604
1680,1880.0,-1.5613582878568195
1681,1881.0,-1.5163585378049902
1682,1882.0,-1.4712258460494922
1683,1883.0,-1.4259622113950172
1684,1884.0,-1.3805656329595877
1685,1885.0,-1.3350381101804487
1686,1886.0,-1.289380642811011
1687,1887.0,-1.2435922309209673
1688,1888.0,-1.1976738749003744
1689,1889.0,-1.151625575455455
1690,1890.0,-1.1054493336164342
1691,1891.0,-1.0591441507249328
1692,1892.0,-1.0127100284507833
1693,1893.0,-0.9661479687783867
1694,1894.0,-0.9194589740172887
1695,1895.0,-0.8726430467954742
1696,1896.0,-0.8257001900624346
1697,1897.0,-0.7786304070946244
1698,1898.0,-0.7314357014852249
1699,1899.0,-0.6841140771548453
1700,1900.0,-0.6366675383465008
1701,1901.0,-0.5890970896280123
1702,1902.0,-0.54140073589042
1703,1903.0,-0.49358048235262686
1704,1904.0,-0.4456363345570935
1705,1905.0,-0.3975682983718798
1706,1906.0,-0.34937737999371166
1707,1907.0,-0.3010635859445756
1708,1908.0,-0.25262692307615
1709,1909.0,-0.2040673985657122
1710,1910.0,-0.15538601992011536
1711,1911.0,-0.10658379497590431
1712,1912.0,-0.057658731898300175
1713,1913.0,-0.008612839181751042
1714,1914.0,0.04055287434675847
1715,1915.0,0.08984039953202227
1716,1916.0,0.13924772688551457
1717,1917.0,0.18877584658866908
1718,1918.0,0.23842274848766465
1719,1919.0,0.2881894221004586
1720,1920.0,0.338075856605883
1721,1921.0,0.388081040855468
1722,1922.0,0.43820496336229553
1723,1923.0,0.48844661230486963
1724,1924.0,0.5388079755293802
1725,1925.0,0.5892860405438114
1726,1926.0,0.639882794521327
1727,1927.0,0.6905962242976784
1728,1928.0,0.7414273163735743
1729,1929.0,0.79237505690935
1730,1930.0,0.8434404317295048
1731,1931.0,0.8946214263191905
1732,1932.0,0.9459190258253329
1733,1933.0,0.9973332150552778
1734,1934.0,1.0488629784758814
1735,1935.0,1.100508300214642
1736,1936.0,1.1522691640570883
1737,1937.0,1.2041445534491686
1738,1938.0,1.2561364514931483
1739,1939.0,1.3082418409499041
1740,1940.0,1.3604627042395805
1741,1941.0,1.4127970234358145
1742,1942.0,1.4652467802707179
1743,1943.0,1.517809956131714
1744,1944.0,1.57048653206175
1745,1945.0,1.6232774887585038
1746,1946.0,1.6761808065748482
1747,1947.0,1.7291984655166743
1748,1948.0,1.7823284452447297
1749,1949.0,1.8355717250701673
1750,1950.0,1.8889272839605837
1751,1951.0,1.9423961005331876
1752,1952.0,1.9959761530567448
1753,1953.0,2.049668419451791
1754,1954.0,2.1034738772905257
1755,1955.0,2.1573895037945476
1756,1956.0,2.2114172758333552
1757,1957.0,2.2655571699283428
1758,1958.0,2.3198071622505267
1759,1959.0,2.374169228615756
1760,1960.0,2.428641344488369
1761,1961.0,2.483225484984814
1762,1962.0,2.5379186248624137
1763,1963.0,2.5927227385282094
1764,1964.0,2.6476378000356817
1765,1965.0,2.7026627830796315
1766,1966.0,2.7577966610074327
1767,1967.0,2.813041406802313
1768,1968.0,2.868394993097354
1769,1969.0,2.9238583921678583
1770,1970.0,2.979431575932267
1771,1971.0,3.0351125159513686
1772,1972.0,3.090904183427483
1773,1973.0,3.1468035492075614
1774,1974.0,3.202811583775656
1775,1975.0,3.2589292572592967
1776,1976.0,3.3151545394257482
1777,1977.0,3.371487399682337
1778,1978.0,3.427929807075998
1779,1979.0,3.484478730290448
1780,1980.0,3.5411361376513923
1781,1981.0,3.5979019971182424
1782,1982.0,3.654774276292301
1783,1983.0,3.711754942407879
1784,1984.0,3.7688419623391383
1785,1985.0,3.826036302594275
1786,1986.0,3.8833379293168946
1787,1987.0,3.940746808288168
1788,1988.0,3.9982619049201276
1789,1989.0,4.055883184262257
1790,1990.0,4.113611610996031
1791,1991.0,4.171446149437543
1792,1992.0,4.229386763532602
1793,1993.0,4.287433416862768
1794,1994.0,4.345587072640683
1795,1995.0,4.403844693708834
1796,1996.0,4.462209242540666
1797,1997.0,4.520678681241407
1798,1998.0,4.579253971545768
1799,1999.0,4.637935074818415
1800,2000.0,4.696719952049989
