pixel_index,raman_shift_cm-1,intensity
0,200.0,0.1160021311802737
1,201.0,0.11556525189224232
2,202.0,0.11510489472450303
3,203.0,0.11462019779878574
4,204.0,0.11411129891901339
5,205.0,0.11357833557170949
6,206.0,0.11302244492623004
7,207.0,0.11244176383517157
8,208.0,0.11183842883469453
9,209.0,0.11121257614485103
10,210.0,0.11056234166991175
11,211.0,0.10988986099869891
12,212.0,0.10919526940495672
13,213.0,0.10847670184762848
14,214.0,0.10773729297125101
15,215.0,0.10697517710624993
16,216.0,0.10619048826927724
17,217.0,0.10538436016356201
18,218.0,0.1045569261792636
19,219.0,0.10370731939370614
20,220.0,0.10283667257188256
21,221.0,0.10194511816663265
22,222.0,0.10103278831905271
23,223.0,0.10009981485884367
24,224.0,0.09914532930456232
25,225.0,0.09817046286408271
26,226.0,0.09717634643481432
27,227.0,0.0961611106041147
28,228.0,0.09512588564955138
29,229.0,0.09407180153934291
30,230.0,0.09299698793256539
31,231.0,0.09190357417961081
32,232.0,0.09079068932240375
33,233.0,0.08965946209485764
34,234.0,0.08850802092309351
35,235.0,0.08733849392586279
36,236.0,0.08615100891483252
37,237.0,0.08494469339496646
38,238.0,0.08371967456477591
39,239.0,0.08247707931674597
40,240.0,0.08121703423762483
41,241.0,0.07993866560877194
42,242.0,0.07864309940646308
43,243.0,0.07733046130229582
44,244.0,0.07600087666342858
45,245.0,0.0746534705529811
46,246.0,0.07329036773037245
47,247.0,0.07190969265160874
48,248.0,0.07051356946966791
49,249.0,0.0691001220348042
50,250.0,0.06767147389489025
51,251.0,0.06622674829573327
52,252.0,0.06476706818146027
53,253.0,0.06329055619481494
54,254.0,0.06179933467746679
55,255.0,0.06029352567044555
56,256.0,0.05877225091433047
57,257.0,0.05723563184972846
58,258.0,0.05568478961750856
59,259.0,0.05411984505919065
60,260.0,0.05254091871723432
61,261.0,0.0509481308354367
62,262.0,0.049340601359212144
63,263.0,0.04772044993593738
64,264.0,0.04608579591532447
65,265.0,0.04443875834972033
66,266.0,0.042777455994411184
67,267.0,0.04110400730804287
68,268.0,0.03941853045287047
69,269.0,0.03772014329515372
70,270.0,0.03600896340548587
71,271.0,0.03428610805904242
72,272.0,0.032550694236064714
73,273.0,0.03080383862204883
74,274.0,0.029045657608193665
75,275.0,0.02727626729165422
76,276.0,0.025494783475934923
77,277.0,0.02370332167118505
78,278.0,0.021900997094547847
79,279.0,0.02008792467051279
80,280.0,0.018264219031216555
81,281.0,0.016430994516788644
82,282.0,0.014587365175707134
83,283.0,0.012733444765110846
84,284.0,0.0108713467511663
85,285.0,0.008999184309324448
86,286.0,0.007117070324760277
87,287.0,0.0052271173926286
88,288.0,0.003328437818453267
89,289.0,0.0014211436184083936
90,290.0,-0.0004956534803213231
91,291.0,-0.002418842039169533
92,292.0,-0.004351310907935613
93,293.0,-0.0062899492243531085
94,294.0,-0.008237646413846278
95,295.0,-0.01019129218913406
96,296.0,-0.012152776549889666
97,297.0,-0.014120989782490767
98,298.0,-0.01609582245957597
99,299.0,-0.01807616543975854
100,300.0,-0.020063909867332086
101,301.0,-0.02205694717182638
102,302.0,-0.02405516906780747
103,303.0,-0.02605946755444677
104,304.0,-0.028068734915223104
105,305.0,-0.03008386371755023
106,306.0,-0.03210274681254788
107,307.0,-0.034126277334522115
108,308.0,-0.036154348700854655
109,309.0,-0.038186854611467425
110,310.0,-0.040222689048597715
111,311.0,-0.042262746276470864
112,312.0,-0.04430492084089366
113,313.0,-0.04635110756898797
114,314.0,-0.048400201568789214
115,315.0,-0.05045209822899466
116,316.0,-0.05250569321854215
117,317.0,-0.05456188248637517
118,318.0,-0.056619562260991074
119,319.0,-0.05867862905017063
120,320.0,-0.06073997964068667
121,321.0,-0.06280151109785947
122,322.0,-0.06486412076531423
123,323.0,-0.06692770626462874
124,324.0,-0.06899116549496398
125,325.0,-0.07105539663272253
126,326.0,-0.07311829813131254
127,327.0,-0.07518176872064686
128,328.0,-0.07724370740699271
129,329.0,-0.07930401347250893
130,330.0,-0.0813635864749358
131,331.0,-0.0834223262472591
132,332.0,-0.08547813289749229
133,333.0,-0.0875319068080671
134,334.0,-0.08958354863585072
135,335.0,-0.09163195931149204
136,336.0,-0.09367704003928878
137,337.0,-0.0957186922968063
138,338.0,-0.09775681783447965
139,339.0,-0.09979131867535074
140,340.0,-0.10182109711469423
141,341.0,-0.10384605571971406
142,342.0,-0.1058660973291623
143,343.0,-0.10788112505308334
144,344.0,-0.10989104227237334
145,345.0,-0.11189375263852952
146,346.0,-0.11389116007328681
147,347.0,-0.1158811687682757
148,348.0,-0.11786468318467769
149,349.0,-0.11984060805295371
150,350.0,-0.12180884837241024
151,351.0,-0.1237693094109531
152,352.0,-0.12572089670470632
153,353.0,-0.12766351605766602
154,354.0,-0.12959807354140906
155,355.0,-0.13152247549476925
156,356.0,-0.13343662852339122
157,357.0,-0.13534143949954114
158,358.0,-0.13723481556165495
159,359.0,-0.1391176641141314
160,360.0,-0.1409878928267787
161,361.0,-0.1428474096347614
162,362.0,-0.14469412273805915
163,363.0,-0.1465289406012289
164,364.0,-0.14834977195297938
165,365.0,-0.15015752578592156
166,366.0,-0.15195011135628533
167,367.0,-0.15372943818336893
168,368.0,-0.15549341604942413
169,369.0,-0.1572429549992549
170,370.0,-0.1589759653398204
171,371.0,-0.16069235763995238
172,372.0,-0.16239304273003086
173,373.0,-0.16407493170162013
174,374.0,-0.16574093590718775
175,375.0,-0.16738696695965416
176,376.0,-0.16901593673220816
177,377.0,-0.1706247573577997
178,378.0,-0.17221334122903897
179,379.0,-0.17378260099759757
180,380.0,-0.17533044957406219
181,381.0,-0.17685680012752414
182,382.0,-0.17836156608525755
183,383.0,-0.17984366113240924
184,384.0,-0.18130199921158408
185,385.0,-0.18273749452261256
186,386.0,-0.18414806152219398
187,387.0,-0.1855346149234265
188,388.0,-0.18689506969570857
189,389.0,-0.18822934106421485
190,390.0,-0.18953634450961943
191,391.0,-0.1908169957678325
192,392.0,-0.19206821082947556
193,393.0,-0.19329190593981593
194,394.0,-0.19448499759815263
195,395.0,-0.19564840255772253
196,396.0,-0.19678103782516132
197,397.0,-0.19788182066038473
198,398.0,-0.19895066857603183
199,399.0,-0.1999854993372736
200,400.0,-0.20098723096141669
201,401.0,-0.20195278171765096
202,402.0,-0.20288407012658638
203,403.0,-0.20377901495994877
204,404.0,-0.20463653524042513
205,405.0,-0.20545555024108353
206,406.0,-0.20623597948510053
207,407.0,-0.20697574274555564
208,408.0,-0.20767576004497812
209,409.0,-0.2083339516550211
210,410.0,-0.2089492380961815
211,411.0,-0.20952054013736188
212,412.0,-0.21004777879566916
213,413.0,-0.21052987533602163
214,414.0,-0.21096475127072267
215,415.0,-0.21135132835929937
216,416.0,-0.21168952860803358
217,417.0,-0.21197827426969695
218,418.0,-0.21221548784315303
219,419.0,-0.21240109207307967
220,420.0,-0.21253300994963809
221,421.0,-0.21261016470805316
222,422.0,-0.21263147982844544
223,423.0,-0.21259587903526267
224,424.0,-0.2125012862971829
225,425.0,-0.21234762582659528
226,426.0,-0.21213282207936857
227,427.0,-0.21185479975451926
228,428.0,-0.2115134837937802
229,429.0,-0.21110679938138333
230,430.0,-0.210632671943614
231,431.0,-0.21009102714862138
232,432.0,-0.2094787909059619
233,433.0,-0.20879488936624568
234,434.0,-0.20803824892088585
235,435.0,-0.20720579620176238
236,436.0,-0.2062974580808543
237,437.0,-0.20531016166988536
238,438.0,-0.20424283431999868
239,439.0,-0.2030934036214802
240,440.0,-0.20185979740332982
241,441.0,-0.20053994373301975
242,442.0,-0.19913177091608247
243,443.0,-0.1976342074958808
244,444.0,-0.1960431822530495
245,445.0,-0.1943586242055062
246,446.0,-0.19257646260777506
247,447.0,-0.1906956269508555
248,448.0,-0.18871304696180857
249,449.0,-0.18662665260352185
250,450.0,-0.18443337407416038
251,451.0,-0.1821311418071332
252,452.0,-0.1797168864704446
253,453.0,-0.1771885389665897
254,454.0,-0.17454303043216157
255,455.0,-0.17177629223739643
256,456.0,-0.16888725598606413
257,457.0,-0.16587085351488895
258,458.0,-0.16272501689340402
259,459.0,-0.15944767842350416
260,460.0,-0.1560327706392144
261,461.0,-0.15247822630620078
262,462.0,-0.14878097842159832
263,463.0,-0.14493696021352775
264,464.0,-0.14094110514099611
265,465.0,-0.13679134689314765
266,466.0,-0.1324826193894495
267,467.0,-0.12801085677894264
268,468.0,-0.12337199344005967
269,469.0,-0.11856096398035731
270,470.0,-0.1135747032360257
271,471.0,-0.10840614627173295
272,472.0,-0.10305222838012185
273,473.0,-0.09750688508151484
274,474.0,-0.09176505212376185
275,475.0,-0.0858216654816033
276,476.0,-0.07967066135657319
277,477.0,-0.0733059761765702
278,478.0,-0.06672254659548571
279,479.0,-0.0599143094929957
280,480.0,-0.05287320197405165
281,481.0,-0.045594161368796904
282,482.0,-0.038069125231842804
283,483.0,-0.030292031342327164
284,484.0,-0.022254817703441176
285,485.0,-0.013949422541969625
286,486.0,-0.0053687843081036135
287,487.0,0.003496158324921339
288,488.0,0.012653466461202356
289,489.0,0.02211220098243416
290,490.0,0.031881422548380556
291,491.0,0.04197019159707338
292,492.0,0.05238956834513431
293,493.0,0.06314961278820874
294,494.0,0.07426138470134447
295,495.0,0.08573494363909617
296,496.0,0.09758334893609799
297,497.0,0.10981665970727761
298,498.0,0.12244993484823397
299,499.0,0.1354942330355442
300,500.0,0.1489646127270703
301,501.0,0.16287413216245739
302,502.0,0.17723884936322065
303,503.0,0.19207282213321264
304,504.0,0.20739310805909383
305,505.0,0.22321676451038286
306,506.0,0.23955984863994217
307,507.0,0.25644241738436335
308,508.0,0.27388152746422634
309,509.0,0.2918992353843919
310,510.0,0.3105155974345024
311,511.0,0.32975266968918504
312,512.0,0.34963250800826984
313,513.0,0.37017916803743844
314,514.0,0.3914177052083403
315,515.0,0.4133751747388885
316,516.0,0.43607763163382174
317,517.0,0.45955513068480514
318,518.0,0.48383672647084097
319,519.0,0.5089554733586539
320,520.0,0.5349434255030303
321,521.0,0.5618346368470242
322,522.0,0.5896681611225176
323,523.0,0.6184800518502414
324,524.0,0.6483133623403887
325,525.0,0.6792081456929111
326,526.0,0.7112114547977058
327,527.0,0.7443693423349913
328,528.0,0.7787318607758067
329,529.0,0.8143520623821416
330,530.0,0.8512849992074507
331,531.0,0.8895897230967762
332,532.0,0.9293282856872338
333,533.0,0.9705657384083963
334,534.0,1.0133711324824617
335,535.0,1.0578175189246792
336,536.0,1.1039829485437167
337,537.0,1.1519504719420013
338,538.0,1.201807139515779
339,539.0,1.2536440014560242
340,540.0,1.307561107748171
341,541.0,1.36366250817278
342,542.0,1.4220602523058687
343,543.0,1.482870389519121
344,544.0,1.546221968980234
345,545.0,1.6122470396533402
346,546.0,1.6810916502993791
347,547.0,1.7529068494762043
348,548.0,1.8278576855391577
349,549.0,1.9061192066413355
350,550.0,1.987878460733839
351,551.0,2.0733374955662214
352,552.0,2.162712358686747
353,553.0,2.2562350974427545
354,554.0,2.3541537589809423
355,555.0,2.4567373902478664
356,556.0,2.564275037990086
357,557.0,2.6770787487545533
358,558.0,2.795483568888983
359,559.0,2.9198555445422016
360,560.0,3.050587721664442
361,561.0,3.188106146007641
362,562.0,3.3328738631259114
363,563.0,3.4853959183757297
364,564.0,3.646218356916279
365,565.0,3.8159372237098523
366,566.0,3.9952055635223473
367,567.0,4.184733420923095
368,568.0,4.385299840285825
369,569.0,4.597757865788481
370,570.0,4.823046541413987
371,571.0,5.062196910950092
372,572.0,5.316344017990247
373,573.0,5.586744905933443
374,574.0,5.8747876179849925
375,575.0,6.182010197156444
376,576.0,6.510123686266326
377,577.0,6.86103012794004
378,578.0,7.236853564610556
379,579.0,7.639969038518757
380,580.0,8.073038591713384
381,581.0,8.539055266051719
382,582.0,9.041391103199885
383,583.0,9.583859144633152
384,584.0,10.17077743163614
385,585.0,10.80705800530319
386,586.0,11.498301906538956
387,587.0,12.25091817605849
388,588.0,13.072264854387498
389,589.0,13.970821981863054
390,590.0,14.956399598633482
391,591.0,16.04038974465894
392,592.0,17.236082459711724
393,593.0,18.559040783376787
394,594.0,20.027583755051552
395,595.0,21.663371413946862
396,596.0,23.492148799086806
397,597.0,25.544672949309472
398,598.0,27.85789590326698
399,599.0,30.476465699425887
400,600.0,33.45464837606772
401,601.0,36.85880697128903
402,602.0,40.77059752300167
403,603.0,45.29112506893375
404,604.0,50.54633964662912
405,605.0,56.69404029344835
406,606.0,63.93292604656878
407,607.0,72.5141339429847
408,608.0,82.75558101950833
409,609.0,95.05887631276914
410,610.0,109.92719685921537
411,611.0,127.97909769511313
412,612.0,149.94594985654788
413,613.0,176.62594337942403
414,614.0,208.74125229946537
415,615.0,246.6077856522157
416,616.0,289.50586547303897
417,617.0,334.7343567971195
418,618.0,376.7320996594626
419,619.0,407.37851209489475
420,620.0,418.72764813806367
421,621.0,407.37410282343944
422,622.0,376.72328218531356
423,623.0,334.72113125780083
424,624.0,289.4882330748384
425,625.0,246.58574767018675
426,626.0,208.71481007742992
427,627.0,176.5951003299757
428,628.0,149.9107074610561
429,629.0,127.93945950372773
430,630.0,109.88316749087187
431,631.0,95.01045845519516
432,632.0,82.7027784292298
433,633.0,72.4569524453336
434,634.0,63.87136853569078
435,635.0,56.62811373231207
436,636.0,50.47604906703495
437,637.0,45.21647757152428
438,638.0,40.69159827727219
439,639.0,36.775463215598876
440,640.0,33.3669674176528
441,641.0,30.384454914410725
442,642.0,27.76156373667834
443,643.0,25.444026915090774
444,644.0,23.387198480112517
445,645.0,21.554126462037885
446,646.0,19.914052890991513
447,647.0,18.441233796928543
448,648.0,17.114010209634955
449,649.0,15.91406415872811
450,650.0,14.825829673656614
451,651.0,13.836020783701258
452,652.0,12.93324351797483
453,653.0,12.107689905422916
454,654.0,11.350879974823783
455,655.0,10.655453754789107
456,656.0,10.015005273763819
457,657.0,9.423933560027052
458,658.0,8.877326641692065
459,659.0,8.370866546706537
460,660.0,7.900740302853393
461,661.0,7.463577937750472
462,662.0,7.056385478851183
463,663.0,6.676501953445097
464,664.0,6.321551388657895
465,665.0,5.989412811451558
466,666.0,5.67818224862549
467,667.0,5.386149726815972
468,668.0,5.111778272496963
469,669.0,4.853678911980268
470,670.0,4.6105976714160875
471,671.0,4.381397576793091
472,672.0,4.1650476539388706
473,673.0,3.9606119285203363
474,674.0,3.7672354260438397
475,675.0,3.5841411718559186
476,676.0,3.4106171911430465
477,677.0,3.2460145089325465
478,678.0,3.0897351500925936
479,679.0,2.9412341393324652
480,680.0,2.8000065012031996
481,681.0,2.6655902600977868
482,682.0,2.53756044025144
483,683.0,2.415522065741925
484,684.0,2.299112160489898
485,685.0,2.1879957482595103
486,686.0,2.0818598526582264
487,687.0,1.9804174971377506
488,688.0,1.8834007049936758
489,689.0,1.790559499366708
490,690.0,1.7016639032419505
491,691.0,1.6164979394502268
492,692.0,1.5348606306677937
493,693.0,1.4565659994167959
494,694.0,1.3814380680657905
495,695.0,1.309314858829822
496,696.0,1.2400413937710937
497,697.0,1.1734776947987768
498,698.0,1.1094867836700075
499,699.0,1.047945681989603
500,700.0,0.9887354112108824
501,701.0,0.9317449926356289
502,702.0,0.8768714474147146
503,703.0,0.8240157965481956
504,704.0,0.773087060885814
505,705.0,0.723998261127349
506,706.0,0.6766674178228129
507,707.0,0.6310185513727049
508,708.0,0.5869776820288166
509,709.0,0.5444768298940232
510,710.0,0.5034520149228001
511,711.0,0.4638402569217135
512,712.0,0.42558557554977483
513,713.0,0.38863099031831894
514,714.0,0.35292752059183385
515,715.0,0.31842318558813076
516,716.0,0.28507300437860295
517,717.0,0.2528319958886698
518,718.0,0.22165917889824982
519,719.0,0.19151357204145825
520,720.0,0.1623591938078448
521,721.0,0.13415806254209883
522,722.0,0.10687719644457161
523,723.0,0.08048461357157066
524,724.0,0.05494833183590231
525,725.0,0.03024036900674787
526,726.0,0.006331742710614208
527,727.0,-0.016804529568901216
528,728.0,-0.0391914304904617
529,729.0,-0.06085594285468687
530,730.0,-0.08181904960389375
531,731.0,-0.10210373382187754
532,732.0,-0.12172997873301483
533,733.0,-0.14071876770276504
534,734.0,-0.15908808423671417
535,735.0,-0.17685691198039422
536,736.0,-0.19404223471923387
537,737.0,-0.21066003637770336
538,738.0,-0.22672630101936875
539,739.0,-0.24225701284655088
540,740.0,-0.2572661561994778
541,741.0,-0.27176671555713483
542,742.0,-0.2857726755353269
543,743.0,-0.29929602088759566
544,744.0,-0.31234973650447273
545,745.0,-0.3249438074129216
546,746.0,-0.3370892187762706
547,747.0,-0.3487979558941561
548,748.0,-0.3600790042013955
549,749.0,-0.37094234926837544
550,750.0,-0.3813959768001496
551,751.0,-0.39144987263676967
552,752.0,-0.4011120227523861
553,753.0,-0.4103894132553023
554,754.0,-0.4192910303870576
555,755.0,-0.4278228605228378
556,756.0,-0.43599289017078036
557,757.0,-0.4438071059713593
558,758.0,-0.4512714946976075
559,759.0,-0.45839304325437524
560,760.0,-0.4651767386782808
561,761.0,-0.47162756813690976
562,762.0,-0.47775051892921283
563,763.0,-0.483551578484537
564,764.0,-0.4890347343624626
565,765.0,-0.4942049742525114
566,766.0,-0.4990652859739839
567,767.0,-0.50362065747521
568,768.0,-0.5078740768336729
569,769.0,-0.51182953225549
570,770.0,-0.51549101207479
571,771.0,-0.5188595047538911
572,772.0,-0.5219399988824875
573,773.0,-0.5247334831777835
574,774.0,-0.5272439464836225
575,775.0,-0.5294733777708416
576,776.0,-0.5314237661361858
577,777.0,-0.533097100802479
578,778.0,-0.5344953711178846
579,779.0,-0.5356205665565312
580,780.0,-0.536472676716528
581,781.0,-0.5370546913210887
582,782.0,-0.5373676002179195
583,783.0,-0.5374123933780197
584,784.0,-0.5371890608963668
585,785.0,-0.5366995929913401
586,786.0,-0.5359439800035943
587,787.0,-0.5349232123970751
588,788.0,-0.533636280757662
589,789.0,-0.5320851757929859
590,790.0,-0.5302688883325004
591,791.0,-0.5281874093267334
592,792.0,-0.5258407298473458
593,793.0,-0.5232278410862818
594,794.0,-0.5203497343558183
595,795.0,-0.517205401088404
596,796.0,-0.513792832835577
597,797.0,-0.5101120212682417
598,798.0,-0.5061619581766195
599,799.0,-0.5019416354689383
600,800.0,-0.4974490451720044
601,801.0,-0.4926841794302277
602,802.0,-0.4876440305060328
603,803.0,-0.48232759077848186
604,804.0,-0.47673285274390764
605,805.0,-0.4708578090150013
606,806.0,-0.4647014523209805
607,807.0,-0.45825977550657626
608,808.0,-0.451530771532191
609,809.0,-0.44451343347355987
610,810.0,-0.4372037545211924
611,811.0,-0.429599727980019
612,812.0,-0.4216973472694576
613,813.0,-0.41349360592261064
614,814.0,-0.40498649758603733
615,815.0,-0.3961720160197615
616,816.0,-0.38704615509658424
617,817.0,-0.3776059088016268
618,818.0,-0.36784627123233804
619,819.0,-0.35776423659825696
620,820.0,-0.34735579922011084
621,821.0,-0.33661495352998827
622,822.0,-0.3255396940708124
623,823.0,-0.3141220154959683
624,824.0,-0.3023599125692158
625,825.0,-0.2902473801639758
626,826.0,-0.27777741326326577
627,827.0,-0.26494700695934625
628,828.0,-0.2517491564531156
629,829.0,-0.23817785705415417
630,830.0,-0.2242261041802749
631,831.0,-0.2098898933571718
632,832.0,-0.19516122021764204
633,833.0,-0.18003308050219857
634,834.0,-0.16449847005787888
635,835.0,-0.14854938483830438
636,836.0,-0.13217982090338865
637,837.0,-0.11538177441849484
638,838.0,-0.09814524165483363
639,839.0,-0.08046421898882272
640,840.0,-0.06232770290148437
641,841.0,-0.043728689978536295
642,842.0,-0.024656176909672922
643,843.0,-0.005101160488493406
644,844.0,0.014945362387891237
645,845.0,0.0354943947190236
646,846.0,0.056557939402182456
647,847.0,0.07814499923148333
648,848.0,0.10026757689928445
649,849.0,0.12293867499619182
650,850.0,0.14616929601095308
651,851.0,0.16997244233141373
652,852.0,0.19436111624480645
653,853.0,0.21934931993746432
654,854.0,0.24495005549573534
655,855.0,0.2711783249064297
656,856.0,0.2980501300563674
657,857.0,0.3255804727337477
658,858.0,0.3537843546274644
659,859.0,0.3826797773285193
660,860.0,0.412283742329123
661,861.0,0.44261425102433805
662,862.0,0.47368930471134263
663,863.0,0.5055279045901102
664,864.0,0.5381510517642027
665,865.0,0.5715797472405484
666,866.0,0.6058339919297282
667,867.0,0.6409367866469324
668,868.0,0.6769111321113428
669,869.0,0.7137810289478921
670,870.0,0.7515704776856751
671,871.0,0.7903064787600442
672,872.0,0.8300150325121081
673,873.0,0.8707251391891191
674,874.0,0.9124637989448274
675,875.0,0.9552630118399748
676,876.0,0.9991517778425987
677,877.0,1.0441640968277284
678,878.0,1.0903329685792187
679,879.0,1.1376943927885463
680,880.0,1.1862833690557295
681,881.0,1.2361398968899948
682,882.0,1.2873009757094565
683,883.0,1.3398096048421166
684,884.0,1.3937087835256534
685,885.0,1.4490425109079865
686,886.0,1.5058567860478433
687,887.0,1.5642006079145858
688,888.0,1.624125975388779
689,889.0,1.6856838872628828
690,890.0,1.7489313422410646
691,891.0,1.8139243389397848
692,892.0,1.8807228758878978
693,893.0,1.9493919515275593
694,894.0,2.0199955642137297
695,895.0,2.0926027122151254
696,896.0,2.167286393714619
697,897.0,2.2441206068090764
698,898.0,2.32318534950997
699,899.0,2.404562619743672
700,900.0,2.488338415352132
701,901.0,2.574604734092304
702,902.0,2.6634565736377454
703,903.0,2.75499293157759
704,904.0,2.849318805418136
705,905.0,2.9465451925822777
706,906.0,3.04678809041053
707,907.0,3.1501684961602905
708,908.0,3.2568154070079913
709,909.0,3.3668628200472313
710,910.0,3.4804527322907575
711,911.0,3.5977361406706336
712,912.0,3.71886904203717
713,913.0,3.8440194331611224
714,914.0,3.97336231073308
715,915.0,4.107083671363625
716,916.0,4.24537951158436
717,917.0,4.388457827847162
718,918.0,4.53653661652595
719,919.0,4.689850873915873
720,920.0,4.848644596234124
721,921.0,5.013180779620086
722,922.0,5.183736420135801
723,923.0,5.360605513766529
724,924.0,5.544101056420288
725,925.0,5.734556043929388
726,926.0,5.932324472049231
727,927.0,6.137785336460695
728,928.0,6.351338632768204
729,929.0,6.5734153565015845
730,930.0,6.804474503116296
731,931.0,7.04500506799269
732,932.0,7.295532046437643
733,933.0,7.556618433684321
734,934.0,7.82886422489247
735,935.0,8.112918415148386
736,936.0,8.409473999466286
737,937.0,8.71927797278778
738,938.0,9.043134329982536
739,939.0,9.381910065848274
740,940.0,9.73654017511177
741,941.0,10.108034652428444
742,942.0,10.49748649238336
743,943.0,10.906078689490755
744,944.0,11.335097238195203
745,945.0,11.785934132871716
746,946.0,12.260106367825813
747,947.0,12.759265937293776
748,948.0,13.285214835443583
749,949.0,13.839921056374749
750,950.0,14.425539594118732
751,951.0,15.044429442639284
752,952.0,15.69918459583306
753,953.0,16.39265804752938
754,954.0,17.127991791491297
755,955.0,17.90865682141515
756,956.0,18.738495130931256
757,957.0,19.621763713605105
758,958.0,20.56319556293556
759,959.0,21.568061672357544
760,960.0,22.642246035241044
761,961.0,23.7923336448913
762,962.0,25.025713494550132
763,963.0,26.350699577395517
764,964.0,27.776669886541924
765,965.0,29.314236415041194
766,966.0,30.97544415588243
767,967.0,32.77400710199214
768,968.0,34.725593246234894
769,969.0,36.848163581414155
770,970.0,39.16238610027153
771,971.0,41.69213279548791
772,972.0,44.465088659683374
773,973.0,47.513498685417915
774,974.0,50.875083865191414
775,975.0,54.59417319144421
776,976.0,58.72312365655722
777,977.0,63.32408325285252
778,978.0,68.4712159725936
779,979.0,74.25352380798552
780,980.0,80.77842875117528
781,981.0,88.17636479425278
782,982.0,96.6066899292498
783,983.0,106.26531314814213
784,984.0,117.39460544284816
785,985.0,130.2962648052304
786,986.0,145.3480202270955
787,987.0,163.02520470019397
788,988.0,183.92825921622148
789,989.0,208.81690376681888
790,990.0,238.6504673435718
791,991.0,274.6304759380123
792,992.0,318.2335985416181
793,993.0,371.20561414581346
794,994.0,435.45196874196915
795,995.0,512.6977773214032
796,996.0,603.7016428753815
797,997.0,706.7573783951166
798,998.0,815.4421038717697
799,999.0,916.5246002964509
800,1000.0,990.6812556602183
801,1001.0,1019.0059969540794
802,1002.0,993.4056401689904
803,1003.0,922.0056942958593
804,1004.0,823.7454633255414
805,1005.0,717.9836582488448
806,1006.0,617.9895020565264
807,1007.0,530.2279837392957
808,1008.0,456.4529072878132
809,1009.0,395.96049469269053
810,1010.0,347.08975794449213
811,1011.0,308.0113110337347
812,1012.0,277.07069895088716
813,1013.0,252.90210568637247
814,1014.0,234.43989723056643
815,1015.0,220.89279157379838
816,1016.0,211.7104967063524
817,1017.0,206.55527061846647
818,1018.0,205.2828943003335
819,1019.0,207.9339737421019
820,1020.0,214.73455593387473
821,1021.0,226.10283786571142
822,1022.0,242.6544165276274
823,1023.0,265.1890399095946
824,1024.0,294.62275500154124
825,1025.0,331.7949647933534
826,1026.0,377.03138727487385
827,1027.0,429.3163564359037
828,1028.0,485.05138426620215
829,1029.0,536.9024307554866
830,1030.0,574.1917928934331
831,1031.0,586.4770106696772
832,1032.0,569.2669930738139
833,1033.0,526.9940810953976
834,1034.0,470.04033072394316
835,1035.0,409.0196549489259
836,1036.0,351.1970107597816
837,1037.0,300.0943501459079
838,1038.0,256.640781096663
839,1039.0,220.41092860136723
840,1040.0,190.44881164930348
841,1041.0,165.7001182297165
842,1042.0,145.19907933181423
843,1043.0,128.12856594476784
844,1044.0,113.82333005771136
845,1045.0,101.75180865974312
846,1046.0,91.49264173992572
847,1047.0,82.71243828728575
848,1048.0,75.14693929081511
849,1049.0,68.5858527394704
850,1050.0,62.86095262217418
851,1051.0,57.83686592781453
852,1052.0,53.40397064524552
853,1053.0,49.472924763288006
854,1054.0,45.97044827072966
855,1055.0,42.836060156325175
856,1056.0,40.019536408796625
857,1057.0,37.47892201683419
858,1058.0,35.17897796909608
859,1059.0,33.08993825420907
860,1060.0,31.186535860768572
861,1061.0,29.447211777339476
862,1062.0,27.85348899245571
863,1063.0,26.389458494621522
864,1064.0,25.04136327231106
865,1065.0,23.79726231396876
866,1066.0,22.646748608010626
867,1067.0,21.580721142823222
868,1068.0,20.59119290676483
869,1069.0,19.67112788816553
870,1070.0,18.814317075327153
871,1071.0,18.01525645652532
872,1072.0,17.269060020006805
873,1073.0,16.571375753992925
874,1074.0,15.918317646677906
875,1075.0,15.306412686229692
876,1076.0,14.732542860790772
877,1077.0,14.193910158478388
878,1078.0,13.687996567383607
879,1079.0,13.212533075574015
880,1080.0,12.765472671091743
881,1081.0,12.34496434195512
882,1082.0,11.949336076158488
883,1083.0,11.577073861673398
884,1084.0,11.22680868644727
885,1085.0,10.897300538405602
886,1086.0,10.587426405450742
887,1087.0,10.2961742754635
888,1088.0,10.022626136302392
889,1089.0,9.765959975804776
890,1090.0,9.525432781786776
891,1091.0,9.300382542043508
892,1092.0,9.09021824435058
893,1093.0,8.894417876462057
894,1094.0,8.712526426112959
895,1095.0,8.544146881019174
896,1096.0,8.388944228877335
897,1097.0,8.246641457364376
898,1098.0,8.117015554140153
899,1099.0,7.999902506845501
900,1100.0,7.895191303103616
901,1101.0,7.802827930520493
902,1102.0,7.722815376684707
903,1103.0,7.655216629168763
904,1104.0,7.600153675527849
905,1105.0,7.557811503301309
906,1106.0,7.528447100012954
907,1107.0,7.512385453171191
908,1108.0,7.510031550268877
909,1109.0,7.52187437878456
910,1110.0,7.548495926182454
911,1111.0,7.590579179912197
912,1112.0,7.6489231274097165
913,1113.0,7.724451756098006
914,1114.0,7.818229053386631
915,1115.0,7.931482006672468
916,1116.0,8.065619603339542
917,1117.0,8.22225783076044
918,1118.0,8.403247676296132
919,1119.0,8.61071912729517
920,1120.0,8.847115171096107
921,1121.0,9.115247795026107
922,1122.0,9.418356986402273
923,1123.0,9.760187732531222
924,1124.0,10.145078020710457
925,1125.0,10.578064838227306
926,1126.0,11.065023172360384
927,1127.0,11.612821010380003
928,1128.0,12.229526339547533
929,1129.0,12.924652147116262
930,1130.0,13.709467420331976
931,1131.0,14.597380146433125
932,1132.0,15.604432312650829
933,1133.0,16.749910906209607
934,1134.0,18.057136914327657
935,1135.0,19.55447432421704
936,1136.0,21.276624123083934
937,1137.0,23.26630329812963
938,1138.0,25.576415836550154
939,1139.0,28.272883725536076
940,1140.0,31.43831395227494
941,1141.0,35.176739503948966
942,1142.0,39.61966136773742
943,1143.0,44.93356353081617
944,1144.0,51.32877098035772
945,1145.0,59.06881170353165
946,1146.0,68.47765268750572
947,1147.0,79.93835491944583
948,1148.0,93.86898238651531
949,1149.0,110.64778107587654
950,1150.0,130.44019597469116
951,1151.0,152.8692200701198
952,1152.0,176.51994134932318
953,1153.0,198.47934379946093
954,1154.0,214.49375940769403
955,1155.0,220.40100016118367
956,1156.0,214.417254047092
957,1157.0,198.32628105258254
958,1158.0,176.29021816482077
959,1159.0,152.56268137097345
960,1160.0,130.05663565821033
961,1161.0,110.18693901370318
962,1162.0,93.33054742462753
963,1163.0,79.32196087816135
964,1164.0,67.78288136148694
965,1165.0,58.29518886179028
966,1166.0,50.475766366262064
967,1167.0,44.00059086209683
968,1168.0,38.60607833649476
969,1169.0,34.08184377666146
970,1170.0,30.261344169807785
971,1171.0,27.01301750315065
972,1172.0,24.232766763913446
973,1173.0,21.837921939326293
974,1174.0,19.762495016625735
975,1175.0,17.953513983056723
976,1176.0,16.368191825871236
977,1177.0,14.971757532328866
978,1178.0,13.735771089698233
979,1179.0,12.636834485256259
980,1180.0,11.655581706289126
981,1181.0,10.775889740092225
982,1182.0,9.984263573970225
983,1183.0,9.269347195238879
984,1184.0,8.62153459122294
985,1185.0,8.032663749259314
986,1186.0,7.495764656694291
987,1187.0,7.004860300887117
988,1188.0,6.5548046692069875
989,1189.0,6.141145749037264
990,1190.0,5.760022527771639
991,1191.0,5.408068992818016
992,1192.0,5.08234413159596
993,1193.0,4.780268931539695
994,1194.0,4.499571380096199
995,1195.0,4.238248464727008
996,1196.0,3.994528172907849
997,1197.0,3.7668354921294167
998,1198.0,3.5537694098965176
999,1199.0,3.3540799137306294
1000,1200.0,3.166647991167906
1001,1201.0,2.990471629761373
1002,1202.0,2.8246508170796005
1003,1203.0,2.668371540708563
1004,1204.0,2.5209027882506234
1005,1205.0,2.381581547326391
1006,1206.0,2.2498088055732524
1007,1207.0,2.125037550647221
1008,1208.0,2.0067727702225966
1009,1209.0,1.8945624519922148
1010,1210.0,1.7879955836684758
1011,1211.0,1.6866931529822295
1012,1212.0,1.5903121476852675
1013,1213.0,1.4985355555484148
1014,1214.0,1.4110723643633492
1015,1215.0,1.3276545619423814
1016,1216.0,1.24803813611868
1017,1217.0,1.171993074747661
1018,1218.0,1.0993123657052593
1019,1219.0,1.0298009968903443
1020,1220.0,0.9632789562238031
1021,1221.0,0.899581231649563
1022,1222.0,0.8385528111342637
1023,1223.0,0.7800496826678227
1024,1224.0,0.7239408342650222
1025,1225.0,0.6700992539629169
1026,1226.0,0.6184109298246767
1027,1227.0,0.5687678499371032
1028,1228.0,0.5210700024126709
1029,1229.0,0.47522137538896914
1030,1230.0,0.4311359570294826
1031,1231.0,0.38873073552395
1032,1232.0,0.34792769908767696
1033,1233.0,0.308654835964262
1034,1234.0,0.27084513442264324
1035,1235.0,0.23443358276097115
1036,1236.0,0.19936116930318803
1037,1237.0,0.16557188240312826
1038,1238.0,0.1330107104419085
1039,1239.0,0.10162964182995893
1040,1240.0,0.07138066500681362
1041,1241.0,0.04221976844053188
1042,1242.0,0.014103940630889156
1043,1243.0,-0.013003829894387309
1044,1244.0,-0.03914355457573038
1045,1245.0,-0.06434924482334736
1046,1246.0,-0.08865491201640907
1047,1247.0,-0.11209156750214788
1048,1248.0,-0.13468922259687588
1049,1249.0,-0.15647588858382733
1050,1250.0,-0.17747957671406311
1051,1251.0,-0.19772329820659706
1052,1252.0,-0.2172340642459858
1053,1253.0,-0.23603188598497127
1054,1254.0,-0.2541397745409313
1055,1255.0,-0.2715787409980521
1056,1256.0,-0.28836679640585317
1057,1257.0,-0.30452395177917424
1058,1258.0,-0.32006721809739247
1059,1259.0,-0.3350116063048745
1060,1260.0,-0.3493751273095995
1061,1261.0,-0.3631717919837456
1062,1262.0,-0.3764156111635657
1063,1263.0,-0.3891205956472277
1064,1264.0,-0.40129975619743163
1065,1265.0,-0.4129631035378907
1066,1266.0,-0.4241246483551322
1067,1267.0,-0.4347944012974949
1068,1268.0,-0.44498337297522994
1069,1269.0,-0.4546995739591466
1070,1270.0,-0.4639540147811658
1071,1271.0,-0.47275370593411026
1072,1272.0,-0.48110865787009516
1073,1273.0,-0.48902588100213507
1074,1274.0,-0.4965133857019737
1075,1275.0,-0.5035771823007735
1076,1276.0,-0.5102242810886537
1077,1277.0,-0.5164606923144675
1078,1278.0,-0.5222924261843218
1079,1279.0,-0.5277234928632879
1080,1280.0,-0.5327609024731146
1081,1281.0,-0.5374086650936079
1082,1282.0,-0.5416707907603495
1083,1283.0,-0.5455512894661751
1084,1284.0,-0.5490541711596961
1085,1285.0,-0.5521814457457594
1086,1286.0,-0.5549381230840709
1087,1287.0,-0.5573262129902332
1088,1288.0,-0.5593477252342609
1089,1289.0,-0.5610056695405774
1090,1290.0,-0.562300055588139
1091,1291.0,-0.5632348930096214
1092,1292.0,-0.5638101913908713
1093,1293.0,-0.564026960270894
1094,1294.0,-0.5638872091421945
1095,1295.0,-0.5633899474487407
1096,1296.0,-0.562535184587432
1097,1297.0,-0.5613239299074166
1098,1298.0,-0.5597561927075958
1099,1299.0,-0.5578309822398069
1100,1300.0,-0.5555463077054128
1101,1301.0,-0.5529031782572247
1102,1302.0,-0.5498986029977004
1103,1303.0,-0.5465305909790459
1104,1304.0,-0.5427991512030985
1105,1305.0,-0.5387002926210016
1106,1306.0,-0.5342330241323907
1107,1307.0,-0.5293933545854088
1108,1308.0,-0.52417929277658
1109,1309.0,-0.5185858474497991
1110,1310.0,-0.5126110272969981
1111,1311.0,-0.506250840956568
1112,1312.0,-0.49950029701415133
1113,1313.0,-0.49235440400195785
1114,1314.0,-0.48480917039773885
1115,1315.0,-0.47685860462593155
1116,1316.0,-0.46849871505492047
1117,1317.0,-0.45972151000034955
1118,1318.0,-0.450521997720557
1119,1319.0,-0.44089218642000105
1120,1320.0,-0.43082708424583416
1121,1321.0,-0.4203176992898534
1122,1322.0,-0.409356039587351
1123,1323.0,-0.3979341131162073
1124,1324.0,-0.3860439277974592
1125,1325.0,-0.37367449149439835
1126,1326.0,-0.3608178120127832
1127,1327.0,-0.34746289709948996
1128,1328.0,-0.33359975444341217
1129,1329.0,-0.3192153916741063
1130,1330.0,-0.304298816362234
1131,1331.0,-0.2888380360188876
1132,1332.0,-0.2728200580952489
1133,1333.0,-0.25623088998190724
1134,1334.0,-0.23905453900874818
1135,1335.0,-0.22127801244596412
1136,1336.0,-0.20288531750088623
1137,1337.0,-0.18385846132082406
1138,1338.0,-0.16418145098987225
1139,1339.0,-0.14383429353028987
1140,1340.0,-0.12279899590180321
1141,1341.0,-0.10105556500229795
1142,1342.0,-0.07858200766418122
1143,1343.0,-0.05535633065824186
1144,1344.0,-0.03135554068990132
1145,1345.0,-0.006554644401376208
1146,1346.0,0.019072351629802142
1147,1347.0,0.04555144089135865
1148,1348.0,0.07291161693683534
1149,1349.0,0.10118287338423215
1150,1350.0,0.13039720391793708
1151,1351.0,0.1605866022889586
1152,1352.0,0.19178606231412232
1153,1353.0,0.22403257787868824
1154,1354.0,0.25736414293282905
1155,1355.0,0.29182275149719317
1156,1356.0,0.3274493976573467
1157,1357.0,0.3642900755694427
1158,1358.0,0.40239277945761387
1159,1359.0,0.44180650361454354
1160,1360.0,0.4825862424015668
1161,1361.0,0.5247869902520961
1162,1362.0,0.5684677416663817
1163,1363.0,0.6136904912175396
1164,1364.0,0.6605232335475648
1165,1365.0,0.70903596337007
1166,1366.0,0.7593016754703967
1167,1367.0,0.8114003647042409
1168,1368.0,0.8654160260009576
1169,1369.0,0.921435654360721
1170,1370.0,0.9795562448573492
1171,1371.0,1.0398757926366216
1172,1372.0,1.1025012929185323
1173,1373.0,1.1675467409968405
1174,1374.0,1.2351341322375902
1175,1375.0,1.3053904620833237
1176,1376.0,1.3784547260499949
1177,1377.0,1.4544729197284596
1178,1378.0,1.5336020387851477
1179,1379.0,1.6160110789630835
1180,1380.0,1.701880036078819
1181,1381.0,1.7914009060280023
1182,1382.0,1.8847796847810514
1183,1383.0,1.9822403683863286
1184,1384.0,2.0840199529686743
1185,1385.0,2.1903774347313174
1186,1386.0,2.301586809955097
1187,1387.0,2.4179480749996856
1188,1388.0,2.539783226302916
1189,1389.0,2.667440260380772
1190,1390.0,2.8012951738307947
1191,1391.0,2.9417569633287712
1192,1392.0,3.089268625629302
1193,1393.0,3.244311157569655
1194,1394.0,3.4074075560668007
1195,1395.0,3.579127818118195
1196,1396.0,3.760094940803583
1197,1397.0,3.9509879212832857
1198,1398.0,4.152550756799883
1199,1399.0,4.36559844467979
1200,1400.0,4.59102698233005
1201,1401.0,4.829821367241266
1202,1402.0,5.08306559698849
1203,1403.0,5.351957669229478
1204,1404.0,5.6378235817057885
1205,1405.0,5.942131332243889
1206,1406.0,6.2665119187545315
1207,1407.0,6.612781339234516
1208,1408.0,6.982963591764246
1209,1409.0,7.37932567451071
1210,1410.0,7.804405585727636
1211,1411.0,8.261056323754246
1212,1412.0,8.752493887016044
1213,1413.0,9.282353274026946
1214,1414.0,9.85474948338674
1215,1415.0,10.474366513783934
1216,1416.0,11.146541363994402
1217,1417.0,11.877381032882795
1218,1418.0,12.673898519402883
1219,1419.0,13.54417482259646
1220,1420.0,14.497556941595349
1221,1421.0,15.544898875620675
1222,1422.0,16.69886262398404
1223,1423.0,17.974275186087198
1224,1424.0,19.388587561422582
1225,1425.0,20.962435749573388
1226,1426.0,22.720342750214968
1227,1427.0,24.691606563114192
1228,1428.0,26.9114261881291
1229,1429.0,29.422328625210866
1230,1430.0,32.276003874403386
1231,1431.0,35.535657935843346
1232,1432.0,39.27906780976127
1233,1433.0,43.60253049648077
1234,1434.0,48.62600499642008
1235,1435.0,54.499783310090834
1236,1436.0,61.41311143810094
1237,1437.0,69.60517438115198
1238,1438.0,79.37875714004235
1239,1439.0,91.11635571566444
1240,1440.0,105.2971931090076
1241,1441.0,122.51037732115856
1242,1442.0,143.45246435329864
1243,1443.0,168.8836442067077
1244,1444.0,199.49170888276353
1245,1445.0,235.57753738293968
1246,1446.0,276.4557317088095
1247,1447.0,319.5537928620438
1248,1448.0,359.5753908444128
1249,1449.0,388.7866486577859
1250,1450.0,399.62001230413057
1251,1451.0,388.83224978551584
1252,1452.0,359.66662010410914
1253,1453.0,319.6907022621797
1254,1454.0,276.6384002620971
1255,1455.0,235.80607210633116
1256,1456.0,199.76624079745466
1257,1457.0,169.2043333381405
1258,1458.0,143.8194977311648
1259,1459.0,122.92396897940534
1260,1460.0,105.75758408584397
1261,1461.0,91.62381705356415
1262,1462.0,79.93358688575313
1263,1463.0,70.20770058570292
1264,1464.0,62.06369015680798
1265,1465.0,55.198803602569114
1266,1466.0,49.37388392659
1267,1467.0,44.3997181325808
1268,1468.0,40.12604422435675
1269,1469.0,36.43293820583813
1270,1470.0,33.22413608105239
1271,1471.0,30.421895854133027
1272,1472.0,27.963045529319743
1273,1473.0,25.79593411096016
1274,1474.0,23.878069603509402
1275,1475.0,22.17429401152981
1276,1476.0,20.655348339691955
1277,1477.0,19.296750592775652
1278,1478.0,18.077907775667427
1279,1479.0,16.981415893365465
1280,1480.0,15.992489950975823
1281,1481.0,15.098517953714918
1282,1482.0,14.288693906909884
1283,1483.0,13.553722815996252
1284,1484.0,12.885577686522538
1285,1485.0,12.277300524147677
1286,1486.0,11.722843334641766
1287,1487.0,11.21692712388699
1288,1488.0,10.754933897877436
1289,1489.0,10.332811662719223
1290,1490.0,9.946995424633087
1291,1491.0,9.594342189951021
1292,1492.0,9.272072965119605
1293,1493.0,8.977728756697843
1294,1494.0,8.709125571360573
1295,1495.0,8.464326415896267
1296,1496.0,8.241605297208253
1297,1497.0,8.039428222314882
1298,1498.0,7.85642719835073
1299,1499.0,7.691382232565047
1300,1500.0,7.543207332323618
1301,1501.0,7.410935505109819
1302,1502.0,7.293705758522492
1303,1503.0,7.190753100278016
1304,1504.0,7.101401538210212
1305,1505.0,7.025054080271502
1306,1506.0,6.961183734531687
1307,1507.0,6.909333509178623
1308,1508.0,6.869107412519952
1309,1509.0,6.8401664529819755
1310,1510.0,6.822223639111144
1311,1511.0,6.815045979572915
1312,1512.0,6.81844548315371
1313,1513.0,6.83228115875886
1314,1514.0,6.856455015416941
1315,1515.0,6.8909140622756695
1316,1516.0,6.935644308605333
1317,1517.0,6.990675763797981
1318,1518.0,7.056076437367665
1319,1519.0,7.131958338950881
1320,1520.0,7.21847347830635
1321,1521.0,7.315818865317624
1322,1522.0,7.424231509990477
1323,1523.0,7.543997422454822
1324,1524.0,7.675449612964485
1325,1525.0,7.818969091899362
1326,1526.0,7.974991869761652
1327,1527.0,8.144010957180399
1328,1528.0,8.32657736491069
1329,1529.0,8.523308103831823
1330,1530.0,8.73489218495024
1331,1531.0,8.962094619399068
1332,1532.0,9.205762418438326
1333,1533.0,9.466834593454223
1334,1534.0,9.746354155961853
1335,1535.0,10.045471117603256
1336,1536.0,10.365462490149184
1337,1537.0,10.707739285498747
1338,1538.0,11.07386951567969
1339,1539.0,11.465589192849848
1340,1540.0,11.884827329295376
1341,1541.0,12.333731937433186
1342,1542.0,12.81469302980986
1343,1543.0,13.330380619103607
1344,1544.0,13.88377871812122
1345,1545.0,14.478232339803753
1346,1546.0,15.117499497221615
1347,1547.0,15.805813203577372
1348,1548.0,16.54795047220705
1349,1549.0,17.349324316578304
1350,1550.0,18.216083750291318
1351,1551.0,19.15523378708008
1352,1552.0,20.174789440811992
1353,1553.0,21.283948725488926
1354,1554.0,22.493309655245866
1355,1555.0,23.81513824435342
1356,1556.0,25.263685507216678
1357,1557.0,26.855589458375107
1358,1558.0,28.61036811250574
1359,1559.0,30.55103448441946
1360,1560.0,32.70486758906486
1361,1561.0,35.104383441526124
1362,1562.0,37.78857305702559
1363,1563.0,40.8044714509208
1364,1564.0,44.20917963870943
1365,1565.0,48.07246563602462
1366,1566.0,52.4801274586398
1367,1567.0,57.53835812246598
1368,1568.0,63.37939564355224
1369,1569.0,70.16880403808932
1370,1570.0,78.11475532240502
1371,1571.0,87.47954351296812
1372,1572.0,98.59318562638873
1373,1573.0,111.86784067941585
1374,1574.0,127.80911868894009
1375,1575.0,147.01463367199335
1376,1576.0,170.1385636457494
1377,1577.0,197.78029462752352
1378,1578.0,230.22603463477344
1379,1579.0,266.9557146850991
1380,1580.0,305.9015527962438
1381,1581.0,342.75996498609516
1382,1582.0,371.230591272682
1383,1583.0,385.1681446741784
1384,1584.0,382.01748020890363
1385,1585.0,364.60351689532035
1386,1586.0,339.3554137520366
1387,1587.0,312.8865627978046
1388,1588.0,289.8597590515244
1389,1589.0,272.76804053223964
1390,1590.0,262.64616725914266
1391,1591.0,259.8387702515704
1392,1592.0,264.5212055290076
1393,1593.0,276.9794231110866
1394,1594.0,297.7184110175865
1395,1595.0,327.4304372684353
1396,1596.0,366.78620788370813
1397,1597.0,415.9365098836299
1398,1598.0,473.5691662885745
1399,1599.0,535.4994571190637
1400,1600.0,593.3619283957705
1401,1601.0,635.0450621395178
1402,1602.0,648.720164371277
1403,1603.0,629.2807661121719
1404,1604.0,581.6897283834771
1405,1605.0,517.6246382066186
1406,1606.0,449.0303776031724
1407,1607.0,384.08119459486875
1408,1608.0,326.73544320358883
1409,1609.0,278.0313354513669
1410,1610.0,237.48229636039036
1411,1611.0,204.00523995299932
1412,1612.0,176.40749025168748
1413,1613.0,153.59716927910426
1414,1614.0,134.6507300580513
1415,1615.0,118.81643561148576
1416,1616.0,105.49371896252023
1417,1617.0,94.20661313442156
1418,1618.0,84.57860815061326
1419,1619.0,76.31134603467399
1420,1620.0,69.16748281034006
1421,1621.0,62.9572335015032
1422,1622.0,57.527950132212254
1423,1623.0,52.75609572667395
1424,1624.0,48.541055309252215
1425,1625.0,44.800366904469456
1426,1626.0,41.466028537006196
1427,1627.0,38.48162423170106
1428,1628.0,35.80008001355327
1429,1629.0,33.38189590771913
1430,1630.0,31.19375193951737
1431,1631.0,29.207396134424016
1432,1632.0,27.398757518076764
1433,1633.0,25.747235116274396
1434,1634.0,24.235115954975754
1435,1635.0,22.847106060301257
1436,1636.0,21.569949458534893
1437,1637.0,20.392112176118644
1438,1638.0,19.303520239660884
1439,1639.0,18.295344675930437
1440,1640.0,17.359824511860097
1441,1641.0,16.490112774545423
1442,1642.0,15.680150491245968
1443,1643.0,14.92456368938565
1444,1644.0,14.218568396551746
1445,1645.0,13.55789864049757
1446,1646.0,12.938738449140374
1447,1647.0,12.357665850562853
1448,1648.0,11.811606873014625
1449,1649.0,11.297791544910751
1450,1650.0,10.813718894831482
1451,1651.0,10.357128951524373
1452,1652.0,9.925972743905731
1453,1653.0,9.518388301056802
1454,1654.0,9.13268265222814
1455,1655.0,8.767314826838174
1456,1656.0,8.420873854472575
1457,1657.0,8.092072764886552
1458,1658.0,7.779732588005572
1459,1659.0,7.48277035392266
1460,1660.0,7.200192092900352
1461,1661.0,6.931083835373329
1462,1662.0,6.674602611944465
1463,1663.0,6.4299714533894985
1464,1664.0,6.19647139065296
1465,1665.0,5.973439454852723
1466,1666.0,5.760260677277074
1467,1667.0,5.556364089386989
1468,1668.0,5.3612217228162535
1469,1669.0,5.17434060937012
1470,1670.0,4.995263781027916
1471,1671.0,4.823565269942264
1472,1672.0,4.658849108439426
1473,1673.0,4.500742329019658
1474,1674.0,4.3489019643575375
1475,1675.0,4.203001047302678
1476,1676.0,4.062739610879817
1477,1677.0,3.9278326882892998
1478,1678.0,3.798015312905818
1479,1679.0,3.6730375182821717
1480,1680.0,3.5526653381461983
1481,1681.0,3.4366788064030516
1482,1682.0,3.3248709571348627
1483,1683.0,3.217047824600968
1484,1684.0,3.1130244432386007
1485,1685.0,3.01262784766368
1486,1686.0,2.9156970726696727
1487,1687.0,2.8220761532288634
1488,1688.0,2.731621124494268
1489,1689.0,2.644194021795556
1490,1690.0,2.55966488064405
1491,1691.0,2.4779097367318172
1492,1692.0,2.3988146259287078
1493,1693.0,2.3222665842884
1494,1694.0,2.2481626480425803
1495,1695.0,2.1764028536078968
1496,1696.0,2.1068932375794702
1497,1697.0,2.0395448367373774
1498,1698.0,1.9742716880416538
1499,1699.0,1.910993828636947
1500,1700.0,1.849633295849344
1501,1701.0,1.790119127190792
1502,1702.0,1.7323793603543436
1503,1703.0,1.6763490332189122
1504,1704.0,1.6219641838476946
1505,1705.0,1.5691658504881616
1506,1706.0,1.517895071572866
1507,1707.0,1.4680968857203425
1508,1708.0,1.4197203317344247
1509,1709.0,1.3727144486058478
1510,1710.0,1.3270312755107625
1511,1711.0,1.2826258518127815
1512,1712.0,1.2394532170624188
1513,1713.0,1.1974734109985548
1514,1714.0,1.1566444735465211
1515,1715.0,1.1169284448201324
1516,1716.0,1.078289365122373
1517,1717.0,1.0406912749442654
1518,1718.0,1.0041012149661128
1519,1719.0,0.9684862260585305
1520,1720.0,0.9338163492809599
1521,1721.0,0.9000596258833866
1522,1722.0,0.8671890973062091
1523,1723.0,0.8351778051808196
1524,1724.0,0.803997791329266
1525,1725.0,0.7736240977653779
1526,1726.0,0.7440327666959092
1527,1727.0,0.7152008405178094
1528,1728.0,0.6871053618212954
1529,1729.0,0.6597243733901905
1530,1730.0,0.6330369182010145
1531,1731.0,0.6070230394229839
1532,1732.0,0.5816637804202855
1533,1733.0,0.5569401847508288
1534,1734.0,0.5328342961663566
1535,1735.0,0.5093291586151736
1536,1736.0,0.4864068162385138
1537,1737.0,0.46405331337518874
1538,1738.0,0.44225169455853575
1539,1739.0,0.4209870045185653
1540,1740.0,0.4002452881820773
1541,1741.0,0.3800125906714129
1542,1742.0,0.3602749573080928
1543,1743.0,0.3410194336101995
1544,1744.0,0.322234065292605
1545,1745.0,0.30390589826993164
1546,1746.0,0.2860239786548391
1547,1747.0,0.26857635275814573
1548,1748.0,0.2515530670914359
1549,1749.0,0.23494216836434134
1550,1750.0,0.21873370348703247
1551,1751.0,0.20291871956897012
1552,1752.0,0.18748626392221013
1553,1753.0,0.1724283840571843
1554,1754.0,0.15773512768714681
1555,1755.0,0.14339754272623395
1556,1756.0,0.12940767729196523
1557,1757.0,0.11575757970058476
1558,1758.0,0.10243929847479194
1559,1759.0,0.0894448823376024
1560,1760.0,0.07676638021621329
1561,1761.0,0.06439784124086145
1562,1762.0,0.0523313147468798
1563,1763.0,0.04055985027207498
1564,1764.0,0.029077497560138
1565,1765.0,0.017877306559512363
1566,1766.0,0.006953327422706934
1567,1767.0,-0.003699389490748217
1568,1768.0,-0.014088793615883333
1569,1769.0,-0.02421983418275886
1570,1770.0,-0.03409646021282242
1571,1771.0,-0.04372662052128362
1572,1772.0,-0.053113263717705195
1573,1773.0,-0.06226233820211746
1574,1774.0,-0.07117979216741332
1575,1775.0,-0.07986857359810529
1576,1776.0,-0.08833363027065388
1577,1777.0,-0.09658090975153755
1578,1778.0,-0.10461335939908167
1579,1779.0,-0.11243592636219546
1580,1780.0,-0.12005255757821942
1581,1781.0,-0.12746719977576504
1582,1782.0,-0.13468379947244102
1583,1783.0,-0.14170630297530806
1584,1784.0,-0.14853865637974195
1585,1785.0,-0.15518380556909506
1586,1786.0,-0.16164569621560076
1587,1787.0,-0.16792827377844333
1588,1788.0,-0.17403348350626402
1589,1789.0,-0.17996627043157787
1590,1790.0,-0.18572857937647314
1591,1791.0,-0.19132435494793754
1592,1792.0,-0.19675554153877783
1593,1793.0,-0.20202508332931757
1594,1794.0,-0.20713692428284958
1595,1795.0,-0.21209400814996116
1596,1796.0,-0.2168972784647849
1597,1797.0,-0.22155067854669142
1598,1798.0,-0.22605715149711614
1599,1799.0,-0.23041864020319736
1600,1800.0,-0.23463708733561361
1601,1801.0,-0.2387154353468759
1602,1802.0,-0.2426556264726969
1603,1803.0,-0.24646060273153125
1604,1804.0,-0.25013130592333255
1605,1805.0,-0.25367167762988174
1606,1806.0,-0.2570836592149135
1607,1807.0,-0.2603671918222972
1608,1808.0,-0.2635262163776133
1609,1809.0,-0.266562673585895
1610,1810.0,-0.26947750393310343
1611,1811.0,-0.2722726476843036
1612,1812.0,-0.27495104488434663
1613,1813.0,-0.2775126353558335
1614,1814.0,-0.2799613587026215
1615,1815.0,-0.2822971543046151
1616,1816.0,-0.28452296132081756
1617,1817.0,-0.28663971868718363
1618,1818.0,-0.2886483651177514
1619,1819.0,-0.29055183910440974
1620,1820.0,-0.29235107891372536
1621,1821.0,-0.29404702258989346
1622,1822.0,-0.2956416079528026
1623,1823.0,-0.29713577259826707
1624,1824.0,-0.2985324538972236
1625,1825.0,-0.2998305889959738
1626,1826.0,-0.3010331148152545
1627,1827.0,-0.30214096805002555
1628,1828.0,-0.30315508516878253
1629,1829.0,-0.3040774024152597
1630,1830.0,-0.3049088558054791
1631,1831.0,-0.30565038112808907
1632,1832.0,-0.30630291394618325
1633,1833.0,-0.30686738959275317
1634,1834.0,-0.30734674317454846
1635,1835.0,-0.3077389095687977
1636,1836.0,-0.3080478234255679
1637,1837.0,-0.3082734191648342
1638,1838.0,-0.3084166309772627
1639,1839.0,-0.3084783928247816
1640,1840.0,-0.30845963843876234
1641,1841.0,-0.308361301318655
1642,1842.0,-0.30818431473608143
1643,1843.0,-0.3079306117301712
1644,1844.0,-0.3075991251080268
1645,1845.0,-0.307192787447093
1646,1846.0,-0.30671053109062996
1647,1847.0,-0.30615428815144696
1648,1848.0,-0.3055239905079361
1649,1849.0,-0.3048225698062197
1650,1850.0,-0.3040479574606252
1651,1851.0,-0.3032030846488851
1652,1852.0,-0.30228688231636625
1653,1853.0,-0.3013022811742303
1654,1854.0,-0.3002472116991157
1655,1855.0,-0.29912560413140454
1656,1856.0,-0.2979353884770717
1657,1857.0,-0.29667849450652284
1658,1858.0,-0.295354851753018
1659,1859.0,-0.29396638951584464
1660,1860.0,-0.292513036854416
1661,1861.0,-0.2909947225934957
1662,1862.0,-0.2894123753194435
1663,1863.0,-0.28776792338067025
1664,1864.0,-0.28606029488992135
1665,1865.0,-0.28429041771732955
1666,1866.0,-0.2824592194979232
1667,1867.0,-0.2805676276275335
1668,1868.0,-0.2786145692593891
1669,1869.0,-0.27660197131081077
1670,1870.0,-0.27453076045640046
1671,1871.0,-0.2723998631322502
1672,1872.0,-0.2702102055332034
1673,1873.0,-0.2679627136117233
1674,1874.0,-0.26565831308062116
1675,1875.0,-0.2632969294099894
1676,1876.0,-0.2608784878289043
1677,1877.0,-0.25840391332303625
1678,1878.0,-0.25587413063522035
1679,1879.0,-0.2532880642656892
1680,1880.0,-0.25064763847194627
1681,1881.0,-0.2479527772675283
1682,1882.0,-0.2452034044190441
1683,1883.0,-0.24240144345412773
1684,1884.0,-0.23954481765122182
1685,1885.0,-0.23663545004455955
1686,1886.0,-0.23367426342520048
1687,1887.0,-0.2306601803356898
1688,1888.0,-0.2275941230745957
1689,1889.0,-0.22447601369185577
1690,1890.0,-0.22130777399297585
1691,1891.0,-0.21808832553551838
1692,1892.0,-0.214817589629547
1693,1893.0,-0.2114964873367171
1694,1894.0,-0.20812593947130154
1695,1895.0,-0.20470586659985202
1696,1896.0,-0.20123618903880924
1697,1897.0,-0.19771682685632186
1698,1898.0,-0.19414969987064978
1699,1899.0,-0.1905327276508615
1700,1900.0,-0.18686782951544956
1701,1901.0,-0.18315592453427598
1702,1902.0,-0.17939493152198338
1703,1903.0,-0.17558676904809545
1704,1904.0,-0.1717313554249813
1705,1905.0,-0.16782860871717276
1706,1906.0,-0.16387944673624588
1707,1907.0,-0.1598837870405987
1708,1908.0,-0.15584154693578967
1709,1909.0,-0.1517526434749925
1710,1910.0,-0.1476179934575157
1711,1911.0,-0.14343851342846392
1712,1912.0,-0.1392121196813605
1713,1913.0,-0.13494072825096737
1714,1914.0,-0.13062525492159693
1715,1915.0,-0.12626361521915896
1716,1916.0,-0.12185772441625886
1717,1917.0,-0.11740649752846366
1718,1918.0,-0.1129118493158785
1719,1919.0,-0.1083726942811154
1720,1920.0,-0.10378894667246641
1721,1921.0,-0.09916152047799187
1722,1922.0,-0.09449032943075508
1723,1923.0,-0.08977628700495188
1724,1924.0,-0.085017306417285
1725,1925.0,-0.08021630062330587
1726,1926.0,-0.07537118232448847
1727,1927.0,-0.07048386395854322
1728,1928.0,-0.06555325770796117
1729,1929.0,-0.060580275491702196
1730,1930.0,-0.05556382897157164
1731,1931.0,-0.05050582954663696
1732,1932.0,-0.045405188354834536
1733,1933.0,-0.04026181627614278
1734,1934.0,-0.03507662392712518
1735,1935.0,-0.029849521661617473
1736,1936.0,-0.0245804195724304
1737,1937.0,-0.019270227489869285
1738,1938.0,-0.013916854980379867
1739,1939.0,-0.008523211349711346
1740,1940.0,-0.0030872056372572843
1741,1941.0,0.002389253379078582
1742,1942.0,0.00790825718695487
1743,1943.0,0.013467897538248508
1744,1944.0,0.019068266449721705
1745,1945.0,0.024710456203138165
1746,1946.0,0.030392559345273185
1747,1947.0,0.03611666868891916
1748,1948.0,0.04188087731427004
1749,1949.0,0.04768627856583407
1750,1950.0,0.05353196605665289
1751,1951.0,0.059419033666927135
1752,1952.0,0.06534557554323328
1753,1953.0,0.07131268610010011
1754,1954.0,0.07732146002217632
1755,1955.0,0.08336899226014793
1756,1956.0,0.08945737803378506
1757,1957.0,0.09558671283366493
1758,1958.0,0.10175509241935288
1759,1959.0,0.1079646128200693
1760,1960.0,0.11421337033289092
1761,1961.0,0.12050346153000646
1762,1962.0,0.1268319832506677
1763,1963.0,0.13320103260684846
1764,1964.0,0.1396107069822392
1765,1965.0,0.14606010403167602
1766,1966.0,0.15254832168238863
1767,1967.0,0.15907745813365182
1768,1968.0,0.1656456118589631
1769,1969.0,0.172253881603865
1770,1970.0,0.17890236638822898
1771,1971.0,0.1855891655045525
1772,1972.0,0.19231737851987418
1773,1973.0,0.1990841052779615
1774,1974.0,0.20589044589405603
1775,1975.0,0.21273750076034048
1776,1976.0,0.21962337054583259
1777,1977.0,0.22654815619125657
1778,1978.0,0.23351395891859283
1779,1979.0,0.24051788022370602
1780,1980.0,0.24756202187882081
1781,1981.0,0.25464648593469974
1782,1982.0,0.26176937471836936
1783,1983.0,0.26893279083606103
1784,1984.0,0.27613483717232157
1785,1985.0,0.28337661688874505
1786,1986.0,0.2906582334271661
1787,1987.0,0.2979797905072701
1788,1988.0,0.305340392130347
1789,1989.0,0.31274014257496674
1790,1990.0,0.3201801464028904
1791,1991.0,0.3276595084539622
1792,1992.0,0.33517833384939877
1793,1993.0,0.34273672799190535
1794,1994.0,0.35033579656737857
1795,1995.0,0.3579726455418495
1796,1996.0,0.36565038116214055
1797,1997.0,0.37336710996123657
1798,1998.0,0.38112393875235284
1799,1999.0,0.388920974633038
1800,2000.0,0.39675632498347113
