pixel_index,raman_shift_cm-1,intensity
0,200.000,1.9463055886832308
1,201.000,9.858488019402728
2,202.000,12.202742958287956
3,203.000,-0.1984908352931143
4,204.000,2.699823428165814
5,205.000,-5.178662431735461
6,206.000,1.7625044346522145
7,207.000,-4.379519093016768
8,208.000,1.3716168948724317
9,209.000,8.399671337851032
10,210.000,7.54308120532238
11,211.000,3.5416174965174037
12,212.000,-6.02595075954963
13,213.000,0.6719584958745486
14,214.000,2.47237735123781
15,215.000,3.052705924638474
16,216.000,0.03820836378071135
17,217.000,10.41698584593047
18,218.000,11.282662577870951
19,219.000,-2.206225204141788
20,220.000,-7.049686234422666
21,221.000,2.609839782097083
22,222.000,9.455489169826876
23,223.000,7.141854282471172
24,224.000,4.0079775029861935
25,225.000,3.291100243534629
26,226.000,5.3216479454424075
27,227.000,-0.39179992084689275
28,228.000,4.007944144184705
29,229.000,-3.5051993309153886
30,230.000,10.088969211385404
31,231.000,7.589118357560835
32,232.000,2.239425722981082
33,233.000,6.6662539518686685
34,234.000,22.431969717253992
35,235.000,19.043656720931097
36,236.000,-4.651415306586728
37,237.000,10.546151393888579
38,238.000,11.023541610175812
39,239.000,-3.048032841319923
40,240.000,-5.532115115651834
41,241.000,3.219439660624573
42,242.000,-0.09822961059285262
43,243.000,5.184060001002308
44,244.000,12.048530454081401
45,245.000,5.078185735635543
46,246.000,4.98976986093237
47,247.000,9.765398873470417
48,248.000,8.712600844935821
49,249.000,9.51289187515755
50,250.000,13.378318092062955
51,251.000,8.326246651633767
52,252.000,19.000029737861496
53,253.000,-0.6100234372968885
54,254.000,11.032403366037045
55,255.000,10.077830415618166
56,256.000,8.365730007034244
57,257.000,9.37888546366105
58,258.000,7.167291136618246
59,259.000,1.887781404724933
60,260.000,6.949394674455505
61,261.000,11.327296379895074
62,262.000,10.03700498269535
63,263.000,8.210262972030137
64,264.000,9.266557864551032
65,265.000,1.4069192043432963
66,266.000,6.239066562881135
67,267.000,9.724700538983768
68,268.000,-3.424005241229338
69,269.000,0.5316828756176051
70,270.000,3.413970570112099
71,271.000,3.600451550009211
72,272.000,7.863876550187115
73,273.000,-1.9106366673974549
74,274.000,11.693896686247058
75,275.000,4.818904427102211
76,276.000,7.286409398095316
77,277.000,11.97897346905495
78,278.000,11.273637536667138
79,279.000,8.15518452443041
80,280.000,14.436195382612027
81,281.000,10.126926088202936
82,282.000,9.081365644874268
83,283.000,12.036840082932372
84,284.000,12.564545459274541
85,285.000,11.434190857345243
86,286.000,4.723001387091017
87,287.000,11.934571184916535
88,288.000,10.01991841364054
89,289.000,-6.15208773754955
90,290.000,5.547021946859559
91,291.000,-3.9997012913385106
92,292.000,-10.93541418411371
93,293.000,6.616523562756129
94,294.000,3.526411269640903
95,295.000,-1.44265171698612
96,296.000,3.910859975407334
97,297.000,7.316118745368385
98,298.000,3.613370017414354
99,299.000,8.033263241988834
100,300.000,6.887928895416621
101,301.000,6.119160479860739
102,302.000,0.6571775232763457
103,303.000,7.681999579368039
104,304.000,3.4414842275441515
105,305.000,5.8671570728735105
106,306.000,-0.044035253959691545
107,307.000,2.0618099033002864
108,308.000,3.454043226436056
109,309.000,-3.043102577286959
110,310.000,5.924491224834924
111,311.000,13.239129390899507
112,312.000,11.76049870435395
113,313.000,13.153817973951163
114,314.000,-0.36479196629522903
115,315.000,6.2527527428450185
116,316.000,12.168942985774606
117,317.000,5.019219672024178
118,318.000,10.4065237362081
119,319.000,-6.525044862020195
120,320.000,10.126005861988233
121,321.000,5.472257917832053
122,322.000,3.3788893400171673
123,323.000,-0.17745381208919753
124,324.000,12.46583154569828
125,325.000,1.219792522337798
126,326.000,2.1801432515167107
127,327.000,12.374245891607075
128,328.000,10.256990625621142
129,329.000,-0.20354833883311585
130,330.000,13.816776230404116
131,331.000,2.4158605900000794
132,332.000,14.126618021084369
133,333.000,7.8521128292059075
134,334.000,9.473206344287519
135,335.000,9.356553920581632
136,336.000,13.903569936626923
137,337.000,15.184641795202765
138,338.000,6.502413923285758
139,339.000,10.21096077200491
140,340.000,5.810382816597553
141,341.000,0.8251335563649036
142,342.000,-3.5740854853722794
143,343.000,-5.29393776131792
144,344.000,8.295321299754619
145,345.000,9.374550292959157
146,346.000,-4.704495162748913
147,347.000,7.318177575384084
148,348.000,3.065789173865255
149,349.000,10.089152322910763
150,350.000,7.540154736401973
151,351.000,0.06694115184041038
152,352.000,18.306485330304213
153,353.000,-0.32311894359713733
154,354.000,3.3229091382339675
155,355.000,5.941597407337781
156,356.000,15.674209718653742
157,357.000,2.18496095047567
158,358.000,7.473535004407381
159,359.000,-3.0430721946808035
160,360.000,14.108636301302113
161,361.000,0.9915944636248923
162,362.000,2.233904286688812
163,363.000,9.147470787983707
164,364.000,5.005023008043736
165,365.000,2.7773810104025642
166,366.000,15.264600881549654
167,367.000,11.99559073088551
168,368.000,12.675618690677311
169,369.000,12.773165916014932
170,370.000,2.5428655847662185
171,371.000,9.114975897532986
172,372.000,3.5266580776061573
173,373.000,-2.5022096290775835
174,374.000,12.698478046018408
175,375.000,12.484618393988058
176,376.000,4.749492728436735
177,377.000,0.6397823854382523
178,378.000,7.42699372348909
179,379.000,4.824541123465451
180,380.000,-0.3759880114217822
181,381.000,16.299590744328498
182,382.000,4.216868838463483
183,383.000,11.83295174093223
184,384.000,8.663701943841488
185,385.000,11.566055961410711
186,386.000,13.674067329927993
187,387.000,11.420528607706501
188,388.000,-8.858603624961347
189,389.000,7.464114234153271
190,390.000,19.645388809170186
191,391.000,-4.964047253943363
192,392.000,10.59412271258202
193,393.000,7.4977403982748
194,394.000,4.63824051437723
195,395.000,13.356488793801077
196,396.000,0.5703489910837334
197,397.000,5.771502882343611
198,398.000,7.1415832652355675
199,399.000,12.068761958907317
200,400.000,-3.650907196045523
201,401.000,5.940534662375853
202,402.000,0.12829641753035048
203,403.000,6.431172974091282
204,404.000,1.2529702580030744
205,405.000,6.3204562164365825
206,406.000,11.53864081774384
207,407.000,13.0743410514159
208,408.000,-2.1578770719640943
209,409.000,-6.477759520763129
210,410.000,9.461465757656015
211,411.000,8.184541836891071
212,412.000,9.541849811455677
213,413.000,5.225089796735233
214,414.000,15.752398928942398
215,415.000,3.7117313650728647
216,416.000,11.308833282860746
217,417.000,2.054754880735004
218,418.000,3.1534963777739904
219,419.000,12.54326001366212
220,420.000,11.147283048645022
221,421.000,6.738942763484829
222,422.000,6.919940459416921
223,423.000,9.729415458104882
224,424.000,9.41537410159583
225,425.000,23.16202275227704
226,426.000,15.446696792830721
227,427.000,2.099176626190001
228,428.000,6.742175675495105
229,429.000,7.706074384047838
230,430.000,1.4921962152682227
231,431.000,8.064039652650195
232,432.000,16.04713119971666
233,433.000,5.572969379975234
234,434.000,-4.417348263125291
235,435.000,10.347249833759633
236,436.000,7.472664253826565
237,437.000,-0.1971263999199664
238,438.000,10.120044495287061
239,439.000,0.8199995819343258
240,440.000,5.17162552218258
241,441.000,13.560811997823066
242,442.000,10.357057710232993
243,443.000,7.564862380330851
244,444.000,12.62945474853234
245,445.000,7.770956574706474
246,446.000,22.890250638130397
247,447.000,6.846851737445718
248,448.000,-1.880976309386483
249,449.000,-2.0266626651289243
250,450.000,11.442263526686475
251,451.000,15.153810141714644
252,452.000,22.705824074752854
253,453.000,2.5366482396972287
254,454.000,3.652584569497094
255,455.000,-3.4827739838883645
256,456.000,10.343516550464983
257,457.000,4.93768316240255
258,458.000,2.9902248606457533
259,459.000,-2.6172373272514733
260,460.000,11.895514645052344
261,461.000,3.5950568426425207
262,462.000,8.206504349303373
263,463.000,8.40432926747394
264,464.000,10.119999718203871
265,465.000,13.316422841108988
266,466.000,5.363792794326969
267,467.000,9.455303754472766
268,468.000,4.781993916594502
269,469.000,8.459383494129497
270,470.000,9.241258718859058
271,471.000,6.324087840864877
272,472.000,10.529771128484526
273,473.000,-5.03375313173342
274,474.000,11.13892336492745
275,475.000,16.43169594130552
276,476.000,10.757527938318162
277,477.000,10.179539714917155
278,478.000,7.459657648043162
279,479.000,14.253600132583074
280,480.000,7.332817581324207
281,481.000,9.803698424911431
282,482.000,6.797245111801317
283,483.000,6.1495481082191645
284,484.000,0.6091048981134008
285,485.000,0.274004983112377
286,486.000,0.6624128824793161
287,487.000,7.887588133068107
288,488.000,0.8407212892792586
289,489.000,4.2908359230152655
290,490.000,-2.479484376363871
291,491.000,-5.9627110020843475
292,492.000,6.888620669996385
293,493.000,3.0372032813460237
294,494.000,-1.5347545092880637
295,495.000,7.494113974078346
296,496.000,8.762055424620598
297,497.000,8.269448552661402
298,498.000,4.208131085627315
299,499.000,10.220704768002634
300,500.000,2.750791361286474
301,501.000,3.73607164394798
302,502.000,1.488334411382084
303,503.000,16.78927647586454
304,504.000,11.794876666509026
305,505.000,4.154433829221034
306,506.000,-8.09533117334513
307,507.000,15.861726538168796
308,508.000,3.0482518597806347
309,509.000,5.673235704123954
310,510.000,15.15356200040253
311,511.000,19.385450694347583
312,512.000,7.190377748172182
313,513.000,6.388636140527751
314,514.000,7.153009866459001
315,515.000,5.773227937360048
316,516.000,-1.5479886190695424
317,517.000,6.889696241129855
318,518.000,7.199878578134417
319,519.000,10.090831468292322
320,520.000,10.815368004079232
321,521.000,5.131362294054156
322,522.000,18.126282462815198
323,523.000,4.467454650955119
324,524.000,1.245042015016793
325,525.000,9.7245617274491
326,526.000,6.469536976562381
327,527.000,11.95488596648488
328,528.000,7.874995917116848
329,529.000,6.52943106408793
330,530.000,-1.053663341288484
331,531.000,0.09012696794115982
332,532.000,8.395052274326417
333,533.000,10.207961875967158
334,534.000,-1.9055269135290018
335,535.000,13.387177234907654
336,536.000,2.0048426657655227
337,537.000,0.09033873890655286
338,538.000,-2.3477711704775857
339,539.000,6.976258328089898
340,540.000,-1.1450733596731197
341,541.000,6.115198187147826
342,542.000,-0.5165725953808078
343,543.000,14.002304743915374
344,544.000,-2.1784713287253226
345,545.000,10.107567667954072
346,546.000,3.375726230185819
347,547.000,-2.87839313086738
348,548.000,-3.430661889156454
349,549.000,16.20177049620895
350,550.000,-0.005370419082396438
351,551.000,1.3283849354104404
352,552.000,-0.35411585516146715
353,553.000,-0.24053419098379436
354,554.000,10.725175542378679
355,555.000,-6.711600026062683
356,556.000,7.697781747233989
357,557.000,11.64943752029842
358,558.000,6.052616965603306
359,559.000,5.55220377001956
360,560.000,6.930192634772425
361,561.000,12.895071275396731
362,562.000,10.654672421692908
363,563.000,8.119492817682612
364,564.000,10.916873221564629
365,565.000,-10.938760594330688
366,566.000,13.750798156416295
367,567.000,-2.627982725731613
368,568.000,16.04151757368777
369,569.000,9.963488883092168
370,570.000,-5.110375955190079
371,571.000,7.40628291503549
372,572.000,1.9293563637860416
373,573.000,5.172408274856366
374,574.000,8.670459545774634
375,575.000,7.567564087758001
376,576.000,6.727831825668659
377,577.000,-8.178002302030905
378,578.000,3.523228656677702
379,579.000,3.992543667325208
380,580.000,8.793139708909393
381,581.000,15.05149577385123
382,582.000,-3.5725991320497315
383,583.000,20.541414010340645
384,584.000,14.587048233446694
385,585.000,7.156974582938233
386,586.000,6.767290117686798
387,587.000,11.388500909720847
388,588.000,7.27957904418156
389,589.000,6.357543619278317
390,590.000,8.67181874624498
391,591.000,6.195834549295228
392,592.000,11.351689165577568
393,593.000,6.057882745131792
394,594.000,6.5228914508447815
395,595.000,5.044608458405378
396,596.000,13.778005956260358
397,597.000,5.247074145570878
398,598.000,10.01035724016674
399,599.000,3.547124466503419
400,600.000,12.824466063616342
401,601.000,8.897880283078166
402,602.000,0.8004383889528981
403,603.000,14.449278657752416
404,604.000,27.42859237839218
405,605.000,11.245166852146554
406,606.000,32.12055839260438
407,607.000,12.19855232562486
408,608.000,14.684224989293625
409,609.000,35.20718273387786
410,610.000,24.568565921781442
411,611.000,38.102210927502256
412,612.000,36.6819391375858
413,613.000,58.263725950582625
414,614.000,56.78060577700319
415,615.000,75.24163803927377
416,616.000,95.54540317169096
417,617.000,126.37093162037934
418,618.000,144.43187684324607
419,619.000,179.4429233099363
420,620.000,185.42949050178913
421,621.000,167.99611891179325
422,622.000,140.66903404454297
423,623.000,117.68220941619359
424,624.000,105.20463055441621
425,625.000,80.29315399835559
426,626.000,71.67539229858323
427,627.000,60.55826601705462
428,628.000,46.03296472706484
429,629.000,39.15744801320341
430,630.000,33.89693147131095
431,631.000,26.46685170843398
432,632.000,28.136248342780846
433,633.000,12.105036003678151
434,634.000,23.360720331525272
435,635.000,3.3219999777500107
436,636.000,17.280808604765753
437,637.000,16.6938948859256
438,638.000,13.146976505478506
439,639.000,5.732575158525378
440,640.000,9.492984550973915
441,641.000,12.804298399494655
442,642.000,13.177609431477322
443,643.000,-6.663599615014846
444,644.000,5.150527008711833
445,645.000,10.149040061936375
446,646.000,4.759329314478919
447,647.000,14.72684954665624
448,648.000,8.869138549238869
449,649.000,13.052146123403418
450,650.000,12.150316080692619
451,651.000,10.742502242967475
452,652.000,0.6029854423638881
453,653.000,19.28854152125018
454,654.000,6.536632332179124
455,655.000,-8.924982262152525
456,656.000,5.221392611048486
457,657.000,19.174027834629896
458,658.000,4.790050301448446
459,659.000,9.82994591432498
460,660.000,7.960517586001515
461,661.000,3.3530572390964153
462,662.000,6.7403268060595565
463,663.000,4.254015229128072
464,664.000,5.457560460282139
465,665.000,-3.78656253879808
466,666.000,1.3510452032207922
467,667.000,5.137769667282328
468,668.000,1.3669698438970954
469,669.000,2.286119733095802
470,670.000,-6.993933655612864
471,671.000,-0.9676743032878221
472,672.000,-1.4944401815998845
473,673.000,-3.312948252874321
474,674.000,2.1899245298614005
475,675.000,-4.317879777162943
476,676.000,9.290703891492512
477,677.000,-7.252642389565608
478,678.000,-3.957569536607707
479,679.000,-4.104328456825897
480,680.000,-6.124673048379691
481,681.000,4.376892799561574
482,682.000,5.833166206773967
483,683.000,-0.8075056980658246
484,684.000,-10.368975777425248
485,685.000,13.647477115040601
486,686.000,-2.0415948655549983
487,687.000,8.014532444623455
488,688.000,-9.308803781907727
489,689.000,-4.841414364000002
490,690.000,-2.1286981119119446
491,691.000,10.479758172642278
492,692.000,5.890758696451712
493,693.000,9.079184674760882
494,694.000,-6.41746866877088
495,695.000,8.313478897883215
496,696.000,-6.051948384924799
497,697.000,5.319898731436979
498,698.000,5.404709503835875
499,699.000,8.1529761973311
500,700.000,-9.563278914872626
501,701.000,2.8634984485345285
502,702.000,6.656280576918789
503,703.000,6.321902767661868
504,704.000,3.874586326113331
505,705.000,4.940563565550292
506,706.000,8.108485807128773
507,707.000,8.11466237984314
508,708.000,-2.243436379520517
509,709.000,-6.627929126428853
510,710.000,7.829917491356355
511,711.000,6.842981833731983
512,712.000,7.854479268210298
513,713.000,4.012726169873986
514,714.000,2.4774529213316328
515,715.000,5.137181912674578
516,716.000,5.300990541431474
517,717.000,11.65970221252428
518,718.000,7.95675633822384
519,719.000,0.9332463381056186
520,720.000,-9.750817360994233
521,721.000,6.548189674975674
522,722.000,-4.307476112760696
523,723.000,4.653338724147488
524,724.000,-3.0799953588668814
525,725.000,-4.208247899330672
526,726.000,-6.234437427777721
527,727.000,1.4034525322090303
528,728.000,5.154111463951267
529,729.000,-9.445165142367841
530,730.000,-1.6621987897469808
531,731.000,-8.882916974414002
532,732.000,15.344310814132541
533,733.000,3.285531093077907
534,734.000,9.954446386246445
535,735.000,-1.8055017759411385
536,736.000,13.303548143485614
537,737.000,-7.252466311995704
538,738.000,-5.742687592445918
539,739.000,-11.725403141506604
540,740.000,-3.5565633964467906
541,741.000,-0.011113788206330355
542,742.000,1.7004812585605578
543,743.000,-3.899990674560968
544,744.000,-1.24355099978834
545,745.000,-5.235269123187663
546,746.000,5.234152555283117
547,747.000,-0.17466835827235627
548,748.000,9.813836748270433
549,749.000,-4.276910506990816
550,750.000,-2.1143975000275077
551,751.000,0.09430839907440713
552,752.000,-4.1485271739290965
553,753.000,-2.131941577485577
554,754.000,3.2042458357111627
555,755.000,12.980866718675543
556,756.000,3.1212687300858306
557,757.000,4.941660534240327
558,758.000,5.538138801012792
559,759.000,4.917797205808483
560,760.000,8.545545429518825
561,761.000,4.1889921584790955
562,762.000,12.297011084420546
563,763.000,0.8598579044303278
564,764.000,5.4404833209039225
565,765.000,13.895508041502353
566,766.000,6.589295779107715
567,767.000,4.461307251777498
568,768.000,4.185166182703142
569,769.000,14.182778300162227
570,770.000,-2.978147662523952
571,771.000,1.6218770329662675
572,772.000,13.060418129907703
573,773.000,8.872555376486844
574,774.000,8.686521525756007
575,775.000,-3.3601966644112053
576,776.000,-3.316827431363663
577,777.000,0.16379999228388442
578,778.000,9.100545378604238
579,779.000,11.355515504315235
580,780.000,14.422792150734722
581,781.000,11.1519101037361
582,782.000,17.61854015370477
583,783.000,10.02992409549256
584,784.000,27.97537672837393
585,785.000,29.503209856002968
586,786.000,34.68424528636683
587,787.000,41.739468831742215
588,788.000,41.88520630865173
589,789.000,48.69257953781903
590,790.000,62.069232344124885
591,791.000,58.58380055656107
592,792.000,77.0364230081891
593,793.000,76.0679735360934
594,794.000,99.82711198133757
595,795.000,97.7208901889203
596,796.000,93.66877100773195
597,797.000,89.35891429050821
598,798.000,70.3246718937869
599,799.000,62.76308167786419
600,800.000,64.99950450674874
601,801.000,41.74332224811906
602,802.000,46.74158777327784
603,803.000,28.213735957108383
604,804.000,27.363705678029874
605,805.000,29.990036817953523
606,806.000,36.747954262237045
607,807.000,32.349547899642175
608,808.000,26.84823362228849
609,809.000,16.822187325610685
610,810.000,23.241947908312795
611,811.000,8.404597272324509
612,812.000,18.557046322757515
613,813.000,5.199445967859901
614,814.000,7.114957118972825
615,815.000,5.62879669048516
616,816.000,9.873879599789916
617,817.000,10.090079767240923
618,818.000,13.674770116105492
619,819.000,16.68608257252299
620,820.000,2.2204760654590245
621,821.000,-0.052196473337744465
622,822.000,7.249123890617966
623,823.000,-2.094950905493988
624,824.000,-3.829368921844207
625,825.000,7.537752784000304
626,826.000,10.012290157035068
627,827.000,-1.0541378552297829
628,828.000,-0.9332853028113277
629,829.000,0.5852457667003819
630,830.000,8.921894308099809
631,831.000,-12.419447721481447
632,832.000,-1.3614563626158542
633,833.000,0.2869323463737601
634,834.000,-5.616238630629141
635,835.000,17.670746672420137
636,836.000,-5.684912776315741
637,837.000,-10.39444200660273
638,838.000,14.42176895382363
639,839.000,-3.847450920789015
640,840.000,6.339652345746799
641,841.000,-8.219253268485545
642,842.000,11.0987022164486
643,843.000,2.1175377822903556
644,844.000,8.838685412544237
645,845.000,0.14498409243196875
646,846.000,8.824498808849967
647,847.000,10.991057550323376
648,848.000,5.186141306963009
649,849.000,-7.612415929578674
650,850.000,-4.942824166153969
651,851.000,5.568594591837154
652,852.000,5.796495340403226
653,853.000,0.8204160769164446
654,854.000,-9.684388199932528
655,855.000,1.229312509822421
656,856.000,3.8707152073770885
657,857.000,11.41729089511432
658,858.000,0.3711585765588552
659,859.000,-1.29804074366848
660,860.000,2.9986869401082004
661,861.000,-4.885402365427353
662,862.000,-4.247708652626898
663,863.000,6.60783808707788
664,864.000,2.761736863131773
665,865.000,-1.7924303141896871
666,866.000,4.955558566176478
667,867.000,2.724569516035899
668,868.000,-12.632966452106984
669,869.000,5.198422674906169
670,870.000,5.645600910843314
671,871.000,-1.2448857299614247
672,872.000,8.618730767346051
673,873.000,-7.883223581901802
674,874.000,11.40812423805778
675,875.000,4.609805243378332
676,876.000,1.9904574505546861
677,877.000,-4.041558123617278
678,878.000,-7.98741246208715
679,879.000,2.5206264524058497
680,880.000,-7.751154362709713
681,881.000,3.8599581101148033
682,882.000,-2.1381561114924352
683,883.000,1.2265749901298477
684,884.000,-0.5666685673691063
685,885.000,-0.026365766394519596
686,886.000,-2.5343705894506456
687,887.000,-2.6530210191865535
688,888.000,4.860146961560986
689,889.000,-15.060748630277885
690,890.000,1.7693272219505616
691,891.000,-2.4455364654220375
692,892.000,-0.23627467642813826
693,893.000,-3.955623395512248
694,894.000,5.271563392429243
695,895.000,-6.144754298000862
696,896.000,-1.4828774527416044
697,897.000,1.7205109416809137
698,898.000,-5.0895131018917255
699,899.000,7.0621234287061725
700,900.000,0.33680754492070264
701,901.000,-6.0369177425673115
702,902.000,4.303047576113613
703,903.000,3.8091835099828586
704,904.000,6.234420067161409
705,905.000,-3.485116745172263
706,906.000,-2.74275992082471
707,907.000,-7.150725454634312
708,908.000,6.67900265748608
709,909.000,-0.25065358149549866
710,910.000,-5.5537651697757155
711,911.000,4.6826348932424935
712,912.000,0.6760586069024157
713,913.000,3.8889299692509667
714,914.000,0.9212719769941486
715,915.000,-7.1844723745468855
716,916.000,-1.4104680914813343
717,917.000,4.057211818607584
718,918.000,-13.79866565338125
719,919.000,0.505879481888087
720,920.000,1.1935812121444087
721,921.000,-7.379768476535219
722,922.000,-3.8559645997681855
723,923.000,-6.997470174913133
724,924.000,-1.6291872211124883
725,925.000,3.993462240662211
726,926.000,-3.6925648124331474
727,927.000,-7.1199864051607165
728,928.000,12.57053443575569
729,929.000,-4.961413318412042
730,930.000,2.050792301554793
731,931.000,11.540281262781718
732,932.000,-8.437593469744797
733,933.000,3.3164100667781895
734,934.000,1.1568388329253594
735,935.000,-5.830644212999914
736,936.000,-6.438566115012009
737,937.000,-6.403976919483739
738,938.000,-2.7171186751954792
739,939.000,3.4622305666248394
740,940.000,-0.41446824774584456
741,941.000,-7.007406174567905
742,942.000,-2.2998362726848427
743,943.000,16.857453396434494
744,944.000,1.3656627686484626
745,945.000,9.905088777100218
746,946.000,0.009038352174911779
747,947.000,-7.600983578548494
748,948.000,-3.237707090338972
749,949.000,11.042770738642503
750,950.000,5.082763827296276
751,951.000,0.26472109154337886
752,952.000,4.808310444277367
753,953.000,3.9072187953217963
754,954.000,5.386261051386327
755,955.000,10.973381116021528
756,956.000,9.324744889574504
757,957.000,2.64209626914635
758,958.000,10.849629148544182
759,959.000,-0.28618958176025444
760,960.000,3.36758496532525
761,961.000,1.0741406734666725
762,962.000,-0.6851695771383675
763,963.000,16.051320090194395
764,964.000,-0.005808451409166082
765,965.000,8.941224667574716
766,966.000,17.663871313023492
767,967.000,0.13145234712328602
768,968.000,8.187750628326057
769,969.000,12.420175011303627
770,970.000,14.36772834690305
771,971.000,15.258687482105188
772,972.000,22.617515259976244
773,973.000,7.269278519627278
774,974.000,17.45242809616684
775,975.000,14.251640820658167
776,976.000,18.070469520075676
777,977.000,18.08985701725851
778,978.000,14.04273513086764
779,979.000,18.17007467534063
780,980.000,13.468568460848019
781,981.000,16.943969293249438
782,982.000,32.221727974048235
783,983.000,34.70559530034711
784,984.000,39.66582506480495
785,985.000,34.44369405559041
786,986.000,41.3402190563404
787,987.000,50.35722884611323
788,988.000,63.29493819934555
789,989.000,56.71709288580837
790,990.000,73.86703667056076
791,991.000,93.2411103139084
792,992.000,104.00848057135636
793,993.000,117.86990219356721
794,994.000,164.5254169263144
795,995.000,204.43034051044015
796,996.000,266.92190368180945
797,997.000,363.53316517126655
798,998.000,501.9035057045903
799,999.000,694.5002320024505
800,1000.000,891.1192147803617
801,1001.000,1000.3240057486414
802,1002.000,897.5249286123637
803,1003.000,690.7861670713164
804,1004.000,503.65013581995504
805,1005.000,365.8173655473604
806,1006.000,281.7781579371929
807,1007.000,204.9123756676488
808,1008.000,156.63046241141524
809,1009.000,131.65490383562656
810,1010.000,105.81559860181983
811,1011.000,97.80816536589123
812,1012.000,73.63874277804916
813,1013.000,64.2708084827741
814,1014.000,56.3186671187691
815,1015.000,76.6580593189201
816,1016.000,66.93378271024926
817,1017.000,60.90537791387078
818,1018.000,55.136818544947346
819,1019.000,59.57390321264393
820,1020.000,56.99423952008692
821,1021.000,61.44791406431568
822,1022.000,70.17500843624157
823,1023.000,87.60964622060146
824,1024.000,103.55963599591428
825,1025.000,113.46492333443712
826,1026.000,149.21532080211978
827,1027.000,187.60501595856113
828,1028.000,245.1559323569645
829,1029.000,326.7056435440941
830,1030.000,395.59241406022875
831,1031.000,427.17767243912135
832,1032.000,391.7744922079489
833,1033.000,323.88370088727356
834,1034.000,245.59797199099535
835,1035.000,190.4177460263088
836,1036.000,142.7943154936579
837,1037.000,115.46650388669241
838,1038.000,92.15860569222332
839,1039.000,67.29024539017837
840,1040.000,49.43908045355897
841,1041.000,50.67160934839285
842,1042.000,45.56513553369359
843,1043.000,30.68269146141256
844,1044.000,39.63512057639696
845,1045.000,23.9398313163465
846,1046.000,22.882547111764325
847,1047.000,15.996817385918348
848,1048.000,20.555760554793324
849,1049.000,24.20768302704755
850,1050.000,19.213072203968522
851,1051.000,13.13025647942959
852,1052.000,13.718064239842988
853,1053.000,10.198869864118251
854,1054.000,19.465969723616354
855,1055.000,11.156275182105674
856,1056.000,-1.781652404282113
857,1057.000,24.542889312903753
858,1058.000,7.3909706743886545
859,1059.000,8.592554013127483
860,1060.000,4.613025654261946
861,1061.000,4.899460915073632
862,1062.000,9.458632104943263
863,1063.000,-2.1350014746974466
864,1064.000,7.611652469593082
865,1065.000,9.197121223219938
866,1066.000,6.8381010635082475
867,1067.000,2.9025502596582555
868,1068.000,6.4082430727014525
869,1069.000,13.917419755456876
870,1070.000,14.575928552484584
871,1071.000,14.728214700044646
872,1072.000,5.280562426048846
873,1073.000,6.462200950020133
874,1074.000,18.72887048304551
875,1075.000,7.523177227732731
876,1076.000,2.912295378167528
877,1077.000,2.9392971198658415
878,1078.000,0.5552136297319521
879,1079.000,-7.0973669239851915
880,1080.000,-6.235915381739687
881,1081.000,2.793803407270616
882,1082.000,11.372859585057995
883,1083.000,4.053292284800818
884,1084.000,-11.076789369201151
885,1085.000,-1.0476292615701368
886,1086.000,6.225331714103959
887,1087.000,-3.275255344779225
888,1088.000,2.136529650124203
889,1089.000,1.0862197780570568
890,1090.000,0.5333161091198235
891,1091.000,-4.001343295777588
892,1092.000,-1.9849443849566342
893,1093.000,7.5908238839838305
894,1094.000,4.724184544121499
895,1095.000,1.6945426191703064
896,1096.000,2.6011071234329393
897,1097.000,8.220558061757401
898,1098.000,11.71184442949334
899,1099.000,1.8841972124457698
900,1100.000,8.105754386833723
901,1101.000,-0.5014370807566593
902,1102.000,9.30487776658424
903,1103.000,2.625448876046221
904,1104.000,0.47912718505313023
905,1105.000,-4.629101378779296
906,1106.000,10.756224102309716
907,1107.000,3.507636536183327
908,1108.000,6.322399820763167
909,1109.000,4.141958843983275
910,1110.000,-5.027155516252378
911,1111.000,-3.0327613921169814
912,1112.000,-1.8311269259006622
913,1113.000,6.709801729940182
914,1114.000,3.5050174127411537
915,1115.000,-3.638119050413934
916,1116.000,2.2562501572608653
917,1117.000,13.392861842210777
918,1118.000,12.186660800495474
919,1119.000,-0.740865182256357
920,1120.000,3.1761696691096404
921,1121.000,12.286528119230297
922,1122.000,10.786757922178822
923,1123.000,10.20203182141995
924,1124.000,1.383564549769062
925,1125.000,1.2779628293426413
926,1126.000,5.49857137151912
927,1127.000,15.077206876891523
928,1128.000,4.326444035222721
929,1129.000,9.572714525403853
930,1130.000,2.014519015407359
931,1131.000,-0.531949837756656
932,1132.000,10.465163611915841
933,1133.000,13.03885499937951
934,1134.000,11.294582948491097
935,1135.000,10.448203071970738
936,1136.000,-5.964332028646822
937,1137.000,7.5077082369443815
938,1138.000,30.44199744778075
939,1139.000,4.973502171578957
940,1140.000,16.360051964695685
941,1141.000,28.87925037208288
942,1142.000,33.424864927241515
943,1143.000,27.879754152179657
944,1144.000,27.895585557365848
945,1145.000,29.354610641685895
946,1146.000,29.411502892399312
947,1147.000,42.575429785094
948,1148.000,35.754798783640354
949,1149.000,63.69301334015154
950,1150.000,60.40273189493405
951,1151.000,81.63229787644673
952,1152.000,102.75040070125397
953,1153.000,133.37838477398486
954,1154.000,144.01450448728383
955,1155.000,148.65012322177176
956,1156.000,133.42644934599707
957,1157.000,123.63146221639522
958,1158.000,122.70571417724113
959,1159.000,90.73637056060625
960,1160.000,81.4225406863145
961,1161.000,50.10670086189839
962,1162.000,50.33947838255244
963,1163.000,40.42338853109186
964,1164.000,52.97096257790531
965,1165.000,35.28481778091259
966,1166.000,38.0802253855195
967,1167.000,22.255292624574167
968,1168.000,22.86441671832131
969,1169.000,34.29775987435937
970,1170.000,20.207160287596253
971,1171.000,22.738491140201404
972,1172.000,30.12061260156861
973,1173.000,21.640543828264754
974,1174.000,28.189987963988187
975,1175.000,28.7715691395249
976,1176.000,45.65418747270405
977,1177.000,47.841582068352636
978,1178.000,60.156270018252826
979,1179.000,66.3732364010948
980,1180.000,90.75107828243563
981,1181.000,115.80631671465221
982,1182.000,106.41755373689989
983,1183.000,124.88599837506513
984,1184.000,120.337475641722
985,1185.000,98.21327853609
986,1186.000,93.47338104398705
987,1187.000,64.52284413778602
988,1188.000,49.646552776371436
989,1189.000,58.359664905092586
990,1190.000,41.02849745572257
991,1191.000,38.517766346411236
992,1192.000,24.200457481641024
993,1193.000,22.474418752185557
994,1194.000,9.805067035061711
995,1195.000,27.49387319348807
996,1196.000,2.5085830768359756
997,1197.000,3.264595520592593
998,1198.000,11.500836346309598
999,1199.000,11.485332361564133
1000,1200.000,17.911518359908996
1001,1201.000,-7.756818879166303
1002,1202.000,9.004670409716937
1003,1203.000,3.4003199777832833
1004,1204.000,-5.369858437941275
1005,1205.000,-13.01887811467418
1006,1206.000,9.095527656079867
1007,1207.000,6.585628568486072
1008,1208.000,-3.3538526976697085
1009,1209.000,2.133547522981644
1010,1210.000,7.863884881342074
1011,1211.000,-1.2055449861938996
1012,1212.000,6.887997542213952
1013,1213.000,1.6984600738082918
1014,1214.000,2.576112201190199
1015,1215.000,-1.3198604977258128
1016,1216.000,-1.454243459755844
1017,1217.000,0.1616218635081168
1018,1218.000,4.880395005656055
1019,1219.000,7.108251485413575
1020,1220.000,11.440862806597806
1021,1221.000,2.4621134580754642
1022,1222.000,8.1044019137139
1023,1223.000,3.237577632339935
1024,1224.000,11.197255057697703
1025,1225.000,-2.570337381602485
1026,1226.000,0.8496297278793463
1027,1227.000,3.467418784362735
1028,1228.000,-4.965804829195804
1029,1229.000,-7.270951745144657
1030,1230.000,0.7939423888130932
1031,1231.000,0.2579049095809296
1032,1232.000,-0.30583286137675714
1033,1233.000,-9.693786618082413
1034,1234.000,-3.2901570700871616
1035,1235.000,1.166235057486574
1036,1236.000,-5.475031976101491
1037,1237.000,-0.38918092725498354
1038,1238.000,-8.448921568080777
1039,1239.000,11.849216313559737
1040,1240.000,5.9884929140148415
1041,1241.000,2.663598413790396
1042,1242.000,3.826818977510129
1043,1243.000,5.074002753870673
1044,1244.000,8.073634875594735
1045,1245.000,3.2658514593902055
1046,1246.000,0.8630866059043001
1047,1247.000,-5.865449600323245
1048,1248.000,3.341794909101054
1049,1249.000,6.859084186373821
1050,1250.000,2.8883432674567757
1051,1251.000,1.3801231720256055
1052,1252.000,-5.5338500965681305
1053,1253.000,-1.345072551344856
1054,1254.000,0.44324477825944086
1055,1255.000,-5.74447515365091
1056,1256.000,4.509545590524112
1057,1257.000,1.4588909318351853
1058,1258.000,1.7906197747431634
1059,1259.000,-7.8145149929328
1060,1260.000,-13.849088500051494
1061,1261.000,0.7272031078018699
1062,1262.000,-0.14421633173014925
1063,1263.000,0.6037870021839353
1064,1264.000,2.1939909135135167
1065,1265.000,-6.164585810673998
1066,1266.000,4.556558599742175
1067,1267.000,7.038793897889491
1068,1268.000,-1.828804180140196
1069,1269.000,-13.168929915334957
1070,1270.000,8.668242394190884
1071,1271.000,3.568507433155446
1072,1272.000,6.954580869062511
1073,1273.000,-7.697504647841697
1074,1274.000,2.0082975153843563
1075,1275.000,-8.86475602565929
1076,1276.000,-6.757416672768841
1077,1277.000,1.81787215482791
1078,1278.000,-2.631473979577777
1079,1279.000,-0.47317653021900696
1080,1280.000,-2.4798379688952537
1081,1281.000,11.806883214979507
1082,1282.000,11.775480514334959
1083,1283.000,-2.315025595599991
1084,1284.000,8.895292342657058
1085,1285.000,0.31091176879886007
1086,1286.000,11.11007610468505
1087,1287.000,5.800181754296091
1088,1288.000,-4.399906896312359
1089,1289.000,5.822466520950911
1090,1290.000,-4.526599643834288
1091,1291.000,-14.232753058648314
1092,1292.000,4.2981385904327
1093,1293.000,0.9521145991850517
1094,1294.000,-1.2518947548014694
1095,1295.000,2.953196787827892
1096,1296.000,-0.1277695318494807
1097,1297.000,-6.976755491076801
1098,1298.000,11.518731114535058
1099,1299.000,5.444128470963733
1100,1300.000,-7.924645254265215
1101,1301.000,2.091750087870878
1102,1302.000,2.1746146278542255
1103,1303.000,7.281186477576739
1104,1304.000,-7.851524269700121
1105,1305.000,8.86898146060662
1106,1306.000,2.911328724361283
1107,1307.000,3.447839558661144
1108,1308.000,6.326042981792625
1109,1309.000,-5.167731006808481
1110,1310.000,0.35736757339168435
1111,1311.000,3.0345296839864204
1112,1312.000,1.374715267583042
1113,1313.000,-1.0898167522450422
1114,1314.000,-8.149072470998817
1115,1315.000,-0.2504310032995818
1116,1316.000,0.5646905170674472
1117,1317.000,-9.747963062890904
1118,1318.000,-6.379866915424827
1119,1319.000,-5.815239232076237
1120,1320.000,-0.5077112237329402
1121,1321.000,10.812020879334113
1122,1322.000,-9.599620172579307
1123,1323.000,-5.510115648649617
1124,1324.000,6.107603162426585
1125,1325.000,2.532198952388626
1126,1326.000,-4.706327606629884
1127,1327.000,2.8832761378503164
1128,1328.000,-4.032703181386523
1129,1329.000,-4.142447951297299
1130,1330.000,-5.30087757862384
1131,1331.000,-4.227210489937534
1132,1332.000,3.576764868317696
1133,1333.000,4.136368029777259
1134,1334.000,-1.3271844918835995
1135,1335.000,1.222179797002127
1136,1336.000,-10.719209629948182
1137,1337.000,1.9157136807859843
1138,1338.000,-2.633153837413829
1139,1339.000,-6.26557077134953
1140,1340.000,4.416178271947047
1141,1341.000,4.305394665172798
1142,1342.000,-6.791008239294115
1143,1343.000,3.0258718905640762
1144,1344.000,10.273165366358171
1145,1345.000,1.5035684792519532
1146,1346.000,5.448282499910647
1147,1347.000,2.8653966784636395
1148,1348.000,-2.032870755544309
1149,1349.000,3.2367664068058275
1150,1350.000,3.131414353758373
1151,1351.000,9.30485525284439
1152,1352.000,0.7163642508314751
1153,1353.000,-0.9646885263141485
1154,1354.000,1.381783026522271
1155,1355.000,-2.6213220064369125
1156,1356.000,2.2268284380920704
1157,1357.000,0.45054040241120674
1158,1358.000,-3.3481090922036856
1159,1359.000,11.708696954450488
1160,1360.000,6.509339521464881
1161,1361.000,6.585189566768577
1162,1362.000,-8.339521972912735
1163,1363.000,1.8150958178994188
1164,1364.000,-4.02741816660955
1165,1365.000,6.35559994640812
1166,1366.000,-2.180108991578436
1167,1367.000,-3.0841991505301394
1168,1368.000,5.747664278127331
1169,1369.000,-4.690288918550095
1170,1370.000,2.8482210249369473
1171,1371.000,-14.42890114751367
1172,1372.000,3.151213286344955
1173,1373.000,-5.06916697292786
1174,1374.000,2.535372753488673
1175,1375.000,-9.594054877363078
1176,1376.000,2.933137769732639
1177,1377.000,0.7700553081247108
1178,1378.000,3.4497813292459796
1179,1379.000,-4.174429597424023
1180,1380.000,7.637415075588251
1181,1381.000,9.476821873712652
1182,1382.000,2.7803703002871316
1183,1383.000,8.631940836516605
1184,1384.000,-9.262279058575814
1185,1385.000,-6.054035948189494
1186,1386.000,-2.245037417792446
1187,1387.000,2.9287479248371255
1188,1388.000,-1.1216035504369302
1189,1389.000,9.960068503847651
1190,1390.000,2.581273412708697
1191,1391.000,9.161841478675115
1192,1392.000,1.7662779817405863
1193,1393.000,-4.966267820680059
1194,1394.000,-0.7067956937912641
1195,1395.000,-0.061624425469972266
1196,1396.000,2.566479173701282
1197,1397.000,1.0061802703808098
1198,1398.000,7.191478008428703
1199,1399.000,1.8463825088595058
1200,1400.000,-2.3337901301999864
1201,1401.000,11.812065166442835
1202,1402.000,-2.063478548994226
1203,1403.000,0.847713752681102
1204,1404.000,2.2588360775991987
1205,1405.000,0.5815294087769871
1206,1406.000,1.1041827060792002
1207,1407.000,3.8563449061693973
1208,1408.000,-6.388805077531288
1209,1409.000,9.139831645112736
1210,1410.000,-4.264981059099227
1211,1411.000,17.78514265325839
1212,1412.000,6.771486602190407
1213,1413.000,-0.2629144157638166
1214,1414.000,-5.032615627573705
1215,1415.000,-1.3601122837640105
1216,1416.000,8.659988341545386
1217,1417.000,-3.800628049409397
1218,1418.000,4.836216221918903
1219,1419.000,2.4216458103503555
1220,1420.000,12.67630634692705
1221,1421.000,4.619013438872571
1222,1422.000,19.905254669545684
1223,1423.000,6.51637259839822
1224,1424.000,19.339281760927634
1225,1425.000,16.195699668635143
1226,1426.000,9.184419808980692
1227,1427.000,2.4410506453373273
1228,1428.000,25.96636461694993
1229,1429.000,23.238885138886417
1230,1430.000,15.011901601998488
1231,1431.000,29.51071037287352
1232,1432.000,20.03579179379267
1233,1433.000,11.839527182683696
1234,1434.000,24.927737833079618
1235,1435.000,30.27497201407118
1236,1436.000,51.769216970266825
1237,1437.000,49.24398792174338
1238,1438.000,46.15414606400623
1239,1439.000,56.44299156794136
1240,1440.000,72.24203957977488
1241,1441.000,74.3613952210253
1242,1442.000,99.51062858845921
1243,1443.000,94.98639775404968
1244,1444.000,125.87907376492944
1245,1445.000,134.93805864334786
1246,1446.000,172.21604838662574
1247,1447.000,178.40121896711207
1248,1448.000,204.382482332137
1249,1449.000,211.57341940397373
1250,1450.000,213.447992079786
1251,1451.000,216.69134623159107
1252,1452.000,190.0501217062083
1253,1453.000,192.93997632522087
1254,1454.000,166.6653568849281
1255,1455.000,142.26371715630376
1256,1456.000,125.25820588494867
1257,1457.000,110.73973579104859
1258,1458.000,83.90699056932885
1259,1459.000,76.98253188901026
1260,1460.000,66.55837639376568
1261,1461.000,57.58964270167144
1262,1462.000,37.17648540517166
1263,1463.000,41.42307707102327
1264,1464.000,50.82825424026146
1265,1465.000,28.070524428146882
1266,1466.000,37.93541712412912
1267,1467.000,30.42680079179695
1268,1468.000,24.060724868834996
1269,1469.000,21.91148576698015
1270,1470.000,22.27710287197806
1271,1471.000,14.66663954353703
1272,1472.000,17.899956115283658
1273,1473.000,5.728772894721487
1274,1474.000,2.1654871631835704
1275,1475.000,17.666960175787835
1276,1476.000,6.315778161396111
1277,1477.000,9.822399322566525
1278,1478.000,13.919588835509785
1279,1479.000,8.575189850046854
1280,1480.000,1.6331474895605425
1281,1481.000,0.8710238509556802
1282,1482.000,21.04154800461356
1283,1483.000,9.309277994345848
1284,1484.000,9.31039383735083
1285,1485.000,7.681805524171068
1286,1486.000,9.090510018644181
1287,1487.000,1.9631742578669673
1288,1488.000,-2.1164838478571255
1289,1489.000,2.855553584938434
1290,1490.000,6.337743412845157
1291,1491.000,0.320218465531525
1292,1492.000,2.9015375456956463
1293,1493.000,-2.7906665709758727
1294,1494.000,1.3124258641505548
1295,1495.000,2.8301015726026435
1296,1496.000,4.781794248768165
1297,1497.000,5.05282355984059
1298,1498.000,5.875058145784578
1299,1499.000,5.371849619283921
1300,1500.000,5.954706565702054
1301,1501.000,2.2792875430329786
1302,1502.000,-5.53857191813654
1303,1503.000,-3.064121314680051
1304,1504.000,3.153137829034222
1305,1505.000,9.960927961092693
1306,1506.000,1.6077895019909647
1307,1507.000,-7.686321155406404
1308,1508.000,9.689473354089387
1309,1509.000,4.898418367944487
1310,1510.000,8.288876195859302
1311,1511.000,12.30085311972607
1312,1512.000,-6.271318606421573
1313,1513.000,1.7899112435570714
1314,1514.000,-17.707852132146627
1315,1515.000,4.09137843667645
1316,1516.000,-1.8941119077978783
1317,1517.000,1.2399179485296372
1318,1518.000,0.6590790916372953
1319,1519.000,0.28878357934218
1320,1520.000,-2.797920558753731
1321,1521.000,-0.6492923212961159
1322,1522.000,-2.611873735229665
1323,1523.000,-4.116768855845521
1324,1524.000,-8.382103766815135
1325,1525.000,-1.6976915802445092
1326,1526.000,-0.6940804367125111
1327,1527.000,-2.517200505319124
1328,1528.000,11.801482016274349
1329,1529.000,4.409295901793939
1330,1530.000,-5.684373103681082
1331,1531.000,7.803484716226876
1332,1532.000,3.9958360491575604
1333,1533.000,6.297150553964002
1334,1534.000,7.8748828606699135
1335,1535.000,-9.87521842957517
1336,1536.000,9.771774255461196
1337,1537.000,-5.18706754095615
1338,1538.000,-5.593469304563769
1339,1539.000,1.8748604498489385
1340,1540.000,5.234045178393217
1341,1541.000,-12.385023691955439
1342,1542.000,1.3139832365918664
1343,1543.000,8.760893332596424
1344,1544.000,2.651248935344711
1345,1545.000,5.573043354808988
1346,1546.000,9.267000871594064
1347,1547.000,4.698196736905402
1348,1548.000,1.0024861724918992
1349,1549.000,9.147747370610432
1350,1550.000,14.732131493981115
1351,1551.000,-9.36147532426412
1352,1552.000,7.386015019382285
1353,1553.000,2.709509598754039
1354,1554.000,11.28957245797119
1355,1555.000,9.601004611387225
1356,1556.000,6.17416804355571
1357,1557.000,0.7275707091773711
1358,1558.000,11.473965533062255
1359,1559.000,12.222301410080263
1360,1560.000,13.03762920511872
1361,1561.000,21.819898753038842
1362,1562.000,12.990006858632114
1363,1563.000,23.194963296569085
1364,1564.000,27.07056281136761
1365,1565.000,28.64630811733491
1366,1566.000,12.606204898534088
1367,1567.000,14.246908808733906
1368,1568.000,20.147157471365972
1369,1569.000,24.14373347948026
1370,1570.000,22.502492395700983
1371,1571.000,32.05743975218343
1372,1572.000,33.52731705056408
1373,1573.000,47.310631761925606
1374,1574.000,48.93300932674424
1375,1575.000,62.472356154850104
1376,1576.000,82.1880256253803
1377,1577.000,90.73050708673782
1378,1578.000,110.03993185654372
1379,1579.000,130.70632822159428
1380,1580.000,159.03358643781417
1381,1581.000,193.62805873021944
1382,1582.000,199.30692229286365
1383,1583.000,226.4752372887997
1384,1584.000,221.97304585003667
1385,1585.000,211.46918507748728
1386,1586.000,178.49269004093344
1387,1587.000,155.890873778975
1388,1588.000,144.35297129899118
1389,1589.000,127.94126457708921
1390,1590.000,131.4691005580646
1391,1591.000,122.0346461553554
1392,1592.000,135.3722812510009
1393,1593.000,139.30696969559244
1394,1594.000,155.19646230823219
1395,1595.000,175.25796587648915
1396,1596.000,204.0186891563535
1397,1597.000,249.14958687218814
1398,1598.000,316.6405117166951
1399,1599.000,411.0049863508593
1400,1600.000,511.0935824039125
1401,1601.000,595.5918934732874
1402,1602.000,617.565767124569
1403,1603.000,589.4892328914561
1404,1604.000,499.1448602757114
1405,1605.000,394.9652307471231
1406,1606.000,317.94266774345306
1407,1607.000,245.26582467040294
1408,1608.000,196.3151089015564
1409,1609.000,149.94091177834775
1410,1610.000,123.81402861000947
1411,1611.000,105.22246567353181
1412,1612.000,87.4628962136162
1413,1613.000,87.34991044263165
1414,1614.000,62.54180954057051
1415,1615.000,64.4229736550044
1416,1616.000,63.55281690103766
1417,1617.000,47.838146361267036
1418,1618.000,41.67833508573608
1419,1619.000,34.7790310918881
1420,1620.000,18.956084364524713
1421,1621.000,24.351782855758756
1422,1622.000,30.40012948497565
1423,1623.000,26.32836913877918
1424,1624.000,15.991009670959329
1425,1625.000,17.688761902434635
1426,1626.000,22.941036621222565
1427,1627.000,9.586928582383052
1428,1628.000,11.735022507978329
1429,1629.000,18.266152087031287
1430,1630.000,8.20490597547905
1431,1631.000,14.28013479612332
1432,1632.000,15.978069138596766
1433,1633.000,4.776270559309751
1434,1634.000,13.976001581409491
1435,1635.000,10.32145869473743
1436,1636.000,4.179649355782431
1437,1637.000,12.995944987634402
1438,1638.000,-4.4698600200563305
1439,1639.000,0.137326688880421
1440,1640.000,5.336972437074792
1441,1641.000,0.6428625135945367
1442,1642.000,-8.24796082611988
1443,1643.000,-4.239826360284951
1444,1644.000,5.837174099174945
1445,1645.000,13.908630706583608
1446,1646.000,4.011211582469286
1447,1647.000,-7.371423186477614
1448,1648.000,8.96759045254612
1449,1649.000,0.7155715184162545
1450,1650.000,9.119443996036125
1451,1651.000,-1.9369301637070748
1452,1652.000,9.656500956011087
1453,1653.000,0.6622202379089686
1454,1654.000,7.156828530555231
1455,1655.000,-1.5310203516735328
1456,1656.000,7.737182371356994
1457,1657.000,8.80824544549705
1458,1658.000,3.127130582274276
1459,1659.000,-3.692977541160417
1460,1660.000,5.948516717929806
1461,1661.000,3.0185059678231028
1462,1662.000,15.399909782288432
1463,1663.000,-7.179325299451875
1464,1664.000,-10.607556772764156
1465,1665.000,3.1620128323354493
1466,1666.000,-2.1889510488381347
1467,1667.000,0.13866698429137614
1468,1668.000,-1.1718557024616985
1469,1669.000,3.979544221897868
1470,1670.000,9.325410053507994
1471,1671.000,1.6617960535988914
1472,1672.000,2.2463844484582296
1473,1673.000,7.365275429376652
1474,1674.000,0.6009951526068562
1475,1675.000,12.761886739326883
1476,1676.000,-8.166096724419958
1477,1677.000,1.4110428122460235
1478,1678.000,3.1765343649910847
1479,1679.000,-4.62969908578134
1480,1680.000,-3.646466594966796
1481,1681.000,14.076761747188812
1482,1682.000,-3.6746831849511636
1483,1683.000,-3.528718552456894
1484,1684.000,6.386192448114798
1485,1685.000,10.027185584691324
1486,1686.000,1.8771545896240696
1487,1687.000,-1.9134378403452956
1488,1688.000,13.280575955867334
1489,1689.000,-3.6383263963577974
1490,1690.000,-3.7389593073835385
1491,1691.000,7.328681776629992
1492,1692.000,-3.0472426263031593
1493,1693.000,-3.890442034057287
1494,1694.000,-3.5967960004231827
1495,1695.000,-3.6058471151629874
1496,1696.000,-5.743033004049494
1497,1697.000,-3.660228328913945
1498,1698.000,1.8490522123136088
1499,1699.000,2.158476885553
1500,1700.000,-6.9094680794569285
1501,1701.000,-12.789009489221826
1502,1702.000,9.865598813482848
1503,1703.000,-6.430978050446129
1504,1704.000,-2.1711119964743375
1505,1705.000,4.517839023516217
1506,1706.000,6.703869021191622
1507,1707.000,5.375212971718611
1508,1708.000,4.14420781371382
1509,1709.000,6.40520144921129
1510,1710.000,1.0568637436078916
1511,1711.000,0.6955475256261252
1512,1712.000,-9.999711412733859
1513,1713.000,1.1162716837611697
1514,1714.000,10.493775533534063
1515,1715.000,1.732491818155495
1516,1716.000,3.879395182292683
1517,1717.000,0.8293472336745253
1518,1718.000,-5.183063456964646
1519,1719.000,2.0318566440846553
1520,1720.000,5.105897033453402
1521,1721.000,-5.10631782935252
1522,1722.000,-13.011063521984852
1523,1723.000,4.8762083406898
1524,1724.000,7.043293106553847
1525,1725.000,-5.070088913812924
1526,1726.000,3.9807585528353684
1527,1727.000,-3.1267662576524344
1528,1728.000,13.205065853148426
1529,1729.000,-10.204427953812683
1530,1730.000,12.844810444890072
1531,1731.000,3.474012135122848
1532,1732.000,1.868688165140611
1533,1733.000,5.858352545542857
1534,1734.000,20.14288924923858
1535,1735.000,4.1554892113897495
1536,1736.000,-6.101249670625748
1537,1737.000,-7.129468537257253
1538,1738.000,-5.222765566833004
1539,1739.000,4.228268024402723
1540,1740.000,4.881332982242384
1541,1741.000,4.722554014470916
1542,1742.000,-7.315898209180432
1543,1743.000,-6.28079605707353
1544,1744.000,10.7794400642847
1545,1745.000,10.669905710207331
1546,1746.000,-0.7733546022225255
1547,1747.000,1.9974326058033967
1548,1748.000,15.13318077477561
1549,1749.000,1.204042306824249
1550,1750.000,3.4704535656687767
1551,1751.000,8.072992876582248
1552,1752.000,10.70675852634372
1553,1753.000,6.6343527631850066
1554,1754.000,-0.37457120323801973
1555,1755.000,4.210221798098246
1556,1756.000,5.1576828995480355
1557,1757.000,12.063059194745165
1558,1758.000,0.5395187385668123
1559,1759.000,-0.5799104529219221
1560,1760.000,7.497531597500938
1561,1761.000,-4.646697171842334
1562,1762.000,5.022398138435165
1563,1763.000,-0.9676106112610796
1564,1764.000,4.190007400442937
1565,1765.000,-3.971516044146938
1566,1766.000,0.6420397981594306
1567,1767.000,-2.6440753686115386
1568,1768.000,-2.9803288796356355
1569,1769.000,11.604058890666693
1570,1770.000,-0.5375344714288985
1571,1771.000,-4.534782418974601
1572,1772.000,-1.9189894444079982
1573,1773.000,3.4030949204075114
1574,1774.000,4.639103104136666
1575,1775.000,3.5525024959338225
1576,1776.000,7.180457445387447
1577,1777.000,-0.8142637375135564
1578,1778.000,6.293776217570439
1579,1779.000,3.940770541288657
1580,1780.000,3.8304774245521003
1581,1781.000,9.76992701849008
1582,1782.000,-0.3392915655890647
1583,1783.000,10.958586743749947
1584,1784.000,-4.278267021974898
1585,1785.000,-1.172148871196896
1586,1786.000,2.7274011476449687
1587,1787.000,8.587101946063285
1588,1788.000,-1.8626996045197757
1589,1789.000,8.8080233271844
1590,1790.000,2.739347532282636
1591,1791.000,8.29687776165838
1592,1792.000,4.585853725927564
1593,1793.000,2.8430830953861914
1594,1794.000,4.146812499985344
1595,1795.000,4.8185825292598565
1596,1796.000,5.6003017323102995
1597,1797.000,13.075453617742596
1598,1798.000,11.726210653627959
1599,1799.000,3.384908267459423
1600,1800.000,-1.5405641538930013
1601,1801.000,16.99490873576883
1602,1802.000,10.58256224193724
1603,1803.000,4.2356606293474215
1604,1804.000,6.672504121927432
1605,1805.000,8.189095902766894
1606,1806.000,2.0976211140650776
1607,1807.000,-0.6410791429157143
1608,1808.000,-3.844841807886951
1609,1809.000,6.834250138417929
1610,1810.000,6.291917674191609
1611,1811.000,0.8644877365256889
1612,1812.000,3.51613622134505
1613,1813.000,6.147138983386185
1614,1814.000,19.18644383613423
1615,1815.000,10.149650551789819
1616,1816.000,9.266934861220534
1617,1817.000,-1.4687935460881363
1618,1818.000,9.44169697793859
1619,1819.000,5.159630039894864
1620,1820.000,6.691150204881069
1621,1821.000,2.701950996427513
1622,1822.000,14.905033896477335
1623,1823.000,7.300648345326408
1624,1824.000,-0.448822258416385
1625,1825.000,10.84820244212483
1626,1826.000,-3.2263622379441586
1627,1827.000,14.135601974650172
1628,1828.000,5.817270311329594
1629,1829.000,-1.9618010384042464
1630,1830.000,7.897124073004761
1631,1831.000,5.590718751110899
1632,1832.000,10.479136059430402
1633,1833.000,1.4170640193874533
1634,1834.000,8.358638610281332
1635,1835.000,1.2443597692320054
1636,1836.000,6.947728391139663
1637,1837.000,1.7364113286469092
1638,1838.000,4.730780392077804
1639,1839.000,9.36960234941148
1640,1840.000,17.23118892623029
1641,1841.000,5.330436805673344
1642,1842.000,1.3695876283950383
1643,1843.000,4.941196992522464
1644,1844.000,10.859710453600655
1645,1845.000,5.189968524565074
1646,1846.000,6.011916675681277
1647,1847.000,12.292566334514731
1648,1848.000,-0.9898771141267844
1649,1849.000,7.459344671772669
1650,1850.000,4.034040991386519
1651,1851.000,10.65830310100705
1652,1852.000,0.839003213995511
1653,1853.000,5.497151500735981
1654,1854.000,8.196752088604171
1655,1855.000,11.67274906190346
1656,1856.000,5.1687164618394945
1657,1857.000,7.522391286463517
1658,1858.000,10.592681490632003
1659,1859.000,0.48865598596376003
1660,1860.000,2.6081356407964904
1661,1861.000,-1.5451697198686816
1662,1862.000,11.549919685608074
1663,1863.000,11.496845595439027
1664,1864.000,7.661946704382899
1665,1865.000,-2.1183553363055125
1666,1866.000,2.1247990810732063
1667,1867.000,11.414988520628867
1668,1868.000,1.9973395028314371
1669,1869.000,7.333579504472482
1670,1870.000,-2.71837504139512
1671,1871.000,7.358006254527254
1672,1872.000,24.757649737704924
1673,1873.000,21.189285709756632
1674,1874.000,8.693398428392129
1675,1875.000,8.635730107373092
1676,1876.000,10.343330916466584
1677,1877.000,10.702484981409498
1678,1878.000,13.3602083838432
1679,1879.000,9.223117161297978
1680,1880.000,24.152912307122733
1681,1881.000,4.193359770458983
1682,1882.000,4.0648464561863875
1683,1883.000,7.141453224880706
1684,1884.000,16.000542892774092
1685,1885.000,14.785039231700694
1686,1886.000,-0.7788690309339472
1687,1887.000,7.121976787784888
1688,1888.000,8.01692232625851
1689,1889.000,4.4769611783042365
1690,1890.000,13.05938589314519
1691,1891.000,1.06645497532827
1692,1892.000,12.739179884710666
1693,1893.000,8.829497036395423
1694,1894.000,11.471233800699792
1695,1895.000,4.5716105031003735
1696,1896.000,10.203305424198788
1697,1897.000,2.946824799671049
1698,1898.000,4.105113820224233
1699,1899.000,-2.436924368447535
1700,1900.000,-0.8584586657052569
1701,1901.000,12.906694983989382
1702,1902.000,18.807167591023244
1703,1903.000,3.0204071206028402
1704,1904.000,17.81170149268928
1705,1905.000,14.100705581974808
1706,1906.000,-3.3866877821781145
1707,1907.000,3.9169301842307505
1708,1908.000,-0.4972587802167254
1709,1909.000,17.792211017615728
1710,1910.000,2.970568225351144
1711,1911.000,-6.9781675549204465
1712,1912.000,15.169517233294982
1713,1913.000,5.32384010085957
1714,1914.000,3.845722512958673
1715,1915.000,5.753155889057098
1716,1916.000,8.035461602847363
1717,1917.000,5.280188982217396
1718,1918.000,10.059837309200475
1719,1919.000,17.082347819924507
1720,1920.000,8.205163704580173
1721,1921.000,17.09113010736428
1722,1922.000,-2.47046687355396
1723,1923.000,-6.539009186084513
1724,1924.000,12.407587175742265
1725,1925.000,23.36701617172912
1726,1926.000,11.899543715473328
1727,1927.000,11.213347674310853
1728,1928.000,7.297549869289696
1729,1929.000,11.151481075102765
1730,1930.000,11.519825020066719
1731,1931.000,12.708336386059273
1732,1932.000,5.612229808488564
1733,1933.000,12.823656876236328
1734,1934.000,15.455463131624356
1735,1935.000,3.9156450703646897
1736,1936.000,10.25446514151372
1737,1937.000,4.873076747437835
1738,1938.000,5.152237243749596
1739,1939.000,10.89732993928601
1740,1940.000,11.748988096049288
1741,1941.000,12.67757892916984
1742,1942.000,13.738640606850822
1743,1943.000,14.288281250343289
1744,1944.000,8.459876933880878
1745,1945.000,12.594497684653561
1746,1946.000,13.261852482745553
1747,1947.000,1.538109261108275
1748,1948.000,7.018787905503814
1749,1949.000,10.431598254464916
1750,1950.000,2.6173270992542257
1751,1951.000,10.527137183810055
1752,1952.000,-1.3587257952847267
1753,1953.000,1.1369788111385333
1754,1954.000,8.28132860480332
1755,1955.000,0.5439291399334252
1756,1956.000,6.202269923219319
1757,1957.000,9.526088413756725
1758,1958.000,4.793573023021963
1759,1959.000,15.936621114815352
1760,1960.000,-0.032667994778876164
1761,1961.000,8.207869962557652
1762,1962.000,2.565985207344056
1763,1963.000,9.497767912243717
1764,1964.000,4.838601202030304
1765,1965.000,4.537315153533427
1766,1966.000,23.55847679560361
1767,1967.000,16.651475109062176
1768,1968.000,10.006661026657412
1769,1969.000,10.65045643302733
1770,1970.000,6.548216164638916
1771,1971.000,7.8750960097627285
1772,1972.000,6.324996708417757
1773,1973.000,5.0383409523315095
1774,1974.000,2.4071713848857144
1775,1975.000,9.337176601090732
1776,1976.000,8.372631147521588
1777,1977.000,5.063348522289516
1778,1978.000,9.838195174983412
1779,1979.000,3.9254575066381676
1780,1980.000,-0.044724130318172683
1781,1981.000,9.506182567896303
1782,1982.000,12.768056856367366
1783,1983.000,7.0527939414475895
1784,1984.000,-2.0161650192910656
1785,1985.000,4.758265082892422
1786,1986.000,-5.429431692125945
1787,1987.000,11.053647666614097
1788,1988.000,-2.2061778788865922
1789,1989.000,5.665548584369844
1790,1990.000,-3.616011079662485
1791,1991.000,5.126986943870861
1792,1992.000,13.034778420700604
1793,1993.000,3.574477067363887
1794,1994.000,8.114832551185373
1795,1995.000,5.093489490208867
1796,1996.000,5.986561453175682
1797,1997.000,10.81135295946001
1798,1998.000,9.745740479044798
1799,1999.000,-1.064343567543574
1800,2000.000,0.5233621907345878
