raman_shift_cm-1,intensity
200,301.1345628
201,305.09285
202,306.2671555
203,300.068699375
204,301.51999895
205,297.58288105
206,301.0555724
207,297.98665075
208,300.8642919
209,304.3803748
210,303.9541183
211,301.95540825
212,297.1736291
213,300.5245718
214,301.42675295
215,301.71887195
216,300.213561905
217,305.4048725
218,305.839617
219,299.0970625
220,296.6772055
221,301.50882605
222,304.93349285
223,303.77850105
224,302.213373
225,301.856729
226,302.8737821
227,300.018821801
228,302.22044245
229,298.4656038
230,305.2644065
231,304.0161836
232,301.3430257
233,303.5581133
234,311.4426295
235,309.750117
236,297.90421035
237,305.504609
238,305.7449045
239,298.71070325
240,297.4702343
241,301.8475698
242,300.19027901
243,302.83295415
244,306.2667055
245,302.78303545
246,302.74031645
247,305.1296065
248,304.6046692
249,305.0062635
250,306.9404115
251,304.4157975
252,309.754098
253,299.9504673275
254,305.7730635
255,305.297147
256,304.4424541
257,304.9503766
258,303.8459112
259,301.2074758
260,303.7395897
261,305.929835
262,305.2859715
263,304.37387115
264,304.90327685
265,300.97470345
266,303.39201175
267,305.136051
268,298.5629087
269,300.5419519
270,301.9842833
271,302.0786994
272,304.21157645
273,299.32547285
274,306.1288815
275,302.69251595
276,303.92738805
277,306.2747785
278,305.9232085
279,304.36506895
280,307.5066505
281,305.353081
282,304.8313551
283,306.3101365
284,306.575023
285,306.010869
286,302.6562874
287,306.263075
288,305.306741
289,297.2217206
290,303.07224785
291,298.29984875
292,294.832945
293,303.60985685
294,302.065734
295,299.582126105
296,302.25979605
297,303.9633302
298,302.112851
299,304.32368305
300,303.7518925
301,303.36837605
302,300.63824265
303,304.15150285
304,302.03208555
305,303.2457534
306,300.290980155
307,301.34471675
308,302.0416383
309,298.79386215
310,303.27844685
311,306.9365455
312,306.1980015
313,306.895424
314,300.13687394
315,303.4463924
316,306.405226
317,302.8310948
318,305.525469
319,297.06039925
320,305.386631
321,303.0604559
322,302.0144627
323,300.23697482
324,306.559293
325,300.9369422
326,301.41777845
327,306.515483
328,305.457502
329,300.22787151
330,307.2386655
331,301.53883285
332,307.394829
333,304.25818705
334,305.069338
335,305.0116085
336,307.285707
337,307.926826
338,303.5862891
339,305.4411325
340,303.2414076
341,300.74933985
342,298.5502812
343,297.6908995
344,304.48606735
345,305.026214
346,297.98721665
347,303.9990728
348,301.87339255
349,305.3855815
350,304.1115843
351,300.37547359
352,309.4957355
353,300.181418105
354,302.00491055
355,303.31472795
356,308.181501
357,301.43733905
358,304.0820823
359,298.82422995
360,307.40053
361,300.84244975
362,301.4640399
363,304.92125315
364,302.85045405
365,301.73705345
366,307.981078
367,306.346983
368,306.6874025
369,306.736576
370,301.62182135
371,304.90826745
372,302.1144949
373,299.10044215
374,306.7011635
375,306.594606
376,302.72741105
377,300.6729196
378,304.06688445
379,302.76601305
380,300.16609961
381,308.5042355
382,302.4632169
383,306.2715965
384,304.68730635
385,306.138814
386,307.193146
387,306.0666985
388,295.92745135
389,304.08912515
390,310.180074
391,297.8756635
392,305.655052
393,304.10716155
394,302.67770845
395,307.0371255
396,300.64434585
397,303.2452093
398,303.93053255
399,306.394402
400,298.53484385
401,303.33083825
402,300.424989645
403,303.5766951
404,300.9878581
405,303.52186225
406,306.1312125
407,306.899318
408,299.2834611
409,297.1237696
410,305.093629
411,304.4554113
412,305.134307
413,302.9761653
414,308.2400565
415,302.21995605
416,306.018738
417,301.39192755
418,301.94152455
419,306.63663
420,305.938863
421,303.73491185
422,303.82562765
423,305.23058
424,305.073772
425,311.9473065
426,308.0898525
427,301.4162985
428,303.7380022
429,304.22015385
430,301.11341495
431,304.3995352
432,308.391278
433,303.15439215
434,298.15942615
435,305.5419165
436,304.1048134
437,300.27010641
438,305.4288785
439,300.77904055
440,302.95503705
441,307.1498125
442,305.5481155
443,304.15219695
444,306.6846705
445,304.25559825
446,311.81542
447,303.79389425
448,299.4301527
449,299.35748085
450,306.0921145
451,307.948057
452,311.7242315
453,301.63981075
454,302.1979446
455,298.6304302
456,305.5437395
457,302.84098595
458,301.867419
459,299.06384935
460,306.320386
461,302.1703166
462,304.47619985
463,304.57527045
464,305.433263
465,307.0316315
466,303.05547305
467,305.1013845
468,302.764885
469,304.60373475
470,304.99482675
471,303.5363949
472,305.63939
473,297.8577809
474,305.944272
475,308.590811
476,305.753879
477,305.465037
478,304.10524745
479,307.50237
480,304.0421299
481,305.2777215
482,303.77464585
483,303.45094825
484,300.68087755
485,300.5134782
486,300.70783335
487,304.3205715
488,300.7972893
489,302.52249755
490,299.13748845
491,297.3960268
492,303.8218439
493,301.89628715
494,299.6104597
495,304.1250462
496,304.7591694
497,304.51301885
498,302.4825134
499,305.4889535
500,301.75415065
501,302.24694485
502,301.1232308
503,308.7738575
504,306.276813
505,302.45674759999997
506,296.3320217
507,308.310708
508,301.9041281
509,303.21677875
510,307.9571005
511,310.073205
512,303.9758287
513,303.57511925
514,303.9574677
515,303.26773955
516,299.607294365
517,303.8263009
518,303.9815572
519,305.42719950000003
520,305.789634
521,302.94779925
522,309.4454275
523,302.6161832
524,301.00514715
525,305.2450785
526,303.61773835
527,306.360586
528,304.32081515
529,303.648208
530,299.85683743
531,300.4289101
532,304.5815515
533,305.4881855
534,299.43162245
535,307.078157
536,301.3871728
537,300.430105125
538,299.21123595
539,303.87343745
540,299.8129602
541,303.44328545
542,300.12759079
543,307.3872215
544,299.2970271
545,305.4402415
546,302.0745167
547,298.94765455
548,298.6717189
549,308.4881355
550,300.38476724
551,301.0518483
552,300.210802245
553,300.26779959
554,305.750862
555,297.03268365
556,304.2375852
557,306.2136255
558,303.4154291
559,303.16543775
560,303.8546493
561,306.8373075
562,305.717328
563,304.4499606
564,305.848874
565,294.9212825
566,307.26628900000003
567,299.077127
568,308.4121075
569,305.373325
570,297.8366265
571,304.09519155
572,301.35696545
573,302.97873045
574,304.727997
575,304.1767923
576,303.7571706
577,296.3044995
578,302.15536325
579,302.39027065
580,304.79082025
581,307.920252
582,298.60846005
583,310.6657245
584,307.688801
585,303.9740251
586,303.77944595
587,306.0903165
588,304.0361226
589,303.5753738
590,304.7327827
591,303.4950636
592,306.0732655
593,303.42663935
594,303.6594224
595,302.92056185
596,307.287544
597,303.0223626
598,305.4042915
599,302.1729638
600,306.81192599999997
601,304.84892625
602,300.8005006
603,307.625218
604,314.1151745
605,306.023763
606,316.4617625
607,306.501065
608,307.744209
609,318.005998
610,312.687002
611,319.4541385
612,318.744319
613,329.535531
614,328.794291
615,338.02513
616,348.177338
617,363.59042999999997
618,372.62122999999997
619,390.12708499999997
620,393.120705
621,384.404355
622,370.74115
623,359.248075
624,353.00963
625,340.5542365
626,336.245703
627,330.687489
628,323.42519
629,319.987785
630,317.3578825
631,313.643201
632,314.47826
633,306.463016
634,312.091223
635,302.07223015
636,309.052004
637,308.758919
638,306.9858335
639,303.279009
640,305.1595925
641,306.81563
642,307.0026685
643,297.0824493
644,302.9899005
645,305.489547
646,302.7950835
647,307.779238
648,304.8507795
649,306.9426825
650,306.4921685
651,305.7886655
652,300.71931275
653,310.062499
654,303.6869547
655,295.9565604
656,303.030163
657,310.0068975
658,302.81532875
659,305.3356985
660,304.4014089
661,302.09810485
662,303.7921686
663,302.5494441
664,303.15165045
665,298.53002425
666,301.09926625
667,302.9930691
668,301.10811145
669,301.56813165
670,296.92855225
671,299.94213116
672,299.67920022
673,298.7704
674,301.5222928
675,298.26884945
676,305.073602
677,296.80239225
678,298.4503944
679,298.37748265
680,297.36777995
681,302.6190356
682,303.3476466
683,300.0277873845
684,295.2475316
685,307.2562395
686,299.41218685
687,304.4407365
688,295.77955645
689,298.01374155
690,299.37059215
691,305.6753155
692,303.3813125
693,304.97602495
694,297.22819975
695,304.59417725
696,297.4119699
697,303.09840165
698,303.1413173
699,304.5159633
700,295.65835065
701,301.87225635
702,303.76916645
703,303.6024986
704,302.3793643
705,302.91287875
706,304.4973674
707,304.500986
708,299.3224686
709,297.1307569
710,304.36021675
711,303.8672876
712,304.37357685
713,302.45324315
714,301.6861517
715,303.0165633
716,303.09901725
717,306.2789245
718,304.4280046
719,300.9168056
720,295.57533109999997
721,303.72539445
722,298.2981232
723,302.77909475
724,298.91299375
725,298.3494352
726,297.3369108
727,301.15642755
728,303.03233135
729,295.733269
730,299.62533041
731,296.0155515
732,308.1297475
733,302.1009415
734,305.4359855
735,299.556599315
736,307.1117145
737,296.8342989
738,297.58978235
739,294.5990205
740,298.6840383
741,300.457362775
742,301.31376175
743,298.5141297
744,299.842954675
745,297.8477031
746,303.08302325
747,300.379223865
748,305.374089
749,298.32933015
750,299.41120315
751,300.516175
752,298.39537705
753,299.4042922
754,302.0730096
755,306.9619455
756,302.0327743
757,302.9435995
758,303.2424695
759,302.9329311
760,304.74744005
761,302.56979925
762,306.6244465
763,300.9065096
764,303.19746355
765,307.425619
766,303.7731577
767,302.70980959999997
768,302.5723868
769,307.5718425
770,298.99203085
771,301.2926963
772,307.0126215
773,304.91934555
774,304.8269865
775,298.8042865
776,298.8266321
777,300.5676081
778,305.0366445
779,306.164795
780,307.6991
781,306.0643275
782,309.2983125
783,305.5046755
784,314.4780745
785,315.2426655
786,317.8338585
787,321.362148
788,321.435695
789,324.8400615
790,331.5290695
791,329.787036
792,339.0140315
793,338.5304925
794,350.41075
795,349.358325
796,347.33295499999997
797,345.178717
798,335.662288
799,331.882186
800,333.00109199999997
801,321.3736965
802,323.8735265
803,314.6102985
804,314.185983
805,315.4998495
806,318.87951
807,316.6810095
808,313.9310565
809,308.918738
810,312.1293245
811,304.71135695
812,309.78829
813,303.1101994
814,304.0686657
815,303.3262973
816,305.4495515
817,305.558365
818,307.3514255
819,308.857797
820,301.6257105
821,300.490091685
822,304.14147085
823,299.4701526
824,298.6036642
825,304.28794655
826,305.525937
827,299.9934467385
828,300.054596625
829,300.8145872
830,304.98363725
831,294.3136925
832,299.84341573
833,300.6683381
834,297.71748135
835,309.3617035
836,297.684604
837,295.33057065
838,307.7394075
839,298.6055299
840,303.6998149
841,296.4210955
842,306.0808075
843,301.59096065
844,304.9522702
845,300.60615575
846,304.9466496
847,306.0306665
848,303.1289463
849,296.7304059
850,298.0659407
851,303.32238975
852,303.43707995
853,300.9497803
854,295.6981193
855,301.15571085
856,302.47715395
857,306.2511835
858,300.72886015
859,299.895003025
860,302.04410985
861,298.102809
862,298.4223994
863,303.85091715
864,301.92861085
865,299.65227184
866,303.02701125
867,301.91226145
868,294.234239
869,303.15067895
870,303.375014
871,299.93051644
872,304.86307055
873,296.6128396
874,306.2592595
875,302.86084685
876,301.55191905
877,298.53665785
878,296.56447735
879,301.8192432
880,296.6840994
881,302.49040225
882,299.49209155
883,301.1752037
884,300.27932845
885,300.5502259
886,299.2969697
887,299.238391
888,302.9957208
889,293.0360185
890,301.45180245
891,299.3451161
892,300.45049219
893,298.5915632
894,303.2059014
895,297.4984871
896,299.830169825
897,301.43260775
898,298.0283399
899,304.10490145
900,300.7429864
901,297.55686675
902,302.7275918
903,302.48140135
904,303.69476145
905,298.83573395
906,299.2076528
907,297.0044101
908,303.92001405
909,300.455925115
910,297.80510815
911,302.9240461
912,300.9214957
913,302.5286679
914,301.0455757
915,296.9934392
916,299.88117626
917,302.61575075
918,293.688546
919,300.84155135
920,301.18613485
921,296.90019195
922,298.66282455
923,297.09280215
924,299.7776727
925,302.5897264
926,298.74744075
927,297.03445655
928,306.8804435
929,298.11519465
930,301.6220221
931,306.36749
932,296.3792753
933,302.25699835
934,301.1779333
935,297.68491155
936,297.3816693
937,297.39968165
938,299.24382715
939,302.33421765
940,300.39658249
941,297.10082695
942,299.45532455
943,309.0346805
944,301.28949495
945,305.559917
946,300.6125998
947,296.80829515
948,298.99063885
949,306.1315815
950,303.1522811
951,300.7439609
952,303.01645575
953,302.5666091
954,303.30682765
955,306.101084
956,305.277461
957,301.93682995
958,306.0412885
959,300.47406978
960,302.3016466
961,301.155612
962,300.276643435
963,308.645573
964,300.61769205
965,305.0918905
966,309.453894
967,300.6883628
968,304.71718935
969,306.834077
970,307.8085275
971,308.254679
972,311.934764
973,304.26131415
974,309.353556
975,307.753828
976,309.663906
977,309.6742615
978,307.651361
979,309.715689
980,307.3655925
981,309.103948
982,316.7434805
983,317.986065
984,320.466829
985,317.856411
986,321.305319
987,325.8144675
988,332.2839635
989,328.99568
990,337.57129
991,347.258962
992,352.64328
993,359.57462499999997
994,382.90301
995,402.85609999999997
996,434.102505
997,482.40876000000003
998,551.59455
999,647.8935349999999
1000,746.20364
1001,800.80665
1002,749.407725
1003,646.038955
1004,552.471545
1005,483.555765
1006,441.536765
1007,403.104475
1008,378.96412
1009,366.476935
1010,353.557875
1011,349.5547525
1012,337.47063049999997
1013,332.78725
1014,328.8117635
1015,338.982042
1016,334.1204835
1017,331.106858
1018,328.223153
1019,330.4422675
1020,329.1530055
1021,331.38041
1022,335.7445215
1023,344.4624025
1024,352.437955
1025,357.391155
1026,375.26691
1027,394.46231
1028,423.238315
1029,464.01372000000003
1030,498.457645
1031,514.250815
1032,496.549765
1033,462.60490500000003
1034,423.46257
1035,395.87299
1036,372.0618
1037,358.39842
1038,346.74499149999997
1039,334.31133
1040,325.3862625
1041,326.00304
1042,323.450313
1043,316.009598
1044,320.4863165
1045,312.639173
1046,312.111029
1047,308.6686595
1048,310.948623
1049,312.775073
1050,310.278254
1051,307.237329
1052,307.531713
1053,305.7725925
1054,310.4066165
1055,306.2522395
1056,299.78374353
1057,312.946479
1058,304.3709812
1059,304.97223105
1060,302.98292145
1061,303.12659085
1062,305.406625
1063,299.610253655
1064,304.48402235
1065,305.2771955
1066,304.0981208
1067,302.1307776
1068,303.88405295
1069,307.6390665
1070,307.9687435
1071,308.045305
1072,303.32189475
1073,303.9131258
1074,310.0468695
1075,304.4444279
1076,302.1393889
1077,302.15328815
1078,300.961641
1079,297.1357424
1080,297.5668557
1081,302.0820998
1082,306.3720085
1083,302.7126025
1084,295.1479351
1085,300.162885585
1086,303.79973265
1087,299.0498018
1088,301.75605395
1089,301.2312548
1090,300.95515485
1091,298.6881739
1092,299.696717995
1093,304.4849432
1094,303.05196125
1095,301.53747375
1096,301.99108605
1097,304.80113775
1098,306.547103
1099,301.6335984
1100,304.74469195
1101,300.44140735
1102,305.3448725
1103,302.005461
1104,300.9326
1105,298.3787815
1106,306.071736
1107,302.4477308
1108,303.8553964
1109,302.765456
1110,298.1811756
1111,299.17864505
1112,299.779730525
1113,304.0504593
1114,302.448328
1115,298.8770162
1116,301.82445365
1117,307.393008
1118,306.790152
1119,300.32662948
1120,302.2853837
1121,306.840795
1122,306.0911385
1123,305.7989995
1124,301.38998665
1125,301.33740165
1126,303.4479179
1127,308.2374435
1128,302.8622662
1129,305.485601
1130,301.70669855
1131,300.43365545
1132,305.932399
1133,307.2194275
1134,306.347471
1135,305.924455
1136,297.718358
1137,304.4545439
1138,315.9218505
1139,303.18776035
1140,308.8811885
1141,315.1409365
1142,317.4138885
1143,314.6414735
1144,314.6495255
1145,315.3791695
1146,315.407743
1147,321.9898295
1148,318.5796325
1149,332.548854
1150,330.9038235
1151,341.5187115
1152,352.077865
1153,367.391955
1154,372.710105
1155,375.028005
1156,367.41625
1157,362.518835
1158,362.056035
1159,346.0714335
1160,341.414584
1161,325.7567255
1162,325.873171
1163,320.915178
1164,327.189013
1165,318.3459835
1166,319.7437265
1167,311.8312935
1168,312.135886
1169,317.852582
1170,310.807303
1171,312.072984
1172,315.764056
1173,311.5240285
1174,314.798753
1175,315.0895415
1176,323.5308435
1177,324.624529
1178,330.7818565
1179,333.890319
1180,346.0792145
1181,358.606805
1182,353.912385
1183,363.14657
1184,360.87226499999997
1185,349.8101175
1186,347.440115
1187,332.9647885
1188,325.52658
1189,329.883069
1190,321.2174125
1191,319.9619705
1192,312.8032345
1193,311.9401285
1194,305.6053615
1195,314.449669
1196,301.9569233
1197,302.33482435
1198,306.4528345
1199,306.4449685
1200,309.657942
1201,296.82364885
1202,305.2042645
1203,302.4019553
1204,298.01672765
1205,294.1920745
1206,305.249129
1207,303.99402665
1208,299.02412825
1209,301.7676659
1210,304.6326674
1211,300.09778048
1212,304.14437485
1213,301.5494244
1214,301.98806405
1215,300.0398862445
1216,299.972498428
1217,300.78023005
1218,303.1394112
1219,304.25312835
1220,306.4192185
1221,301.92962365
1222,304.7505429
1223,302.3169009
1224,306.2965045
1225,299.4124687
1226,301.12220775
1227,302.43085295
1228,298.21398705
1229,297.06115425
1230,301.0933374
1231,300.82504995
1232,300.5429076
1233,295.84865175
1234,299.05018345
1235,301.27809105
1236,297.9571648
1237,300.49979197
1238,296.46961915
1239,306.61838
1240,303.687706
1241,302.02494125
1242,302.60622945
1243,303.22949395
1244,304.728978
1245,302.32474965
1246,301.12302505
1247,297.7584104
1248,302.3616811
1249,304.11996945
1250,302.13423785
1251,301.3797615
1252,297.922404
1253,300.0164171765
1254,300.91019505
1255,297.8159495
1256,302.94256965
1257,301.4168472
1258,301.58231145
1259,296.77933875
1260,293.7616425
1261,301.0493736
1262,300.6132445
1263,300.98682185
1264,301.78149445
1265,297.6017724
1266,302.9619057
1267,304.20257975
1268,299.76833203
1269,294.0978155
1270,305.0159435
1271,302.46561355
1272,304.15818235
1273,296.8316671
1274,301.68409085
1275,296.247082
1276,297.30026435
1277,301.58741705
1278,299.3622476
1279,300.440894715
1280,299.43705795
1281,306.5799075
1282,306.5636905
1283,299.51791726
1284,305.122551
1285,300.8298308
1286,306.2288785
1287,303.57339175
1288,298.4728034
1289,303.5834408
1290,298.4083541
1291,293.554719
1292,302.81960205
1293,301.14602245
1294,300.043445192
1295,302.14541365
1296,300.6043489
1297,297.17926935
1298,306.4264215
1299,303.38852445
1300,296.70353715
1301,301.71112965
1302,301.75195225
1303,304.30462385
1304,296.7376496
1305,305.0972785
1306,302.11782415
1307,302.38544705
1308,303.82391125
1309,298.0763823
1310,300.83828495
1311,302.176215
1312,301.34565195
1313,300.11272591
1314,296.58243375
1315,300.531085
1316,300.9379723
1317,295.78096695
1318,297.4643325
1319,297.7459594
1320,300.3990314
1321,306.0582015
1322,295.8516807
1323,297.89572775
1324,303.70387785
1325,301.91546215
1326,298.2954808
1327,302.08956
1328,298.6308433
1329,298.5752397
1330,297.9952893
1331,298.5313831
1332,302.43262645
1333,302.71167965
1334,299.9791500855
1335,301.2530755
1336,295.2816192
1337,301.5983151
1338,299.3231114
1339,297.5061288
1340,302.84622515
1341,302.79005075
1342,297.2410624
1343,302.14871185
1344,305.7715635
1345,301.3859657
1346,303.3575193
1347,302.06526915
1348,299.615323725
1349,302.249327
1350,302.19583145
1351,305.281728
1352,300.9866549
1353,300.14529684
1354,301.3176968
1355,299.3153043
1356,301.73853605
1357,300.8495445
1358,298.94936785
1359,306.4769155
1360,303.8763775
1361,303.9134393
1362,296.45021645
1363,301.52665435
1364,298.60452275
1365,303.7951533
1366,299.5264165
1367,299.0734852
1368,303.488527
1369,298.26865685
1370,302.0370149
1371,293.397553
1372,302.18670525
1373,298.07560705
1374,301.8769649
1375,295.81133555
1376,302.0740124
1377,300.9915486
1378,302.3304857
1379,298.5174504
1380,304.4224393
1381,305.341206
1382,301.99204
1383,304.91688165
1384,295.96882455
1385,297.57199575
1386,299.47554145
1387,302.06147695
1388,300.0353404735
1389,305.5752125
1390,301.88484835
1391,305.174162
1392,301.47540645
1393,298.10815675
1394,300.236912865
1395,300.5585155
1396,301.87158125
1397,301.0904422
1398,304.18209885
1399,301.5085553
1400,299.4174704
1401,306.4893965
1402,299.55062
1403,301.00520865
1404,301.7097592
1405,300.8700927
1406,301.1304032
1407,302.5054648
1408,297.3818678
1409,305.1451615
1410,298.44172745
1411,309.4657595
1412,303.95789795
1413,300.439662085
1414,298.053773
1415,299.888983395
1416,304.8979902
1417,298.66663555
1418,302.98400895
1419,301.7756725
1420,306.901949
1421,302.87224625
1422,310.514308
1423,303.818806
1424,310.229197
1425,308.6563405
1426,305.149632
1427,301.7768769
1428,313.5384615
1429,312.173646
1430,308.0590775
1431,315.3074025
1432,310.568862
1433,306.4696455
1434,313.0126655
1435,315.685195
1436,326.4312275
1437,325.1675215
1438,323.621507
1439,328.7648345
1440,336.6632605
1441,337.7218395
1442,350.295355
1443,348.032137
1444,363.47737
1445,368.005755
1446,386.643645
1447,389.73512
1448,402.72464
1449,406.318995
1450,407.25516500000003
1451,408.87573
1452,395.554
1453,396.99781
1454,383.85938
1455,371.657435
1456,363.15355999999997
1457,355.8932
1458,342.4757015
1459,339.0123455
1460,333.7991405
1461,329.3136445
1462,319.105936
1463,321.2281005
1464,325.9295575
1465,314.5495595
1466,319.4808725
1467,315.725429
1468,312.5412555
1469,311.4654995
1470,311.647171
1471,307.840801
1472,309.456321
1473,303.36959005
1474,301.58680695
1475,309.336403
1476,303.65967105
1477,305.41184
1478,307.459293
1479,304.78595075
1480,301.31378655
1481,300.9315816
1482,311.0157005
1483,305.1484215
1484,305.147836
1485,304.33239735
1486,305.0356055
1487,301.47079315
1488,299.42982005
1489,301.91469455
1490,303.65464545
1491,300.6447388
1492,301.93425425
1493,299.0870084
1494,301.13741105
1495,301.89510555
1496,302.86980915
1497,303.0041809
1498,303.41415625
1499,303.16141055
1500,303.45169775
1501,301.61284765
1502,297.7027777
1503,298.9388636
1504,302.04635445
1505,305.4491115
1506,301.27140545
1507,296.62321415
1508,305.3099755
1509,302.91331385
1510,304.60740945
1511,306.6122655
1512,297.32504855
1513,301.35453325
1514,291.6045225
1515,302.50301015
1516,299.50913836
1517,301.07502815
1518,300.7834853
1519,300.597215
1520,299.05274235
1521,300.12593698
1522,299.1435286
1523,298.3899654
1524,296.2561835
1525,299.59727737
1526,300.09797191
1527,299.1853031
1528,306.3435375
1529,302.6463393
1530,297.5984017
1531,304.3412301
1532,302.43630705
1533,303.5858676
1534,304.3736393
1535,295.4974967
1536,305.3199035
1537,297.83939505
1538,297.6351093
1539,301.36819225
1540,303.04670505
1541,294.2360935
1542,301.0845222
1543,304.8069059
1544,301.7510147
1545,303.21084585
1546,305.0567615
1547,302.7712995
1548,300.92238725
1549,304.9939635
1550,307.7851045
1551,295.7372541
1552,304.10995495
1553,301.77066125
1554,306.0596545
1555,305.2143365
1556,303.49988795
1557,300.7755619
1558,306.147736
1559,306.5208845
1560,306.927532
1561,311.317655
1562,306.9017005
1563,312.0031745
1564,313.9399735
1565,314.72685
1566,306.705806
1567,307.5251705
1568,310.474311
1569,312.471619
1570,311.650024
1571,316.426527
1572,317.1604995
1573,324.0511955
1574,324.8614275
1575,331.630149
1576,341.4870365
1577,345.7573345
1578,355.41111
1579,365.743375
1580,379.906075
1581,397.20239
1582,400.040905
1583,413.62415
1584,411.37215000000003
1585,406.11931500000003
1586,389.63017
1587,378.328375
1588,372.55854
1589,364.351805
1590,366.11485
1591,361.396755
1592,368.06471
1593,370.0312
1594,377.975095
1595,388.005005
1596,402.38453
1597,424.949145
1598,458.693785
1599,505.8752
1600,555.91869
1601,598.16704
1602,609.1531749999999
1603,595.1141150000001
1604,549.941145
1605,497.85055
1606,459.33849499999997
1607,422.99931
1608,398.523195
1609,375.335345
1610,362.27116
1611,352.97464
1612,344.094127
1613,344.03691249999997
1614,331.63214800000003
1615,332.5720235
1616,332.1362455
1617,324.278219
1618,321.1976295
1619,317.747302
1620,309.83516099999997
1621,312.5323505
1622,315.555872
1623,313.5193485
1624,308.3500335
1625,309.1982825
1626,311.8238015
1627,305.1461375
1628,306.219583
1629,309.484555
1630,304.4533482
1631,307.4903875
1632,308.3387885
1633,302.73733185
1634,307.336649
1635,305.5088385
1636,302.4374045
1637,306.8450315
1638,298.1116183
1639,300.414710035
1640,303.01404085
1641,300.66650345
1642,296.2206193
1643,298.22422375
1644,303.26227105
1645,307.2975565
1646,302.3484143
1647,296.6566741
1648,304.82576845
1649,300.6993574
1650,304.900902
1651,299.37233395
1652,305.168679
1653,300.6711788
1654,303.91813395
1655,299.57387142
1656,304.20764545
1657,304.74286075
1658,301.9019985
1659,298.49165085
1660,303.3121152
1661,301.8468389
1662,308.0372815
1663,296.7474156
1664,295.0330637
1665,301.91762375
1666,299.24192925
1667,300.40553774
1668,299.750087685
1669,302.32561105
1670,304.9983796
1671,301.16642075
1672,301.4585756
1673,304.01789405
1674,300.63563955
1675,306.7159835
1676,296.2519026
1677,301.04039635
1678,301.9230793
1679,298.01991245
1680,298.51149225
1681,307.373083
1682,298.4973501
1683,298.57033585
1684,303.527808
1685,305.3483355
1686,301.2733643
1687,299.37812605
1688,306.9752055
1689,298.51584055
1690,298.4656241
1691,303.99955925
1692,298.8117262
1693,298.39026995
1694,298.53725095
1695,298.5328981
1696,297.46449285
1697,298.50609765
1698,301.26095505
1699,301.41589975
1700,296.88217495
1701,293.94266700000003
1702,305.270249
1703,297.12225435
1704,299.25249705
1705,302.59729735
1706,303.6906529
1707,303.02668165
1708,302.4115516
1709,303.54243745
1710,300.8686734
1711,300.68843665
1712,295.3412452
1713,300.89969075
1714,305.588914
1715,301.20875935
1716,302.2827158
1717,300.7582135
1718,297.7525467
1719,301.36056255
1720,302.89815575
1721,297.79263865
1722,293.840874
1723,302.7851354
1724,303.8693212
1725,297.8132912
1726,302.3393941
1727,298.786329
1728,306.9529605
1729,295.24894705
1730,306.7743185
1731,302.0896901
1732,301.2878169
1733,303.28345725
1734,310.4265525
1735,302.4336981
1736,297.30619395
1737,296.79296855
1738,297.74722315
1739,302.4736629
1740,302.8011378
1741,302.72271055
1742,296.7044662
1743,297.22301905
1744,305.754159
1745,305.7004335
1746,299.9798656175
1747,301.36634155
1748,307.935319
1749,300.9718734
1750,302.10622305
1751,304.4086581
1752,305.7267275
1753,303.69173155
1754,300.18849779
1755,302.48214445
1756,302.9571461
1757,306.411127
1758,300.65067115
1759,300.09229293
1760,304.1323722
1761,298.06163855
1762,302.89758835
1763,299.904008845
1764,302.48426535
1765,298.4049733
1766,300.7132438
1767,299.07170165
1768,298.90511305
1769,306.198868
1770,300.129655955
1771,298.1326399
1772,299.44216795
1773,302.10486455
1774,302.72454735
1775,302.1829495
1776,303.99865345
1777,300.0030431845
1778,303.55883745
1779,302.38413385
1780,302.3308107
1781,305.3023835
1782,300.249646875
1783,305.900484
1784,298.28397975
1785,299.838986405
1786,301.79073455
1787,304.7225834
1788,299.49970615
1789,304.8371174
1790,301.804855
1791,304.5857214
1792,302.73233665
1793,301.86310495
1794,302.51714945
1795,302.8552409
1796,303.2483334
1797,306.988169
1798,306.315834
1799,302.1474965
1800,299.687100955
1801,308.9572055
1802,305.753428
1803,302.5823998
1804,303.8032723
1805,304.5640469
1806,301.52081585
1807,300.154000255
1808,298.55468175
1809,303.8968193
1810,303.628273
1811,300.91720655
1812,302.24570805
1813,303.56391555
1814,310.0863035
1815,305.570671
1816,305.1321075
1817,299.767066725
1818,305.225165
1819,303.0870152
1820,303.85568805
1821,301.86403165
1822,307.9685465
1823,304.1693576
1824,300.297656665
1825,305.949234
1826,298.9150475
1827,307.599157
1828,303.4431488
1829,299.55680253
1830,304.4894862
1831,303.33953565
1832,305.7870285
1833,301.25930845
1834,304.7334435
1835,301.17968435
1836,304.03478115
1837,301.43256775
1838,302.9332301
1839,305.2561515
1840,309.190488
1841,303.2436883
1842,301.2668734
1843,303.0563215
1844,306.0192545
1845,303.18809415
1846,303.60281255
1847,306.7469155
1848,300.109506435
1849,304.33796395
1850,302.62919355
1851,305.9452405
1852,301.03954095
1853,303.3726008
1854,304.7264216
1855,306.4684765
1856,303.22055125
1857,304.40151595
1858,305.9408235
1859,300.89300965
1860,301.95698435
1861,299.88460241
1862,306.436455
1863,306.414262
1864,304.501193
1865,299.61545926
1866,301.74149095
1867,306.3910775
1868,301.68678195
1869,304.3594685
1870,299.33809575
1871,304.38092835
1872,313.0854305
1873,311.305967
1874,305.06278
1875,305.038741
1876,305.8973755
1877,306.081825
1878,307.4155985
1879,305.352004
1880,312.821892
1881,302.84714565
1882,302.78795805
1883,304.3313708
1884,308.7660655
1885,308.163503
1886,300.38677872
1887,304.3424725
1888,304.79525625
1889,303.030628
1890,307.327233
1891,301.3362023
1892,307.1780405
1893,305.228716
1894,306.5551435
1895,303.1109333
1896,305.9324235
1897,302.30986875
1898,302.89474115
1899,299.62949255
1900,300.424538565
1901,307.312971
1902,310.269107
1903,302.3816692
1904,309.783303
1905,307.933835
1906,299.1962118
1907,302.85413845
1908,300.6532058
1909,309.804147
1910,302.39957675
1911,297.4315042
1912,308.5116875
1913,303.59523445
1914,302.8626067
1915,303.8228001
1916,304.97047495
1917,303.5994069
1918,305.995845
1919,309.513761
1920,305.0818755
1921,309.531612
1922,299.75761341
1923,297.73018955
1924,307.2103815
1925,312.697038
1926,306.9702905
1927,306.634229
1928,304.6834149
1929,306.6175135
1930,306.808866
1931,307.4103515
1932,303.8695761
1933,307.4826165
1934,308.8058955
1935,303.0434119
1936,306.220296
1937,303.5371264
1938,303.6842806
1939,306.5644505
1940,306.997954
1941,307.469974
1942,308.00828
1943,308.290926
1944,305.384601
1945,307.459839
1946,307.8014955
1947,301.94765465
1948,304.69607685
1949,306.4106165
1950,302.51166735
1951,306.4748115
1952,300.5401715
1953,301.7963677
1954,305.3769395
1955,301.5166906
1956,304.3543642
1957,306.0248305
1958,303.66718385
1959,309.247373
1960,301.27144675
1961,305.400489
1962,302.58837435
1963,306.063148
1964,303.74250215
1965,303.60085175
1966,313.1204805
1967,309.676083
1968,306.362835
1969,306.693948
1970,304.6520991
1971,305.324867
1972,304.5592014
1973,303.92531495
1974,302.6192281
1975,306.093786
1976,305.621126
1977,303.9761549
1978,306.373306
1979,303.4267236
1980,301.4514772
1981,306.236833
1982,307.8777315
1983,305.030121
1984,300.505721
1985,303.9030748
1986,298.81942465
1987,307.071222
1988,300.45162733
1989,304.39786865
1990,299.76752774
1991,304.14952575
1992,308.1139815
1993,303.39445145
1994,305.6753115
1995,304.1753838
1996,304.63272495
1997,307.055988
1998,306.534111
1999,301.1400604
2000,301.94496765
