raman_shift_cm-1,intensity
200,11.744153
201,5.1407299
202,5.4247359
203,-8.3338327
204,5.3299597
205,-0.41465841
206,6.9659805
207,-5.9065546
208,-4.4479313
209,-8.2561344
210,-9.0284647
211,-1.3637798
212,1.0585851
213,-11.423565
214,7.8632247
215,-1.7626029
216,-3.9365555
217,-4.79479
218,3.2593847
219,-8.093684
220,-6.0685333
221,-6.1121052
222,-1.0146397
223,-1.7430207
224,-9.5193096
225,4.5381079
226,0.62527976
227,-4.828618
228,2.919293
229,3.392306
230,-1.0991268
231,-1.4483829
232,6.2143617
233,6.3474267
234,-0.18932271
235,-0.91876479
236,3.9426312
237,-9.8249575
238,0.46020408
239,-3.4076389
240,7.4807537
241,14.651322
242,3.5589329
243,21.669776
244,4.5497043
245,16.374198
246,0.82658393
247,8.518077
248,9.3492537
249,0.16783492
250,14.96921
251,16.111184
252,3.7981871
253,17.026822
254,12.32811
255,9.8802726
256,19.999082
257,20.000531
258,23.997025
259,11.848693
260,29.643629
261,17.217631
262,36.441725
263,33.649416
264,36.467795
265,35.363926
266,46.522577
267,50.263714
268,50.179835
269,66.198883
270,55.16634
271,85.756352
272,95.584843
273,108.57611
274,129.94163
275,164.896
276,178.74372
277,210.47723
278,238.99848
279,273.92569
280,312.3134
281,321.85768
282,332.01063
283,337.19675
284,307.40807
285,278.03475
286,250.32042
287,198.73437
288,180.24129
289,155.07169
290,131.73639
291,114.91515
292,105.58343
293,78.549563
294,70.936296
295,68.384251
296,55.192761
297,55.336606
298,44.410399
299,32.930178
300,45.641814
301,22.719776
302,16.525553
303,42.176776
304,41.565859
305,14.380867
306,15.714643
307,27.641571
308,11.815414
309,15.77581
310,18.10068
311,11.221206
312,8.9067866
313,4.2512991
314,10.625412
315,14.814907
316,8.6438565
317,13.740656
318,20.437194
319,3.4442834
320,13.391719
321,3.1013883
322,8.011199
323,10.004247
324,4.3235519
325,9.153861
326,3.4281943
327,6.3181043
328,16.192241
329,16.462228
330,7.82735
331,5.8036054
332,11.583393
333,14.838689
334,3.726493
335,-0.23065718
336,3.3227956
337,4.1702346
338,14.454818
339,6.6363969
340,-6.4050959
341,3.8273875
342,8.1888447
343,6.4549991
344,3.1770707
345,1.870907
346,-8.3892651
347,0.52906398
348,16.172542
349,10.991034
350,-2.6920532
351,-6.2824038
352,-8.9605168
353,5.5529702
354,3.8196822
355,6.6756572
356,14.455721
357,1.9163377
358,0.055560889
359,0.46288621
360,-0.064418898
361,-0.84815638
362,-0.40491252
363,3.5630781
364,6.3077001
365,14.796933
366,-9.4434743
367,1.2998568
368,-1.0402394
369,10.67834
370,0.82078699
371,-0.8197127
372,0.60775828
373,7.3276691
374,11.397984
375,4.6039724
376,5.5723686
377,0.075627153
378,7.2585748
379,9.8552379
380,6.647791
381,6.0063055
382,1.5254008
383,3.7144694
384,-1.6770896
385,-0.075625944
386,-5.5193804
387,2.832416
388,-13.137567
389,10.304917
390,3.5656192
391,7.591173
392,8.1642706
393,0.18689216
394,16.652712
395,8.3811827
396,-1.7386202
397,2.1855701
398,-4.1368176
399,-2.8536734
400,1.2833291
401,-1.5066648
402,-0.12493007
403,-2.8770988
404,7.9161936
405,15.651857
406,0.1958243
407,-3.8842442
408,2.4657139
409,3.875794
410,3.1978804
411,-11.67863
412,11.214708
413,5.6843863
414,1.3290615
415,8.4293515
416,-4.8784022
417,12.801226
418,3.9804292
419,3.8577912
420,13.95673
421,13.207778
422,16.390186
423,6.7213432
424,11.341173
425,7.5537342
426,8.9569656
427,-1.1412232
428,6.0376876
429,7.5603335
430,4.581679
431,11.766838
432,4.3574763
433,6.726868
434,-10.176365
435,-4.2659851
436,6.3251054
437,-2.4696157
438,0.28128644
439,4.9009053
440,11.115185
441,-3.565319
442,1.8892702
443,13.331586
444,-1.6853788
445,9.6479422
446,4.1299708
447,3.5599876
448,-3.4932621
449,5.2409394
450,6.1262921
451,6.1707727
452,-2.9371637
453,5.3032316
454,4.2849109
455,7.285057
456,5.532193
457,-4.2620853
458,-1.7220021
459,-1.4387106
460,9.7345152
461,8.1071828
462,-2.3930919
463,-10.610193
464,4.9264406
465,1.9714421
466,10.205414
467,3.4815676
468,-2.5050542
469,3.6740792
470,4.5021766
471,8.6685021
472,-0.1256187
473,2.0903739
474,8.1393946
475,-3.4646153
476,7.8229039
477,14.104137
478,-4.8336718
479,3.4006952
480,-0.5237571
481,0.50576927
482,11.545928
483,16.458532
484,9.5254151
485,5.8983654
486,4.908575
487,-7.5822487
488,10.385039
489,-10.446273
490,3.036673
491,12.272507
492,12.261184
493,11.735626
494,-0.27354768
495,-2.7357749
496,-6.1863628
497,11.167286
498,8.9842018
499,-0.78107726
500,12.79127
501,-1.4244077
502,-6.1246877
503,2.630456
504,8.0149085
505,0.22959564
506,8.5227058
507,-1.6493226
508,-10.023146
509,2.4807006
510,1.7347342
511,4.0612302
512,3.721361
513,11.242102
514,-0.96527051
515,-5.1328746
516,3.6515498
517,3.366223
518,7.561811
519,13.127843
520,4.6586423
521,2.6065161
522,2.0510889
523,12.328328
524,4.828858
525,14.031882
526,-4.5185378
527,9.7157487
528,8.2511049
529,-1.0276709
530,3.6184119
531,-0.64959212
532,18.636155
533,-4.8497884
534,8.8937371
535,8.3137052
536,2.7612822
537,5.9941993
538,9.4490194
539,-9.7829143
540,9.3040593
541,-8.2514593
542,1.8316419
543,14.448184
544,-3.8980304
545,2.6853143
546,9.121637
547,-3.4789616
548,6.980763
549,0.064234631
550,3.1380009
551,1.1975172
552,3.9223061
553,8.6771079
554,15.039586
555,1.7618844
556,-0.30306145
557,-3.5517514
558,6.2624913
559,5.4882827
560,7.8487445
561,-1.8585885
562,-1.2692428
563,10.63649
564,11.694402
565,11.543659
566,-6.3113039
567,6.4346775
568,7.3939164
569,7.1178621
570,3.9150455
571,12.195218
572,-3.7117884
573,2.3240339
574,-2.5816261
575,2.9555117
576,9.5786411
577,5.4827978
578,-1.8222182
579,8.7872083
580,4.797655
581,-0.39604826
582,25.077607
583,8.9354483
584,3.5892353
585,-0.30812388
586,3.0919062
587,5.1968487
588,1.4499607
589,-3.1891149
590,8.1852601
591,-1.7323522
592,11.781998
593,3.0775922
594,3.1056077
595,1.514967
596,2.6242615
597,4.9012724
598,6.3783425
599,8.546712
600,12.338367
601,2.5629197
602,0.57126147
603,3.1440044
604,7.8949629
605,3.9113044
606,-8.1395843
607,-1.5423563
608,0.43049385
609,5.465101
610,-1.1798768
611,4.478228
612,-0.2046064
613,1.6986799
614,9.3402474
615,11.623715
616,3.8389733
617,-5.9163556
618,-7.4874732
619,5.6160995
620,3.4459313
621,-2.8309482
622,0.61493359
623,7.1783378
624,6.3110119
625,4.972031
626,3.010327
627,9.2213516
628,16.982368
629,0.54363694
630,3.2982632
631,3.4440032
632,8.4512388
633,8.4646136
634,-2.2956797
635,4.5807144
636,9.9572414
637,2.6853111
638,2.0504766
639,1.954036
640,5.943749
641,4.8277882
642,9.8210985
643,8.2758548
644,12.266239
645,-9.6349837
646,0.0010010078
647,-3.0562913
648,-1.051626
649,7.5604124
650,1.5934802
651,2.0415686
652,7.8880115
653,3.2667735
654,-0.36937058
655,13.769301
656,2.5802115
657,0.67372182
658,4.4895099
659,8.1923137
660,2.2075251
661,8.5594182
662,-4.5154207
663,4.5096925
664,8.9811286
665,4.9912027
666,13.89506
667,-3.8438661
668,7.2074963
669,0.58880781
670,-5.3814156
671,1.2925736
672,11.91463
673,-0.88083733
674,3.2132728
675,1.5220032
676,8.7592425
677,-0.014434418
678,3.7618662
679,16.80962
680,7.1751454
681,5.5299882
682,-2.7206539
683,9.0099692
684,17.356301
685,3.5468728
686,3.9149614
687,9.9294762
688,2.4078327
689,8.1568001
690,10.308532
691,16.38965
692,17.531953
693,13.260504
694,4.9315539
695,28.414413
696,16.656425
697,17.859561
698,16.144285
699,31.543751
700,36.687097
701,35.068253
702,39.145223
703,47.083277
704,38.808493
705,63.679762
706,69.262549
707,96.482302
708,117.33796
709,136.24195
710,181.82552
711,211.09665
712,220.0212
713,210.14329
714,176.53116
715,142.81982
716,112.47245
717,86.447696
718,69.01754
719,56.324579
720,46.402635
721,28.555619
722,32.156429
723,34.8022
724,31.041394
725,16.583013
726,13.898812
727,18.293006
728,18.628009
729,17.294665
730,0.67634475
731,15.719271
732,18.675914
733,21.093961
734,9.9441798
735,13.888292
736,6.3594139
737,14.827647
738,-0.39972116
739,4.9624607
740,1.0145344
741,9.214971
742,4.1766415
743,2.5526425
744,14.268512
745,1.560925
746,11.617709
747,1.2990222
748,-1.4579862
749,-8.1351151
750,4.612314
751,7.5384786
752,2.5311385
753,11.282335
754,7.5428037
755,5.5616091
756,7.6305527
757,8.2233787
758,18.122414
759,-0.34280147
760,-1.3055052
761,8.5789555
762,4.6333846
763,-1.2641208
764,5.5387061
765,1.9850282
766,-2.8645819
767,8.2493418
768,-0.60660682
769,7.3112127
770,1.4949476
771,12.883298
772,6.6019017
773,6.1498249
774,5.4612026
775,9.8512513
776,-6.9455718
777,-5.1537207
778,9.9876565
779,6.4795
780,-5.7222588
781,0.71593728
782,1.2726532
783,15.233116
784,-1.3088443
785,11.184249
786,-1.2554718
787,1.121143
788,6.7342987
789,-1.0944816
790,5.2230577
791,4.6261478
792,8.4570776
793,2.0264391
794,1.9948282
795,-0.73494935
796,-11.234477
797,-1.2857856
798,1.3347047
799,16.072315
800,-7.9020336
801,-3.7050479
802,11.267396
803,0.80040869
804,15.326535
805,5.957682
806,-0.27748708
807,2.4415575
808,5.9434584
809,6.3274033
810,5.956577
811,2.0166094
812,12.586532
813,7.9766217
814,0.60600269
815,2.2002879
816,-0.38634819
817,5.4601861
818,8.6460048
819,4.5332113
820,1.5663611
821,-2.6930748
822,4.2878187
823,0.04180486
824,4.8609338
825,9.2723048
826,10.449876
827,19.457401
828,8.5415271
829,-7.1989969
830,8.823851
831,-3.0040176
832,-1.3681805
833,-0.40129012
834,-9.2671743
835,3.6636747
836,0.93186939
837,6.8893047
838,9.9854149
839,7.0850303
840,1.3362388
841,6.0728916
842,2.5261004
843,-2.5540309
844,0.20039979
845,-2.2397432
846,-2.1407435
847,0.32537041
848,10.030189
849,8.424151
850,14.172116
851,7.6584803
852,-0.073383348
853,-7.9824034
854,12.036861
855,6.2049396
856,-8.1625431
857,11.988405
858,10.974144
859,-3.016421
860,-8.2527841
861,4.218619
862,-1.13016
863,-0.95437392
864,-1.0020548
865,-2.1229021
866,3.0219897
867,10.286534
868,1.8245384
869,11.558427
870,-4.6000247
871,7.0847084
872,6.3945397
873,1.6344892
874,8.9754934
875,-5.0416126
876,0.63205319
877,7.4297533
878,12.943211
879,5.5730081
880,4.803878
881,-1.9338263
882,3.6899246
883,-2.3473363
884,-10.521462
885,3.6589066
886,-3.1792439
887,6.7073795
888,-1.2003767
889,-1.3453961
890,6.4624854
891,-3.5237653
892,14.446062
893,2.9806974
894,-3.741977
895,9.4616571
896,-5.1637896
897,9.6034466
898,9.8781499
899,6.9880852
900,-3.6874947
901,8.7676774
902,9.3943229
903,2.7111056
904,4.906606
905,-7.2919422
906,5.7784682
907,-0.96296645
908,5.6331477
909,0.71321607
910,7.9116688
911,2.109472
912,7.3399225
913,-0.83738478
914,-4.7732626
915,-4.7405269
916,-0.049961407
917,5.1213203
918,-2.8055519
919,7.9081062
920,-5.3199091
921,3.9702467
922,12.206819
923,10.737117
924,5.1187262
925,-3.6683982
926,-2.3123299
927,-1.7666484
928,-0.7348011
929,-4.1494998
930,7.3181509
931,2.9623678
932,-4.4542323
933,1.6007658
934,9.4697526
935,-1.591841
936,10.183343
937,-2.6701698
938,-6.112811
939,3.9719016
940,12.752352
941,1.3201268
942,-7.8071068
943,-2.7530707
944,4.9687117
945,5.0325358
946,-0.43925669
947,2.4206218
948,1.277188
949,-3.7844703
950,0.48542923
951,3.7734673
952,5.1787102
953,11.666967
954,3.1585699
955,-7.0975897
956,-6.9110016
957,-1.9139139
958,1.4156675
959,-3.1311522
960,10.112784
961,-6.8052934
962,0.22115938
963,-6.9565058
964,2.3044251
965,6.995521
966,-3.624536
967,-0.89323728
968,0.47464747
969,9.2713857
970,-10.541002
971,-1.2349947
972,10.922795
973,5.7585193
974,-5.9099526
975,9.005894
976,9.344162
977,1.6458896
978,7.9570126
979,13.920363
980,5.7942195
981,14.027355
982,1.8146869
983,9.1677847
984,3.0357887
985,-6.2260015
986,0.1858751
987,2.2785381
988,7.1390064
989,7.4919959
990,-2.697684
991,3.8724555
992,2.8198361
993,7.0165829
994,7.0059578
995,-5.1798718
996,2.4609734
997,-3.3853107
998,7.321294
999,-11.69431
1000,-1.7517075
1001,-0.3583333
1002,5.4846848
1003,0.85078492
1004,0.61216826
1005,7.9270595
1006,1.0076297
1007,9.1562007
1008,6.4230549
1009,-3.7322146
1010,1.0252864
1011,3.861566
1012,8.1545873
1013,0.42093892
1014,2.6915051
1015,6.3603617
1016,12.352556
1017,15.949735
1018,8.2641161
1019,10.151698
1020,18.642148
1021,-2.6505986
1022,4.3644425
1023,1.5204154
1024,13.985799
1025,2.7418475
1026,2.0931537
1027,-1.12488
1028,0.34608607
1029,7.5879765
1030,9.6236002
1031,3.4703118
1032,15.06382
1033,-3.8664913
1034,5.2027859
1035,10.814374
1036,4.5035486
1037,10.087153
1038,8.7929027
1039,14.880729
1040,5.222348
1041,6.0041548
1042,11.914488
1043,12.264427
1044,12.823248
1045,1.8748984
1046,10.86343
1047,12.66201
1048,6.8127026
1049,13.212008
1050,25.572069
1051,10.183143
1052,16.1821
1053,1.5328509
1054,18.761532
1055,8.3674566
1056,25.363173
1057,10.842246
1058,12.337191
1059,11.781481
1060,19.724119
1061,25.361982
1062,27.156735
1063,23.221574
1064,35.121253
1065,30.846649
1066,35.371657
1067,39.868072
1068,32.884058
1069,37.568748
1070,47.918511
1071,49.621586
1072,56.416652
1073,71.642228
1074,78.291821
1075,85.52602
1076,105.40081
1077,130.58875
1078,163.58348
1079,188.6156
1080,243.70603
1081,321.23561
1082,432.92362
1083,568.53398
1084,760.87408
1085,916.49797
1086,994.76302
1087,927.25951
1088,742.92667
1089,566.63349
1090,439.32332
1091,327.55222
1092,258.41977
1093,201.31066
1094,155.5658
1095,130.7707
1096,116.21393
1097,95.966419
1098,78.929407
1099,68.901816
1100,62.249171
1101,56.662861
1102,41.62528
1103,38.181463
1104,31.173978
1105,35.450996
1106,37.57675
1107,30.29188
1108,24.638599
1109,18.090399
1110,19.895413
1111,20.133585
1112,25.371152
1113,17.162564
1114,24.938451
1115,13.242474
1116,22.265508
1117,13.588191
1118,3.4351007
1119,7.9692356
1120,12.566409
1121,10.14936
1122,12.261396
1123,14.772105
1124,8.241919
1125,15.74185
1126,0.59031129
1127,8.4137339
1128,13.566769
1129,3.6006021
1130,5.5208949
1131,4.8954758
1132,9.9498884
1133,7.9625178
1134,3.0665224
1135,9.8560614
1136,19.28631
1137,9.6282503
1138,15.731452
1139,-2.527171
1140,8.0194496
1141,-0.90505048
1142,-3.375033
1143,6.5982645
1144,8.3305157
1145,16.009776
1146,-3.5936295
1147,20.033368
1148,4.9658514
1149,0.052999129
1150,5.6734742
1151,11.104555
1152,5.1223661
1153,-7.6337174
1154,3.6951426
1155,0.45727561
1156,5.0020656
1157,6.5861443
1158,13.297498
1159,14.845742
1160,8.924943
1161,-0.19091474
1162,16.929808
1163,12.94832
1164,-1.0611924
1165,10.48307
1166,2.4487179
1167,-3.9323315
1168,4.8728582
1169,4.5425027
1170,7.6245821
1171,1.3702177
1172,-0.40751495
1173,7.4664035
1174,3.3810636
1175,7.7163873
1176,3.4089425
1177,-1.3019221
1178,18.79407
1179,11.951028
1180,-1.3090244
1181,-0.72470635
1182,8.7482112
1183,8.9316792
1184,-4.8545359
1185,3.7752329
1186,3.9946826
1187,10.107969
1188,6.7639012
1189,5.9323024
1190,3.5340155
1191,1.2423915
1192,-0.41879384
1193,3.0666384
1194,-2.2917664
1195,12.169854
1196,2.7394059
1197,8.6604878
1198,1.9946331
1199,2.1563574
1200,2.2563834
1201,3.3553486
1202,4.3102802
1203,2.302549
1204,-3.0539533
1205,9.3698778
1206,2.3632989
1207,-0.43877562
1208,2.1209996
1209,5.9094675
1210,9.264122
1211,-7.6703763
1212,16.970501
1213,0.8856513
1214,4.7052826
1215,9.0780076
1216,6.8934295
1217,5.1052046
1218,0.10489124
1219,1.2153523
1220,-1.475869
1221,-1.8767616
1222,11.584337
1223,2.6912973
1224,4.7956037
1225,0.47572391
1226,-3.129911
1227,10.313952
1228,5.4219206
1229,8.2901498
1230,7.5700606
1231,-7.8079391
1232,12.587321
1233,7.0431117
1234,3.6655252
1235,2.8849923
1236,10.099688
1237,8.5415571
1238,-5.8775158
1239,1.7179264
1240,11.434428
1241,0.54174832
1242,2.5473288
1243,1.1549856
1244,10.389989
1245,4.0000793
1246,3.6773852
1247,-0.16256985
1248,2.0599219
1249,-1.6973693
1250,-4.2900445
1251,9.7624399
1252,7.684625
1253,6.7491028
1254,18.84237
1255,6.4339973
1256,1.0797723
1257,2.6013198
1258,-1.0111689
1259,7.2730162
1260,0.62158211
1261,0.90091106
1262,3.7103364
1263,-5.5283127
1264,-0.10777542
1265,-7.2414708
1266,6.5291097
1267,-7.2818505
1268,3.0389181
1269,-2.7946337
1270,-6.5715166
1271,3.0506636
1272,-4.6716855
1273,8.5388846
1274,2.1361179
1275,7.3723
1276,-8.9654474
1277,6.6122707
1278,7.8611563
1279,3.3960688
1280,-2.8746853
1281,1.1033677
1282,1.4776375
1283,6.3417936
1284,3.4224832
1285,-3.5586248
1286,-6.7822937
1287,7.7294582
1288,4.665983
1289,10.461491
1290,3.4888798
1291,2.9285345
1292,-1.6823061
1293,-3.7292876
1294,1.0408758
1295,0.63722611
1296,-3.3910834
1297,4.3720388
1298,6.1890937
1299,3.6035463
1300,-6.8107421
1301,-3.3611572
1302,-3.3500336
1303,-1.7786402
1304,6.3196334
1305,15.726873
1306,7.7515593
1307,-2.0037146
1308,0.13801066
1309,6.0652196
1310,5.0927996
1311,6.9877682
1312,-1.0103913
1313,8.0866476
1314,3.393673
1315,-3.3406441
1316,2.3618823
1317,3.6264405
1318,3.4273451
1319,8.3178174
1320,8.1013277
1321,3.7934172
1322,2.0111867
1323,3.0298598
1324,-5.5323825
1325,13.313606
1326,8.177831
1327,10.51869
1328,1.9075844
1329,9.3221611
1330,7.646755
1331,1.7113236
1332,-8.7358918
1333,5.0727115
1334,-5.4292745
1335,5.079427
1336,0.65534813
1337,5.4981704
1338,1.0390234
1339,4.9027201
1340,-1.958561
1341,5.9577684
1342,0.35198452
1343,5.277056
1344,-2.3136001
1345,-0.36290463
1346,9.4248716
1347,7.5154927
1348,-5.4015873
1349,0.85770171
1350,-4.6010246
1351,2.5729192
1352,-1.7964078
1353,-1.0635017
1354,3.2671973
1355,11.807893
1356,-1.3133904
1357,1.1769905
1358,16.334303
1359,0.40381097
1360,5.0139873
1361,-2.4217027
1362,6.4555902
1363,2.1283676
1364,-10.640891
1365,0.89815096
1366,8.0943427
1367,17.971627
1368,-7.1022426
1369,-1.2354901
1370,11.103431
1371,-8.30443
1372,3.8012916
1373,2.2391892
1374,6.6473697
1375,2.6559529
1376,13.433683
1377,5.4060373
1378,1.2607972
1379,3.7758012
1380,-5.4858552
1381,0.37656305
1382,12.880582
1383,4.4345804
1384,8.966539
1385,0.75182845
1386,-4.4928181
1387,-3.1370593
1388,-2.0958494
1389,8.4316794
1390,2.5708448
1391,-7.9681416
1392,2.8669914
1393,1.4567825
1394,5.8816326
1395,-13.419575
1396,15.022524
1397,7.5569768
1398,6.8410228
1399,-1.9637436
1400,1.7814401
1401,14.526972
1402,14.203128
1403,4.9911794
1404,-0.52726371
1405,-4.3634952
1406,11.856319
1407,15.131829
1408,5.3590668
1409,10.886174
1410,14.021573
1411,17.898003
1412,21.972209
1413,8.4689066
1414,17.12983
1415,10.785438
1416,16.286013
1417,28.623411
1418,21.732216
1419,12.636874
1420,24.482176
1421,32.854972
1422,35.457861
1423,31.571874
1424,32.022975
1425,41.24258
1426,40.139749
1427,43.934548
1428,48.151016
1429,50.646372
1430,64.944445
1431,71.15316
1432,66.294929
1433,75.673621
1434,73.046602
1435,84.045752
1436,91.21951
1437,76.870751
1438,73.026425
1439,82.141281
1440,82.560119
1441,68.134488
1442,63.578714
1443,54.800304
1444,46.406804
1445,37.960053
1446,42.120384
1447,34.301811
1448,29.128848
1449,22.098208
1450,26.271192
1451,13.212433
1452,30.553343
1453,16.14055
1454,18.416265
1455,21.03427
1456,17.273354
1457,11.902899
1458,20.791633
1459,17.784997
1460,18.292818
1461,17.97268
1462,11.911498
1463,13.102041
1464,10.117399
1465,3.6281132
1466,12.27161
1467,12.404352
1468,19.717974
1469,7.3472405
1470,4.371686
1471,0.040501148
1472,4.5234426
1473,8.4713078
1474,10.342588
1475,7.9127973
1476,12.394505
1477,9.6150544
1478,15.838838
1479,-5.7363952
1480,3.6029096
1481,10.606538
1482,-0.028407148
1483,0.85435151
1484,9.3538664
1485,1.2071705
1486,5.8382991
1487,1.2265638
1488,8.5557441
1489,3.3293332
1490,-2.7414049
1491,6.1596627
1492,8.9465039
1493,8.9162238
1494,-2.6813929
1495,-1.1771343
1496,4.9455799
1497,-2.4165806
1498,6.0943414
1499,-0.23635971
1500,-4.0135079
1501,-3.5509211
1502,8.676319
1503,3.233432
1504,6.2596372
1505,1.0563508
1506,-6.6426949
1507,3.6754909
1508,0.15479156
1509,2.0438427
1510,4.6421244
1511,9.44252
1512,-0.60080227
1513,4.7313392
1514,-8.6974452
1515,3.7118797
1516,3.1304433
1517,0.56127649
1518,2.4703248
1519,1.5289084
1520,4.3881315
1521,6.0210459
1522,14.941422
1523,4.2728313
1524,1.0719859
1525,0.68258977
1526,8.4007155
1527,-0.2573557
1528,9.4747442
1529,-0.24255511
1530,5.9416769
1531,-7.6504201
1532,10.380693
1533,-1.7983297
1534,-0.46471606
1535,-4.1659111
1536,-10.35618
1537,6.3512704
1538,3.4717665
1539,0.81537018
1540,0.38993002
1541,-4.088756
1542,-9.6343734
1543,-3.8369546
1544,6.2996726
1545,7.5525247
1546,5.0246502
1547,2.7240644
1548,9.4603172
1549,0.12958055
1550,-2.8148189
1551,-2.7045371
1552,-3.0849955
1553,-3.9191914
1554,-0.95558237
1555,7.193288
1556,-3.2921477
1557,-12.693274
1558,6.8957853
1559,-3.5957059
1560,-1.7706183
1561,15.598266
1562,9.1205779
1563,-4.5667529
1564,-0.11541325
1565,0.44888464
1566,-6.3431358
1567,3.0933328
1568,4.9882442
1569,11.723213
1570,-7.7760981
1571,6.863295
1572,4.0061907
1573,5.229513
1574,5.6966773
1575,-1.3810193
1576,9.317513
1577,5.8219465
1578,23.552334
1579,4.2211826
1580,3.5772431
1581,0.51200576
1582,5.7167926
1583,3.4041631
1584,6.0675757
1585,12.62747
1586,12.136918
1587,8.6070874
1588,2.1220704
1589,-2.903135
1590,5.0580915
1591,7.2723286
1592,-0.060002571
1593,7.9328939
1594,9.1679122
1595,3.7069725
1596,-7.5798841
1597,-6.8918624
1598,5.6937861
1599,5.3153222
1600,-4.1896279
1601,1.2810532
1602,-5.6746858
1603,-5.9662447
1604,4.6359088
1605,10.405548
1606,-5.8025566
1607,8.0792524
1608,8.161071
1609,1.7286601
1610,7.7233898
1611,3.2796041
1612,-4.7167919
1613,-0.62242431
1614,0.69289864
1615,2.3228088
1616,1.4820143
1617,-3.0109889
1618,3.8179164
1619,4.8787969
1620,0.33800749
1621,13.085916
1622,-1.1149839
1623,10.640369
1624,6.0479397
1625,8.1170135
1626,3.7037852
1627,1.7099593
1628,2.1649909
1629,-8.3325283
1630,-4.8481858
1631,7.746619
1632,8.5446309
1633,0.69734883
1634,7.4448299
1635,15.30444
1636,10.781468
1637,-2.3375051
1638,1.4758376
1639,2.5379015
1640,5.5946151
1641,5.8452854
1642,5.2570569
1643,5.6209321
1644,8.6642641
1645,6.5218656
1646,3.4175736
1647,1.183228
1648,8.4939737
1649,2.5461945
1650,18.840932
1651,3.2374455
1652,-2.0184833
1653,4.5482638
1654,0.40284763
1655,2.0614371
1656,7.9698908
1657,1.3658439
1658,1.2102837
1659,-1.4424212
1660,2.2707975
1661,2.2489445
1662,11.001887
1663,-5.9610285
1664,2.9477312
1665,16.168239
1666,-14.177035
1667,8.8987767
1668,-0.73251703
1669,5.9489854
1670,9.0943862
1671,2.6144684
1672,3.0225297
1673,4.5421993
1674,-9.4759163
1675,-3.2219139
1676,10.566896
1677,0.56896804
1678,17.593328
1679,5.4342028
1680,3.3600751
1681,10.400349
1682,-4.8531212
1683,17.451572
1684,11.622711
1685,1.7353149
1686,-7.0567638
1687,7.5503165
1688,4.5485589
1689,-1.8072728
1690,6.5672447
1691,6.7219924
1692,4.8319786
1693,-3.1320709
1694,11.411935
1695,14.583286
1696,19.681289
1697,7.3073584
1698,4.697517
1699,1.1578178
1700,8.0435151
1701,-5.7680774
1702,12.297381
1703,15.298798
1704,1.1386905
1705,1.5636825
1706,-6.0706511
1707,8.2573434
1708,5.8302113
1709,7.9975194
1710,5.4611473
1711,3.0571948
1712,8.478671
1713,7.7300356
1714,11.428773
1715,11.117081
1716,13.353997
1717,11.140141
1718,14.566232
1719,8.2256395
1720,12.211409
1721,5.3498272
1722,3.8168026
1723,-0.39121174
1724,0.57169717
1725,4.2006851
1726,19.747847
1727,12.887598
1728,7.6472684
1729,0.93709841
1730,8.4532498
1731,5.910313
1732,5.9678165
1733,11.817081
1734,12.571874
1735,12.116426
1736,3.0673556
1737,10.928979
1738,13.731378
1739,-0.92325622
1740,3.976033
1741,17.637805
1742,2.812399
1743,2.9254216
1744,13.997868
1745,4.3783236
1746,9.3198378
1747,-4.0353267
1748,-0.21229332
1749,6.8687173
1750,20.434592
1751,3.60616
1752,8.295912
1753,5.1678071
1754,7.4057728
1755,2.4883224
1756,-8.2013346
1757,5.4740288
1758,-2.834858
1759,4.1491651
1760,8.9835702
1761,15.912068
1762,15.442512
1763,9.0891242
1764,2.3415324
1765,4.7907372
1766,15.234017
1767,10.150081
1768,8.0556109
1769,13.976825
1770,0.82349233
1771,20.116938
1772,13.180056
1773,1.7406473
1774,4.2248257
1775,13.425558
1776,3.7125348
1777,7.8281239
1778,20.362361
1779,6.1193213
1780,8.245319
1781,13.97945
1782,14.288163
1783,20.177878
1784,3.7500567
1785,9.7830523
1786,11.539797
1787,4.5622538
1788,6.4812782
1789,13.731151
1790,7.4514635
1791,8.6514264
1792,4.8461606
1793,3.0111571
1794,3.4559173
1795,14.794736
1796,20.773745
1797,7.6715216
1798,21.185646
1799,4.6251813
1800,6.2924199
1801,4.0049184
1802,8.0696863
1803,13.098392
1804,11.027994
1805,7.5396527
1806,16.29434
1807,4.6004917
1808,8.8728237
1809,1.0793328
1810,20.471248
1811,6.4121978
1812,15.168873
1813,0.28686155
1814,9.7168503
1815,16.282573
1816,17.245291
1817,10.698251
1818,7.3983518
1819,4.8060377
1820,11.533509
1821,13.634938
1822,14.769928
1823,5.5013114
1824,9.4686679
1825,4.6473929
1826,-0.29204914
1827,11.56914
1828,3.7477302
1829,11.447559
1830,8.9887641
1831,14.605154
1832,6.657099
1833,9.5047203
1834,12.420645
1835,9.297069
1836,3.4176169
1837,13.285461
1838,19.124412
1839,8.4891309
1840,9.7115769
1841,9.5450431
1842,-0.023508475
1843,11.352163
1844,15.764352
1845,4.1047572
1846,6.736551
1847,15.71899
1848,18.582819
1849,-2.5039585
1850,14.496541
1851,0.24718965
1852,13.55635
1853,9.7246548
1854,16.656382
1855,0.077892818
1856,3.1371143
1857,1.9624528
1858,15.293347
1859,18.512452
1860,16.931279
1861,3.3570811
1862,6.3241546
1863,2.7518644
1864,5.2809037
1865,10.411085
1866,19.666688
1867,7.5777086
1868,0.66593506
1869,14.358112
1870,15.949869
1871,19.528051
1872,17.130717
1873,11.02831
1874,-4.9646977
1875,14.904503
1876,4.161647
1877,11.515767
1878,2.8396785
1879,20.285998
1880,10.530543
1881,8.2712645
1882,13.246997
1883,1.4356043
1884,-0.19784386
1885,12.128332
1886,17.123115
1887,8.4915198
1888,9.6934451
1889,5.9611485
1890,12.07118
1891,4.9270494
1892,6.8885134
1893,0.7900144
1894,9.8499643
1895,14.445349
1896,10.188098
1897,17.74095
1898,7.9431915
1899,3.3871263
1900,6.1370401
1901,7.2629622
1902,9.6376237
1903,16.684615
1904,9.7170185
1905,21.964096
1906,0.7321984
1907,19.511653
1908,13.397524
1909,5.2921533
1910,13.717795
1911,14.984302
1912,17.433448
1913,16.591006
1914,12.768747
1915,3.6000147
1916,14.738094
1917,14.754466
1918,12.771059
1919,9.7125974
1920,11.099309
1921,16.839163
1922,7.3157153
1923,19.242192
1924,4.4984265
1925,-1.2834708
1926,7.2613428
1927,13.05486
1928,12.030727
1929,2.6584775
1930,10.77287
1931,5.2675074
1932,16.062412
1933,10.441996
1934,12.268599
1935,27.434612
1936,5.1240459
1937,9.2304928
1938,10.082162
1939,2.1255433
1940,7.2701888
1941,19.465416
1942,6.3230786
1943,-0.43603959
1944,9.4132665
1945,8.8292042
1946,13.406016
1947,20.948315
1948,1.2101804
1949,-5.3321354
1950,-0.99878059
1951,7.3965652
1952,10.899511
1953,11.667871
1954,12.065405
1955,8.3063474
1956,14.621847
1957,-5.6574507
1958,13.499118
1959,4.5423901
1960,0.96399095
1961,3.1177107
1962,4.9726515
1963,1.5386135
1964,-1.5258903
1965,4.0328981
1966,6.7801039
1967,5.7023612
1968,0.040444137
1969,2.1857074
1970,3.7905014
1971,1.7589178
1972,1.8759114
1973,-0.60761825
1974,-2.8989112
1975,12.169097
1976,2.19947
1977,2.1915653
1978,-6.1276266
1979,-2.0373064
1980,-2.9414207
1981,6.8631513
1982,-3.6142246
1983,15.175207
1984,-6.5580683
1985,10.137184
1986,8.9320202
1987,4.5582022
1988,4.1442
1989,7.4904893
1990,-8.7877067
1991,9.9797524
1992,-7.5650194
1993,7.3598047
1994,-6.8096768
1995,-7.6250543
1996,0.85457112
1997,-13.014511
1998,-1.1812863
1999,1.7977396
2000,1.1682347
