# kind,background_subtracted
# version_label,v1_poly5
# poly_order,5
# iterations_run,9
pixel_index,raman_shift_cm-1,intensity,background_intensity
0,-226.387,2.619915517655457,93.38008448234454
1,-223.315,2.5648434655964962,93.4351565344035
2,-220.244,4.5100237519808815,93.48997624801912
3,-217.175,3.4554550554502867,93.54454494454971
4,-214.107,4.401136060082351,93.59886393991765
5,-211.040,3.3470654553797914,93.65293454462021
6,-207.974,3.293241936259463,93.70675806374054
7,-204.909,4.239664203041286,93.76033579695871
8,-201.846,2.186330961437406,93.8136690385626
9,-198.784,3.1332409225411766,93.86675907745882
10,-195.723,5.080392802816192,93.91960719718381
11,-192.663,3.0277853240853574,93.97221467591464
12,-189.605,1.97541721351989,94.02458278648011
13,-186.547,2.923287203628405,94.0767127963716
14,-183.491,1.8713940322459166,94.12860596775408
15,-180.436,4.8197364425228955,94.1802635574771
16,-177.382,4.768313182914298,94.2316868170857
17,-174.330,3.7171230071686097,94.28287699283139
18,-171.279,2.666164674316903,94.3338353256831
19,-168.229,2.615436948661838,94.38456305133816
20,-165.180,1.5649385997667338,94.43506140023327
21,-162.132,3.514668402444613,94.48533159755539
22,-159.085,2.464625136747216,94.53537486325278
23,-156.040,3.414807587954016,94.58519241204598
24,-152.996,1.3652145465613614,94.63478545343864
25,-149.953,2.315844808271393,94.6841551917286
26,-146.911,4.266697173981143,94.73330282601886
27,-143.871,2.217770449771592,94.78222955022841
28,-140.832,2.1690634468966863,94.83093655310331
29,-137.793,4.120574981772336,94.87942501822766
30,-134.757,1.0723038759655452,94.92769612403445
31,-131.721,2.0242489561833708,94.97575104381663
32,-128.686,1.9764090542619925,95.02359094573801
33,-125.653,0.9287830071557721,95.07121699284423
34,-122.621,1.881369656926239,95.11863034307376
35,-119.590,0.0,95.16583214926881
36,-116.560,1.7871764408137096,95.21282355918629
37,-113.532,2.740394284491174,95.25960571550883
38,-110.504,2.6938202441443337,95.30617975585567
39,-107.478,2.647453187206324,95.35254681279368
40,-104.453,1.6012919861517645,95.39870801384824
41,-101.429,0.555335518485677,95.44466448151432
42,-98.407,1.5095826667326548,95.49041733326735
43,-95.385,0.46403231842583637,95.53596768157416
44,-92.365,1.4186833660959621,95.58131663390404
45,-89.346,1.3735347072603759,95.62646529273962
46,-86.328,1.3285852444121247,95.67141475558788
47,-83.311,0.2838338850089599,95.71616611499104
48,-80.296,1.2392795414623947,95.7607204585376
49,-77.282,1.1949211311267334,95.80507886887327
50,-74.268,0.15075757628808617,95.84924242371191
51,-71.256,1.1067878041534698,95.89321219584653
52,-68.246,1.063010746839808,95.93698925316019
53,-65.236,1.0194253413629326,95.98057465863707
54,-62.228,1.9760305296267262,96.02396947037327
55,-59.221,0.9328252584120662,96.06717474158793
56,-56.214,0.8898084793659109,96.11019152063409
57,-53.210,0.8469791489903002,96.1530208510097
58,-50.206,0.0,96.19566377136856
59,-47.203,0.7618786844687548,96.23812131553125
60,-44.202,0.7196054875038413,96.28039451249616
61,-41.202,1.6775156135495877,96.32248438645041
62,-38.203,7.635608043219207,96.36439195678079
63,-35.205,5.593881761915199,96.4061182380848
64,-32.209,11.552335759818519,96.44766424018148
65,-29.213,44.51096903187748,96.48903096812252
66,-26.219,47.469780577796925,96.53021942220307
67,-23.226,10.428769402027129,96.57123059797287
68,-20.234,3.387934513752967,96.61206548624703
69,-17.243,1.3472749268828608,96.65272507311714
70,-14.254,0.0,96.69321033996214
71,-11.265,0.2664777365406934,96.7335222634593
72,-8.278,0.0,96.77366181559525
73,-5.292,0.0,96.81362996367679
74,-2.307,1.1465723296579995,96.853427670342
75,0.677,0.0,96.89305589357116
76,3.659,0.06748441330235266,96.93251558669765
77,6.640,0.0,96.97180769841894
78,9.621,0.0,97.01093317280764
79,12.600,0.0,97.0498929493223
80,15.578,1.9113120371814887,97.08868796281851
81,18.554,0.0,97.12731914355977
82,21.530,1.834212582771471,97.16578741722853
83,24.504,0.0,97.20409370493705
84,27.477,0.7577610767615397,97.24223892323846
85,30.449,0.0,97.28022398413766
86,33.420,0.0,97.31804979510231
87,36.390,0.0,97.35571725907378
88,39.359,0.6067727255219211,97.39322727447808
89,42.326,0.0,97.4305807352369
90,45.292,0.5322214692215397,97.46777853077846
91,48.257,0.0,97.50482154604859
92,51.221,0.0,97.54171066152159
93,54.184,0.0,97.57844675321125
94,57.145,0.0,97.61503069268181
95,60.106,2.348536652941135,97.65146334705886
96,63.065,0.31225442095961853,97.68774557904038
97,66.023,1.2761217530923261,97.72387824690767
98,68.980,0.24013779546373826,97.75986220453626
99,71.936,0.0,97.79569830140696
100,74.891,0.1686126173832463,97.83138738261675
101,77.844,1.1330697111101955,97.8669302888898
102,80.796,3.0976721434116428,97.90232785658836
103,83.748,4.062419082276222,97.93758091772378
104,86.698,3.027309700032575,97.97269029996743
105,89.647,0.9923431733382984,98.0076568266617
106,92.594,2.957518683169056,98.04248131683094
107,95.541,1.9228354148075937,98.0771645851924
108,98.486,2.888292557832756,98.11170744216724
109,101.430,3.85388930610857,98.14611069389143
110,104.374,1.819624857773249,98.18037514222675
111,107.316,1.7854984152282185,98.21450158477178
112,110.256,2.7515091851272473,98.24849081487275
113,113.196,1.7176563783653478,98.28234362163465
114,116.135,1.6839392100679191,98.31606078993208
115,119.072,1.6503568995797764,98.34964310042022
116,122.008,1.616908670454123,98.38309132954588
117,124.943,2.583593750441679,98.41640624955832
118,127.877,2.5504113714796546,98.44958862852035
119,130.810,3.5173607696808205,98.48263923031918
120,133.742,1.484441185322524,98.51555881467748
121,136.672,1.4516518628357744,98.54834813716423
122,139.601,3.4189920507942304,98.58100794920577
123,142.530,2.386461001903257,98.61353899809674
124,145.457,0.3540579729889828,98.64594202701102
125,148.383,2.321782224987331,98.67821777501267
126,151.307,4.289633022933032,98.71036697706697
127,154.231,3.2576096359486826,98.74239036405132
128,157.154,1.2257113372338324,98.77428866276617
129,160.075,3.1939374040539263,98.80606259594607
130,162.995,1.1622871177294058,98.8377128822706
131,165.914,1.1307597636247664,98.86924023637523
132,168.832,2.0993546311375297,98.90064536886247
133,171.749,2.068071013687373,98.93192898631263
134,174.665,1.0369082087050572,98.96309179129494
135,177.579,4.005865517621572,98.99413448237843
136,180.493,2.9749422458571075,99.02505775414289
137,183.405,1.9441377028101385,99.05586229718986
138,186.316,3.9134512018464136,99.08654879815359
139,189.226,0.8828820602880256,99.11711793971197
140,192.135,3.852429599402484,99.14757040059752
141,195.042,3.822093144391687,99.17790685560831
142,197.949,1.7918720243809787,99.20812797561902
143,200.855,4.761765572408237,99.23823442759176
144,203.759,0.0,99.26822687458713
145,206.662,4.701894024224842,99.29810597577516
146,209.564,2.6721276135537693,99.32787238644623
147,212.465,3.642473241977882,99.35752675802212
148,215.365,3.612930261933144,99.38706973806686
149,218.264,2.583498029702241,99.41650197029776
150,221.161,3.554175905403625,99.44582409459638
151,224.057,2.5249632529805695,99.47503674701943
152,226.953,1.495859440190216,99.50414055980978
153,229.847,3.466863838592573,99.53313616140743
154,232.740,2.4379758235396167,99.56202417646038
155,235.632,3.4091947741642485,99.59080522583575
156,238.523,2.3805200733694107,99.61947992663059
157,241.412,3.351951107817115,99.64804889218289
158,244.301,3.3234872679174288,99.67651273208257
159,247.188,3.295127947817548,99.70487205218245
160,250.075,1.2668725453908678,99.73312745460913
161,252.960,4.238720462225984,99.76127953777402
162,255.844,4.210671103615709,99.78932889638429
163,258.727,4.182723878546184,99.81727612145382
164,261.608,4.154878199685868,99.84512180031413
165,264.489,3.127133483374564,99.87286651662544
166,267.369,3.099489149612481,99.90051085038752
167,270.247,4.07194462204933,99.92805537795067
168,273.125,6.044499327973227,99.95550067202677
169,276.001,6.017152698299867,99.98284730170013
170,278.876,3.989904167561491,100.01009583243851
171,281.750,2.9627531738959476,100.03724682610405
172,284.623,3.935699159035707,100.0643008409643
173,287.494,3.9087415682969606,100.09125843170304
174,290.365,6.8818798505685805,100.11812014943142
175,293.234,5.8551134583012185,100.14488654169878
176,296.103,2.82844184749635,100.17155815250365
177,298.970,5.801864477695247,100.19813552230475
178,301.836,2.775380811968077,100.22461918803192
179,304.701,2.7489903169029333,100.25100968309707
180,307.565,2.722692462594864,100.27730753740514
181,310.428,3.6964867226349156,100.30351327736508
182,313.290,2.6703725740991757,100.32962742590082
183,316.150,3.644349497537789,100.35565050246221
184,319.010,3.6184169769640278,100.38158302303597
185,321.868,2.592574499843323,100.40742550015668
186,324.726,0.5668215570823065,100.4331784429177
187,327.582,2.5411576430178116,100.45884235698219
188,330.437,4.515582255406002,100.484417744594
189,333.291,4.490094895411289,100.50990510458871
190,336.144,2.4646950675954997,100.5353049324045
191,338.995,3.4393822799067806,100.56061772009322
192,341.846,1.4141560436687826,100.58584395633122
193,344.696,3.3890158735695763,100.61098412643042
194,347.544,5.363961287650781,100.63603871234922
195,350.391,1.3389918072965088,100.66100819270349
196,353.237,2.314106957222535,100.68589304277747
197,356.083,2.2893062654651857,100.71069373453481
198,358.927,1.2645892633705245,100.73541073662948
199,361.769,3.2399554855832804,100.76004451441672
200,364.611,0.0,100.78459552996407
201,367.452,1.1909357579377797,100.80906424206222
202,370.292,2.166548893763874,100.83345110623613
203,373.130,1.1422434252442173,100.85775657475578
204,375.967,1.118018903352663,100.88198109664734
205,378.804,1.0938748822960065,100.906125117704
206,381.639,4.069810919503055,100.93018908049694
207,384.473,2.0458265756136313,100.95417342438637
208,387.306,3.021921414467613,100.97807858553239
209,390.138,0.9980950030939653,101.00190499690603
210,392.969,3.9743469116998114,101.02565308830019
211,395.799,1.9506767136594476,101.04932328634055
212,398.627,1.9270839855034154,101.07291601449658
213,401.455,2.9035683069074736,101.09643169309253
214,404.281,0.0,101.11987073931829
215,407.106,2.8567664327595423,101.14323356724046
216,409.931,1.8334794121867475,101.16652058781325
217,412.754,1.8102677911105474,101.18973220888945
218,415.576,2.78713116476861,101.21286883523139
219,418.397,1.7640691314780952,101.2359308685219
220,421.217,1.741081292624699,101.2589187073753
221,424.035,1.7181672526516962,101.2818327473483
222,426.853,2.69532661904897,101.30467338095103
223,429.670,1.672559002342041,101.32744099765796
224,432.485,0.6498640160811817,101.35013598391882
225,435.300,1.6272412768303184,101.37275872316968
226,438.113,1.6046904041562158,101.39530959584378
227,440.925,1.5822110206173932,101.4177889793826
228,443.736,0.0,101.44019724824673
229,446.546,0.5374652260731239,101.46253477392688
230,449.355,1.515198075045177,101.48480192495482
231,452.163,0.4930009330856109,101.50699906691439
232,454.970,0.0,101.52912656245238
233,457.776,2.4488152287104583,101.55118477128954
234,460.581,1.4268259497684426,101.57317405023156
235,463.384,0.4049052468200216,101.59509475317998
236,466.187,1.3830527688568282,101.61694723114317
237,468.988,4.361268167752684,101.63873183224732
238,471.788,4.339551098252656,101.66044890174734
239,474.587,2.317901217962131,101.68209878203787
240,477.386,1.2963181873357428,101.70368181266426
241,480.183,4.274801669666573,101.72519833033343
242,482.979,3.253351331075052,101.74664866892495
243,485.774,4.23196684049806,101.76803315950194
244,488.567,10.21064786967797,101.78935213032203
245,491.360,17.18939409315169,101.81060590684831
246,494.152,43.168205188239654,101.83179481176035
247,496.942,51.14708083503491,101.85291916496509
248,499.732,64.12602071639215,101.87397928360785
249,502.520,93.10502451791675,101.89497548208325
250,505.308,134.08409192795378,101.91590807204622
251,508.094,173.0632226375771,101.9367773624229
252,510.879,156.04241634057834,101.95758365942166
253,513.663,87.02167273345599,101.97832726654401
254,516.446,37.00099151540438,101.99900848459562
255,519.228,16.980372388302783,102.01962761169722
256,522.009,8.959815056704443,102.04018494329556
257,524.789,4.93931922782555,102.06068077217445
258,527.568,4.9188846115343665,102.08111538846563
259,530.346,2.8985109203402146,102.10148907965979
260,533.122,2.878197869382518,102.12180213061748
261,535.898,2.8579451764198893,102.14205482358011
262,538.672,0.8377525618190731,102.16224743818093
263,541.446,0.8176197485441037,102.1823802514559
264,544.218,0.7975464621452346,102.20245353785477
265,546.989,1.7775324307480815,102.22246756925192
266,549.760,0.0,102.24242261495743
267,552.529,0.0,102.26231894172798
268,555.297,2.7178431862221686,102.28215681377783
269,558.064,0.6980635072102643,102.30193649278974
270,560.830,0.0,102.32165823792596
271,563.595,0.0,102.34132230583927
272,566.358,0.6390710493162288,102.36092895068377
273,569.121,0.6195215758740034,102.380478424126
274,571.883,0.6000290246441864,102.39997097535581
275,574.643,1.5805931489026648,102.41940685109734
276,577.403,0.0,102.43878629561999
277,580.162,0.0,102.45810955074941
278,582.919,0.0,102.47737685587839
279,585.675,2.5034115520221576,102.49658844797784
280,588.431,1.4842554383921538,102.51574456160785
281,591.185,2.465154571071537,102.53484542892846
282,593.938,2.4461087202891605,102.55389127971084
283,596.690,0.4271176586519374,102.57288234134806
284,599.441,1.4081811611338253,102.59181883886617
285,602.191,1.3892990050648706,102.61070099493513
286,604.940,0.3704709701202944,102.6295290298797
287,607.688,1.3516968383094365,102.64830316169056
288,610.435,1.3329763939649126,102.66702360603509
289,613.181,0.3143094237315438,102.68569057626846
290,615.926,2.2956957165554996,102.7043042834445
291,618.669,1.2771350636732137,102.72286493632679
292,621.412,0.2586272586005691,102.74137274139943
293,624.153,1.240172097121814,102.75982790287819
294,626.894,0.0,102.77823062272135
295,629.633,2.203418899359292,102.79658110064071
296,632.372,1.1851204658874934,102.8148795341125
297,635.109,1.1668738816115365,102.83312611838846
298,637.845,1.1486789534933735,102.85132104650663
299,640.581,1.1305354906975538,102.86946450930245
300,643.315,1.1124433045803386,102.88755669541966
301,646.048,1.0944022086787157,102.90559779132128
302,648.780,0.07641201869945746,102.92358798130054
303,651.511,2.058472552508107,102.9415274474919
304,654.241,0.04058363011809263,102.95941636988191
305,656.970,1.022745073679701,102.9772549263203
306,659.698,2.0049567074691623,102.99504329253084
307,662.425,0.0,103.01278164212232
308,665.151,0.9695298534004166,103.03047014659958
309,667.875,0.0,103.04810897537435
310,670.599,0.934301704223671,103.06569829577633
311,673.322,1.9167617269359596,103.08323827306404
312,676.043,0.0,103.1007290704359
313,678.764,0.0,103.11817084904109
314,681.483,0.0,103.13556376799058
315,684.202,0.8470920156320147,103.15290798436799
316,686.919,0.0,103.17020365324069
317,689.636,0.0,103.18745092767065
318,692.351,0.7953500412745029,103.2046499587255
319,695.065,0.0,103.22180089548934
320,697.779,0.7610961149261328,103.23890388507387
321,700.491,0.7440409273707758,103.25595907262922
322,703.202,0.0,103.27296660135501
323,705.912,1.7100733874887766,103.28992661251122
324,708.621,0.0,103.30683924542922
325,711.329,0.0,103.3237046375227
326,714.036,0.6594770757013748,103.34052292429863
327,716.742,1.6427057606317845,103.35729423936822
328,719.447,0.6259812855420819,103.37401871445792
329,722.151,0.609303520579715,103.39069647942028
330,724.854,4.5926723377549195,103.40732766224508
331,727.556,0.0,103.42391238907008
332,730.257,0.5595492158078343,103.44045078419217
333,732.957,0.543057029921826,103.45694297007817
334,735.655,0.0,103.47338906737596
335,738.353,0.0,103.48978919492531
336,741.050,0.49385653023115594,103.50614346976884
337,743.745,0.47754799283690375,103.5224520071631
338,746.440,0.46128507941061514,103.53871492058938
339,749.134,0.445067678235219,103.55493232176478
340,751.826,0.42889567934685147,103.57110432065315
341,754.518,0.4127689745240133,103.58723102547599
342,757.208,2.3966874572765136,103.60331254272349
343,759.898,1.3806510228345843,103.61934897716542
344,762.586,0.3646595681378386,103.63534043186216
345,765.273,1.3487129918243852,103.65128700817561
346,767.960,1.3328111942198149,103.66718880578019
347,770.645,0.31695407732627245,103.68304592267373
348,773.329,1.301141544811486,103.69885845518851
349,776.013,3.2853735019978103,103.71462649800219
350,778.695,0.2696498558512417,103.73035014414876
351,781.376,0.0,103.74602948502951
352,784.056,0.23833538957600808,103.76166461042399
353,786.736,2.2227443914990204,103.77725560850098
354,789.414,0.2071974341705669,103.79280256582943
355,792.091,3.191694432610575,103.80830556738943
356,794.767,0.17623530341680294,103.8237646965832
357,797.442,1.1608199647540403,103.83918003524596
358,800.116,1.1454483363429802,103.85455166365702
359,802.789,1.1301203394493342,103.86987966055067
360,805.461,3.114835896872904,103.8851641031271
361,808.132,1.0995949329365828,103.90040506706342
362,810.802,3.084397373475383,103.91560262652462
363,813.471,0.06924314582548163,103.93075685417452
364,816.139,1.0541321788132763,103.94586782118672
365,818.806,2.039064402744444,103.96093559725556
366,821.472,3.024039749392898,103.9759602506071
367,824.137,0.009058151989947305,103.99094184801005
368,826.801,0.0,104.00588045478678
369,829.463,0.979223865175797,104.0207761348242
370,832.125,0.9643710494151492,104.03562895058485
371,834.786,0.0,104.05043896311768
372,837.446,0.0,104.06520623206922
373,840.105,2.9200691843056745,104.07993081569433
374,842.762,0.0,104.09461277086733
375,845.419,1.890747846907118,104.10925215309288
376,848.075,0.0,104.12384901651693
377,850.730,2.8615965860622765,104.13840341393772
378,853.383,1.847084603183248,104.15291539681675
379,856.036,1.8326149847103324,104.16738501528967
380,858.688,0.0,104.18181231817732
381,861.338,0.0,104.19619735299663
382,863.988,1.7894598340283636,104.21054016597164
383,866.637,1.7751591979556025,104.2248408020444
384,869.284,2.760900695114046,104.23909930488595
385,871.931,0.7466842830926481,104.25331571690735
386,874.576,5.732509920729498,104.2674900792705
387,877.221,0.7183775681007774,104.28162243189922
388,879.865,1.7042871865098164,104.29571281349018
389,882.507,1.690238738476154,104.30976126152385
390,885.149,1.6762321877245796,104.32376781227542
391,887.789,0.0,104.33773250082585
392,890.429,0.6483446389272416,104.35165536107276
393,893.067,1.6344635742585751,104.36553642574142
394,895.705,2.6206242736042924,104.37937572639571
395,898.341,2.606826706550933,104.39317329344907
396,900.977,1.5930708438245489,104.40692915617545
397,903.611,1.579356657279689,104.42064334272031
398,906.245,2.5656841198884592,104.43431588011154
399,908.878,3.552053205729564,104.44794679427044
400,911.509,2.538463889977308,104.46153611002269
401,914.140,0.0,104.47508385110928
402,916.769,2.5114099598025064,104.4885900401975
403,919.398,4.497945301108118,104.50205469889188
404,922.025,2.4845221522548258,104.51547784774517
405,924.652,4.471140493730701,104.5288595062693
406,927.277,7.457800307053702,104.5421996929463
407,929.902,6.444501574760693,104.5554984252393
408,932.525,6.43124428039647,104.56875571960353
409,935.148,5.418028408502849,104.58197159149715
410,937.769,8.404853944607638,104.59514605539236
411,940.390,5.3917208752137356,104.60827912478626
412,943.009,9.378629187788135,104.62137081221186
413,945.628,9.36557887075098,104.63442112924902
414,948.245,11.352569913464578,104.64743008653542
415,950.862,9.339602306222488,104.66039769377751
416,953.477,6.326676040238539,104.67332395976146
417,956.092,7.313791107635822,104.68620889236418
418,958.705,7.3009475014358,104.6990524985642
419,961.318,8.288145215547303,104.7118547844527
420,963.929,9.275384244755628,104.72461575524437
421,966.540,8.262664584711445,104.73733541528856
422,969.150,7.249986231920005,104.75001376808
423,971.758,7.2373491837300605,104.76265081626994
424,974.366,6.224753438322949,104.77524656167705
425,976.972,8.212198994701623,104.78780100529838
426,979.578,6.199685852679693,104.80031414732031
427,982.182,3.1872140128704842,104.81278598712952
428,984.786,4.1747834766760406,104.82521652332396
429,987.389,3.162394246276179,104.83760575372382
430,989.990,4.150046324617534,104.84995367538247
431,992.591,3.137739715402617,104.86226028459738
432,995.191,1.1254744230787992,104.8745255769212
433,997.789,1.1132504528274154,104.88674954717258
434,1000.387,4.101067810552735,104.89893218944727
435,1002.984,3.0889265028711037,104.9110734971289
436,1005.579,3.0768265370998478,104.92317346290015
437,1008.174,1.0647679212464283,104.93523207875357
438,1010.768,1.0527506639974433,104.94724933600256
439,1013.361,3.0407747747076,104.9592252252924
440,1015.952,3.028840263388915,104.97115973661109
441,1018.543,2.016947140699557,104.98305285930044
442,1021.133,3.0050954179330347,104.99490458206697
443,1023.722,1.993285107007182,105.00671489299282
444,1026.310,2.9815162204531873,105.01848377954681
445,1028.896,0.0,105.03021122859533
446,1031.482,2.9581027735866456,105.04189722641335
447,1034.067,0.0,105.05354175869533
448,1036.651,0.0,105.06514481056622
449,1039.234,2.9232936334076243,105.07670636659238
450,1041.816,0.9117735892073995,105.0882264107926
451,1044.397,0.0,105.099704926649
452,1046.977,0.8888581028819829,105.11114189711802
453,1049.556,0.0,105.12253730464141
454,1052.134,0.866108868842872,105.13389113115713
455,1054.711,2.854796641889692,105.14520335811031
456,1057.287,1.8435260335356958,105.1564739664643
457,1059.862,2.8322970632884505,105.16770293671155
458,1062.436,1.8211097511154435,105.17889024888456
459,1065.009,1.809964117433097,105.1900358825669
460,1067.581,0.7988601830958402,105.20113981690416
461,1070.153,0.7877979693851671,105.21220203061483
462,1072.723,3.7767774979986086,105.22322250200139
463,1075.292,1.765798791038847,105.23420120896115
464,1077.860,0.0,105.2451381289973
465,1080.428,1.7439667607701637,105.25603323922984
466,1082.994,0.0,105.26688651640649
467,1085.559,0.7223020630862607,105.27769793691374
468,1088.124,1.7115325232122558,105.28846747678774
469,1090.687,0.0,105.29919511172531
470,1093.249,0.6901191829051356,105.30988081709486
471,1095.811,0.0,105.32052456794736
472,1098.371,2.6688736609726504,105.33112633902735
473,1100.931,0.0,105.34168610478379
474,1103.489,0.6477961606188245,105.35220383938118
475,1106.047,1.6373204832896704,105.36267951671033
476,1108.604,2.626886889600513,105.37311311039949
477,1111.159,2.6164954061747494,105.38350459382525
478,1113.714,0.6061460598765791,105.39385394012342
479,1116.268,0.0,105.40416112220014
480,1118.820,1.5855738872572829,105.41442611274272
481,1121.372,1.575351115769351,105.42464888423065
482,1123.923,0.0,105.43482940894656
483,1126.473,0.5550323410128186,105.44496765898718
484,1129.022,0.5449363937257345,105.45506360627427
485,1131.570,1.5348827774343476,105.46511722256565
486,1134.116,0.5248715205339209,105.47512847946608
487,1136.662,1.5149026515617265,105.48509734843827
488,1139.207,1.50497619918616,105.49502380081384
489,1141.752,1.4950921921957843,105.50490780780422
490,1144.295,1.4852506594882868,105.51474934051171
491,1146.837,1.4754516300596094,105.52454836994039
492,1149.378,2.4656951329929626,105.53430486700704
493,1151.918,2.4559811974478265,105.54401880255217
494,1154.457,0.0,105.55369014735096
495,1156.996,1.436681127875815,105.56331887212419
496,1159.533,0.42709505245079527,105.5729049475492
497,1162.069,1.4175516557290706,105.58244834427093
498,1164.605,0.4080509670872061,105.5919490329128
499,1167.139,3.3985930159123257,105.60140698408767
500,1169.673,0.38917783159115515,105.61082216840884
501,1172.205,0.3798054434989666,105.62019455650103
502,1174.737,0.0,105.62952411901125
503,1177.267,0.3611891733801684,105.63881082661983
504,1179.797,0.3519453499485934,105.6480546500514
505,1182.326,2.342744439914213,105.65725556008579
506,1184.854,0.33358647243098005,105.66641352756902
507,1187.380,3.324471476575752,105.67552852342425
508,1189.906,0.0,105.68460051866279
509,1192.431,2.306370515605039,105.69362948439496
510,1194.955,0.0,105.70261539184115
511,1197.478,1.2884417876572627,105.71155821234274
512,1200.000,2.2795420826269606,105.72045791737304
513,1202.521,1.2706855214516963,105.7293144785483
514,1205.041,1.2618721323613897,105.73812786763861
515,1207.560,0.25310194342108616,105.74689805657891
516,1210.079,3.2443749825200285,105.75562501747997
517,1212.596,3.2356912773607576,105.76430872263924
518,1215.112,1.22705085544807,105.77294914455193
519,1217.628,1.2184537440780758,105.78154625592192
520,1220.142,3.209899970327271,105.79010002967273
521,1222.655,1.2013895610415233,105.79861043895848
522,1225.168,1.1929225428251868,105.80707745717481
523,1227.679,2.1844989420300607,105.81550105796994
524,1230.190,3.1761187847444887,105.82388121525551
525,1232.700,2.167782096782375,105.83221790321763
526,1235.209,0.15948890367221225,105.84051109632779
527,1237.716,2.1512392306461265,105.84876076935387
528,1240.223,3.1430331026289338,105.85696689737107
529,1242.729,3.1348705442271836,105.86512945577282
530,1245.234,4.126751579718174,105.87324842028183
531,1247.738,0.11867623303898256,105.88132376696102
532,1250.241,1.1106445277755483,105.88935547222445
533,1252.743,1.1026564871516769,105.89734351284832
534,1255.244,1.0947121340180814,105.90528786598192
535,1257.745,2.0868114908414412,105.91318850915856
536,1260.244,3.0789545796934448,105.92104542030656
537,1262.742,3.0711414222397764,105.92885857776022
538,1265.240,1.0633720397292166,105.93662796027078
539,1267.736,1.0556464529826854,105.94435354701731
540,1270.232,1.0479646823822009,105.9520353176178
541,1272.726,1.0403267478600213,105.95967325213998
542,1275.220,4.032732668887604,105.9672673311124
543,1277.713,1.0251824644646774,105.97481753553532
544,1280.204,3.01767615310834,105.98232384689166
545,1282.695,2.010213752841935,105.98978624715807
546,1285.185,2.002795281184291,105.99720471881571
547,1287.674,2.9954207551385963,106.0045792448614
548,1290.162,0.9880901911815698,106.01190980881843
549,1292.649,0.9808036052523903,106.01919639474761
550,1295.135,4.973561012741783,106.02643898725822
551,1297.620,4.966362428481105,106.0336375715189
552,1300.105,2.9592078667312904,106.04079213326871
553,1302.588,1.9520973411719638,106.04790265882804
554,1305.070,2.9450308648904553,106.05496913510954
555,1307.552,3.938008450370802,106.0619915496292
556,1310.032,2.93103010948289,106.06896989051711
557,1312.512,1.9240958534713855,106.07590414652861
558,1314.991,1.9172056929448047,106.0827943070552
559,1317.468,4.910359637864602,106.0896403621354
560,1319.945,5.90355769753414,106.09644230246586
561,1322.421,4.896799880587807,106.1032001194122
562,1324.896,5.8900861949799435,106.10991380502006
563,1327.370,2.8834166479740304,106.11658335202597
564,1329.843,3.8767912461315888,106.12320875386841
565,1332.315,3.8702099953012805,106.12979000469872
566,1334.786,5.86367290060798,106.13632709939202
567,1337.257,3.857179966441734,106.14282003355827
568,1339.726,6.850731196446901,106.1492688035531
569,1342.194,3.84432659351107,106.15567340648893
570,1344.662,6.837966159754245,106.16203384024575
571,1347.128,5.8316498965177175,106.16835010348228
572,1349.594,4.825377804353252,106.17462219564675
573,1352.059,4.819149883012059,106.18085011698794
574,1354.523,5.812966131433839,106.18703386856616
575,1356.985,5.80682654773581,106.19317345226419
576,1359.447,6.8007311292017505,106.19926887079825
577,1361.908,6.794679872271118,106.20532012772888
578,1364.368,6.788672772527931,106.21132722747207
579,1366.828,5.782709824689974,106.21729017531003
580,1369.286,4.776791022597735,106.22320897740227
581,1371.743,4.77091635920344,106.22908364079656
582,1374.200,4.765085826560153,106.23491417343985
583,1376.655,2.7592994158108155,106.24070058418918
584,1379.110,3.7535571171771807,106.24644288282282
585,1381.563,4.747858919948996,106.252141080051
586,1384.016,4.742204812472949,106.25779518752705
587,1386.468,4.7365947821417365,106.26340521785826
588,1388.919,5.731028815383098,106.2689711846169
589,1391.368,3.725506897648856,106.27449310235114
590,1393.817,1.720029013403959,106.27997098659604
591,1396.266,0.0,106.28540485388446
592,1398.713,4.709205278241882,106.29079472175812
593,1401.159,3.7038593912215845,106.29614060877842
594,1403.604,1.698557465462443,106.30144253453756
595,1406.049,4.693299480330651,106.30670051966935
596,1408.492,2.688085414139721,106.31191458586028
597,1410.935,2.682915244139579,106.31708475586042
598,1413.377,4.677788946505586,106.32221105349441
599,1415.817,3.672706496327578,106.32729350367242
600,1418.257,3.667667867598908,106.33233213240109
601,1420.696,2.6626730332055217,106.33732696679448
602,1423.134,0.0,106.3422780350851
603,1425.571,2.6528146333652103,106.34718536663479
604,1428.007,3.6479510080542923,106.35204899194571
605,1430.443,0.6431310573286737,106.35686894267133
606,1432.877,3.638354748372649,106.36164525162735
607,1435.311,4.633622047197321,106.36637795280268
608,1437.743,2.6289329186296015,106.3710670813704
609,1440.175,4.624287326301314,106.37571267369869
610,1442.605,4.6196852326381475,106.38031476736185
611,1445.035,0.6151265988487751,106.38487340115122
612,1447.464,3.6106113849138524,106.38938861508615
613,1449.892,3.6061395495750617,106.39386045042494
614,1452.319,1.6017110503241696,106.39828894967583
615,1454.745,1.597325843392042,106.40267415660796
616,1457.171,4.592983883737688,106.40701611626231
617,1459.595,3.5886851250373155,106.41131487496268
618,1462.018,4.58442951967335,106.41557048032665
619,1464.441,4.580217018723516,106.41978298127648
620,1466.863,0.5760475719497862,106.42395242805021
621,1469.283,3.5719211277875615,106.42807887221244
622,1471.703,5.567837633334534,106.43216236666547
623,1474.122,2.563797034339899,106.4362029656601
624,1476.540,0.5597992751932708,106.44020072480673
625,1478.957,1.555844298913783,106.44415570108622
626,1481.373,0.5519320471391325,106.44806795286087
627,1483.789,1.5480624601145507,106.45193753988545
628,1486.203,1.5442354766819477,106.45576452331805
629,1488.616,0.0,106.45954896573113
630,1491.029,1.5367090688775278,106.46329093112247
631,1493.441,2.5330095150739425,106.46699048492606
632,1495.851,0.5293523059768717,106.47064769402313
633,1498.261,2.5257373732468977,106.4742626267531
634,1500.670,1.5221646470754848,106.47783535292452
635,1503.078,0.5186340561739371,106.48136594382606
636,1505.486,0.51514552776257,106.48485447223743
637,1507.892,1.5116989875596403,106.48830101244036
638,1510.297,0.5082943597704173,106.49170564022958
639,1512.702,1.5049315670762269,106.49506843292377
640,1515.105,2.501610530623509,106.49838946937649
641,1517.508,0.49833117001281835,106.50166882998718
642,1519.910,0.495093403287882,106.50490659671212
643,1522.310,0.49189714692468556,106.50810285307531
644,1524.710,2.4887423158203887,106.51125768417961
645,1527.110,0.0,106.51437117671748
646,1529.508,1.4825565810179029,106.5174434189821
647,1531.905,0.4795254991217348,106.52047450087827
648,1534.301,0.47653548606662355,106.52346451393338
649,1536.697,3.473586448691634,106.52641355130837
650,1539.091,3.470678292191323,106.52932170780868
651,1541.485,3.4678109201047675,106.53218907989523
652,1543.878,2.464984234304609,106.53501576569539
653,1546.270,2.4621981349861386,106.53780186501386
654,1548.661,0.4594525206562139,106.54054747934379
655,1551.051,0.4567472881224717,106.54325271187753
656,1553.440,1.4540823324822014,106.5459176675178
657,1555.829,1.4514575471115165,106.54854245288848
658,1558.216,1.448872823654284,106.55112717634572
659,1560.603,0.44632805201123915,106.55367194798876
660,1562.988,0.4438231203290144,106.55617687967099
661,1565.373,0.0,106.55864208501086
662,1567.757,4.438932320597132,106.56106767940287
663,1570.140,0.4365462199715182,106.56345378002848
664,1572.522,0.43419949413279824,106.5658005058672
665,1574.903,2.4318920222926437,106.56810797770736
666,1577.284,1.4296236818427985,106.5703763181572
667,1579.663,2.4273943483441798,106.57260565165582
668,1582.042,1.4252038955158781,106.57479610448412
669,1584.419,3.4230521952242867,106.57694780477571
670,1586.796,2.4209391174719883,106.57906088252801
671,1589.172,0.0,106.58113546961305
672,1591.547,2.416828300211506,106.5831716997885
673,1593.921,2.4148302912913095,106.58516970870869
674,1596.294,0.4128703660645243,106.58712963393548
675,1598.667,0.4109483850507445,106.58905161494926
676,1601.038,0.4090642068401422,106.59093579315986
677,1603.409,2.407217688082355,106.59278231191765
678,1605.778,2.4054086834756987,106.5945913165243
679,1608.147,0.4036370457560423,106.59636295424396
680,1610.515,2.40190262568602,106.59809737431398
681,1612.882,2.4002052720438627,106.59979472795614
682,1615.248,0.0,106.60145516838732
683,1617.614,1.3969211491692732,106.60307885083073
684,1619.978,2.395334067473314,106.60466593252669
685,1622.342,4.393783427256352,106.60621657274365
686,1624.704,1.392269067210833,106.60773093278917
687,1627.066,1.3907908239791453,106.60920917602085
688,1629.427,1.3893485321426908,106.61065146785731
689,1631.787,0.3879420242108722,106.61205797578913
690,1634.146,3.3865711306101502,106.61342886938985
691,1636.504,1.3852356796731442,106.61476432032686
692,1638.862,0.3839354976275615,106.61606450237244
693,1641.218,0.38267040858534074,106.61732959141466
694,1643.574,0.3814402345316097,106.61855976546839
695,1645.928,1.3802447953137715,106.61975520468623
696,1648.282,2.379083908630534,106.62091609136947
697,1650.635,0.37795739002098117,106.62204260997902
698,1652.987,0.0,106.6231349471465
699,1655.339,0.0,106.624193291685
700,1657.689,0.0,106.62521783460024
701,1660.038,1.3737912308986182,106.62620876910138
702,1662.387,2.372833709387919,106.62716629061208
703,1664.735,0.3719094032186234,106.62809059678138
704,1667.082,0.0,106.62898188749472
705,1669.428,0.3701596351151153,106.62984036488488
706,1671.773,3.3693337666570073,106.63066623334299
707,1674.117,0.36854030047067,106.63145969952933
708,1676.460,1.3677790276154553,106.63222097238454
709,1678.803,1.3670497368596841,106.63295026314032
710,1681.144,0.36635221466941914,106.63364778533058
711,1683.485,2.365686245197651,106.63431375480235
712,1685.825,0.0,106.63494838972666
713,1688.164,4.364448089390365,106.63555191060964
714,1690.502,1.3638754596966578,106.63612454030334
715,1692.839,0.36333349598317,106.63666650401683
716,1695.176,1.3628219706729965,106.637178029327
717,1697.511,1.362340653810307,106.6376593461897
718,1699.846,3.36188931304946,106.63811068695054
719,1702.180,0.0,106.63853228635593
720,1704.513,2.361075618435933,106.63892438156407
721,1706.845,2.3607127878441645,106.63928721215584
722,1709.176,1.360378979854218,106.63962102014578
723,1711.506,2.3600739500068926,106.63992604999311
724,1713.836,0.35979745138743624,106.64020254861256
725,1716.164,1.359549234614505,106.6404507653855
726,1718.492,3.3593290478292346,106.64067095217077
727,1720.819,2.359136636684326,106.64086336331567
728,1723.145,1.3589717443330187,106.64102825566698
729,1725.470,1.3588341114181475,106.64116588858185
730,1727.794,2.358723476061229,106.64127652393877
731,1730.118,0.0,106.64136042614857
732,1732.440,0.0,106.64141786216533
733,1734.762,0.3585508985025996,106.6414491014974
734,1737.083,0.35854558378167667,106.64145441621832
735,1739.403,5.358565919022212,106.64143408097779
736,1741.722,0.3586116269873969,106.6413883730126
737,1744.040,1.3586824278423393,106.64131757215766
738,1746.358,1.3587780391431181,106.64122196085688
739,1748.674,2.3588981758257717,106.64110182417423
740,1750.990,2.359042550195454,106.64095744980455
741,1753.305,0.0,106.64078912808472
742,1755.618,0.35940284799562505,106.64059715200437
743,1757.932,2.3596181827828815,106.64038181721712
744,1760.244,0.0,106.64014342205124
745,1762.555,2.3601177324790967,106.6398822675209
746,1764.866,0.36040134266309565,106.6395986573369
747,1767.175,3.3607071020822303,106.63929289791777
748,1769.484,0.3610347015993227,106.63896529840068
749,1771.792,1.3613838293476022,106.6386161706524
750,1774.099,2.3617541707197347,106.63824582928027
751,1776.405,1.3621454083568523,106.63785459164315
752,1778.711,0.3625572221375961,106.6374427778624
753,1781.015,2.362989289167146,106.63701071083285
754,1783.319,0.36344128376632057,106.63655871623368
755,1785.622,0.0,106.6360871225395
756,1787.924,1.3644037389687895,106.63559626103121
757,1790.225,4.364913534192993,106.635086465807
758,1792.525,2.3654419262066284,106.63455807379337
759,1794.824,2.3659885752440317,106.63401142475597
760,1797.123,0.366553138689369,106.63344686131063
761,1799.421,2.3671352710656492,106.63286472893435
762,1801.718,3.367734624023825,106.63226537597617
763,1804.014,1.3683508463317509,106.63164915366825
764,1806.309,2.368983583863283,106.63101641613672
765,1808.603,2.369632479587324,106.63036752041268
766,1810.896,0.0,106.62970282644321
767,1813.189,1.370977302897785,106.62902269710222
768,1815.481,0.0,106.62832749820154
769,1817.772,2.3723824014982,106.6276175985018
770,1820.062,0.3731066302765953,106.6268933697234
771,1822.351,2.373844813442531,106.62615518655747
772,1824.639,0.0,106.62540342667688
773,1826.927,1.3753615292529133,106.62463847074709
774,1829.213,0.37613929756274445,106.62386070243726
775,1831.499,0.3769294915689443,106.62307050843106
776,1833.784,2.3777317215622134,106.62226827843779
777,1836.068,1.3785455947968615,106.62145440520314
778,1838.352,1.379370715479638,106.62062928452036
779,1840.634,2.380206684758946,106.61979331524105
780,1842.916,0.38105310071371434,106.61894689928629
781,1845.196,3.3819095583426133,106.61809044165739
782,1847.476,0.0,106.61722435044706
783,1849.755,1.3836509631498046,106.6163490368502
784,1852.033,0.0,106.61546491517498
785,1854.311,2.3854275971462187,106.61457240285378
786,1856.587,0.0,106.61367192045405
787,1858.863,2.387236108310546,106.61276389168945
788,1861.138,0.0,106.61184874343063
789,1863.412,2.389073094283731,106.61092690571627
790,1865.685,2.390001188235914,106.60999881176409
791,1867.957,1.3909351020182612,106.60906489798174
792,1870.229,0.0,106.60812560397778
793,1872.499,0.3928186274274026,106.6071813725726
794,1874.769,0.393767350190501,106.6062326498095
795,1877.038,2.3947201150345023,106.6052798849655
796,1879.306,2.395676469437575,106.60432353056243
797,1881.574,2.3966359576221805,106.60336404237782
798,1883.840,1.397598120544174,106.60240187945583
799,1886.106,1.3985624958816771,106.60143750411832
800,1888.370,1.3995286180243056,106.6004713819757
801,1890.634,2.4004960180620714,106.59950398193793
802,1892.898,3.4014642237744397,106.59853577622556
803,1895.160,3.4024327596194723,106.59756724038053
804,1897.421,0.40340114672274296,106.59659885327726
805,1899.682,2.4043689028664375,106.59563109713356
806,1901.942,1.4053355424783973,106.5946644575216
807,1904.200,3.406300576621092,106.59369942337891
808,1906.459,2.407263512980819,106.59273648701918
809,1908.716,2.408223855856491,106.59177614414351
810,1910.972,1.4091811061489636,106.59081889385104
811,1913.228,2.410134761349795,106.5898652386502
812,1915.483,1.4110843155305446,106.58891568446946
813,1917.736,1.4120292593316037,106.5879707406684
814,1919.990,2.4129690799513384,106.58703092004866
815,1922.242,3.4139032611351325,106.58609673886487
816,1924.493,0.41483128316440343,106.5851687168356
817,1926.744,4.415752622845616,106.58424737715438
818,1928.994,4.4166667534993564,106.58333324650064
819,1931.243,0.4175731449494009,106.5824268550506
820,1933.491,0.0,106.58152873648832
821,1935.738,3.4193605719833613,106.58063942801664
822,1937.984,1.4202405296318972,106.5797594703681
823,1940.230,0.4211105921840357,106.57888940781596
824,1942.475,3.4219702118148803,106.57802978818512
825,1944.719,3.422818837136944,106.57718116286306
826,1946.962,0.4236559131891511,106.57634408681085
827,1949.204,1.4244808814259073,106.57551911857409
828,1951.446,0.42529317970608815,106.57470682029391
829,1953.686,3.4260922422821665,106.57390775771783
830,1955.926,4.426877499789171,106.57312250021083
831,1958.165,1.4276483792337586,106.57235162076624
832,1960.403,1.4284043039832994,106.5715956960167
833,1962.641,0.42914469375479314,106.5708553062452
834,1964.877,4.42986896460404,106.57013103539596
835,1967.113,0.4305765289145995,106.5694234710854
836,1969.348,2.431266795386861,106.56873320461314
837,1971.582,2.431939169027089,106.56806083097291
838,1973.815,2.432593051136422,106.56740694886358
839,1976.048,2.433227839299988,106.56677216070001
840,1978.279,2.433842927375835,106.56615707262416
841,1980.510,2.4344377054840862,106.56556229451591
842,1982.740,0.4350115599958855,106.56498844000411
843,1984.969,3.4355638735225256,106.56443612647747
844,1987.197,0.43609402490436366,106.56390597509564
845,1989.425,2.436601389200007,106.5633986108
846,1991.651,1.437085337675228,106.56291466232477
847,1993.877,1.4375452377921079,106.56245476220789
848,1996.102,0.4379804531979943,106.562019546802
849,1998.326,1.4383903437145733,106.56160965628543
850,2000.550,3.4387742653268987,106.5612257346731
851,2002.772,0.4391315701724494,106.56086842982755
852,2004.994,1.439461606530159,106.56053839346984
853,2007.215,2.4397637188094734,106.56023628119053
854,2009.435,2.440037247539337,106.55996275246066
855,2011.655,3.440281529357293,106.55971847064271
856,2013.873,4.440495896998499,106.5595041030015
857,2016.091,0.4406796792847132,106.55932032071529
858,2018.307,3.44083220111348,106.55916779888652
859,2020.524,0.0,106.55904721655305
860,2022.739,0.0,106.55895925669881
861,2024.953,4.4410953937349404,106.55890460626506
862,2027.167,3.4411160438389032,106.5588839561611
863,2029.380,2.441101998724534,106.55889800127547
864,2031.591,1.441052559513409,106.55894744048659
865,2033.803,1.440967023325868,106.55903297667413
866,2036.013,3.4408446832703987,106.5591553167296
867,2038.222,0.4406848284324525,106.55931517156755
868,2040.431,1.4404867438636444,106.55951325613636
869,2042.639,1.440249710570626,106.55975028942937
870,2044.846,2.4399730055042994,106.5600269944957
871,2047.052,2.4396559015486616,106.56034409845134
872,2049.258,0.4392976675100897,106.56070233248991
873,2051.463,1.4388975681061567,106.56110243189384
874,2053.666,2.4384548639547603,106.56154513604524
875,2055.869,0.4379688115631808,106.56203118843682
876,2058.072,2.4374386633170815,106.56256133668292
877,2060.273,1.4368636674695807,106.56313633253042
878,2062.474,3.4362430681303238,106.56375693186968
879,2064.673,1.4355761052543414,106.56442389474566
880,2066.872,1.4348620146313351,106.56513798536866
881,2069.071,1.4341000278746066,106.5658999721254
882,2071.268,2.43328937241003,106.56671062758997
883,2073.465,0.0,106.56757072853478
884,2075.660,4.4315189440584675,106.56848105594153
885,2077.855,3.4305576049878255,106.56944239501217
886,2080.049,1.4295444648201396,106.57045553517986
887,2082.243,1.4284787298800978,106.5715212701199
888,2084.435,2.4273596022392923,106.57264039776071
889,2086.627,0.4261862797051492,106.57381372029485
890,2088.818,3.424957955810129,106.57504204418987
891,2091.008,0.0,106.57632618019935
892,2093.197,0.42233305662615805,106.57766694337384
893,2095.386,1.420934846928219,106.57906515307178
894,2097.574,1.4194783670293845,106.58052163297062
895,2099.760,0.4179627889224804,106.58203721107752
896,2101.947,0.0,106.5836127197405
897,2104.132,1.4147510043406442,106.58524899565936
898,2106.316,3.413053120103342,106.58694687989666
899,2108.500,1.4112927821114454,106.58870721788855
900,2110.683,1.4094691405439903,106.59053085945601
901,2112.865,0.40758134118456724,106.59241865881543
902,2115.046,2.4056285254100658,106.59437147458993
903,2117.227,2.4036098301799456,106.59639016982005
904,2119.407,0.0,106.59847561197495
905,2121.585,3.399371327036917,106.60062867296308
906,2123.764,0.39714977085647263,106.60285022914353
907,2125.941,1.394858838663481,106.60514116133652
908,2128.117,1.3924976451652356,106.60750235483476
909,2130.293,2.390065300585718,106.60993469941428
910,2132.468,2.38756091065477,106.61243908934523
911,2134.642,1.3849835765968805,106.61501642340312
912,2136.815,0.38233239512047135,106.61766760487953
913,2138.988,0.3796064584067267,106.62039354159327
914,2141.160,2.3768048540988076,106.62319514590119
915,2143.331,1.3739266652907531,106.62607333470925
916,2145.501,3.3709709705166375,106.62902902948336
917,2147.670,3.3679368437395,106.6320631562605
918,2149.839,1.3648233543404729,106.63517664565953
919,2152.006,0.3616295671077836,106.63837043289222
920,2154.173,1.3583545422257686,106.64164545777423
921,2156.339,4.35499733526396,106.64500266473604
922,2158.505,1.3515569971661137,106.64844300283389
923,2160.669,1.3480325742392125,106.65196742576079
924,2162.833,2.344423108142564,106.65557689185744
925,2164.996,0.34072763587673194,106.65927236412327
926,2167.158,2.3369451897728197,106.66305481022718
927,2169.320,3.3330747974811175,106.66692520251888
928,2171.480,3.329115481960571,106.67088451803943
929,2173.640,4.325066261467498,106.6749337385325
930,2175.799,5.3209261495448175,106.67907385045518
931,2177.957,2.316694155010879,106.68330584498912
932,2180.115,3.3123692819488753,106.68763071805112
933,2182.271,0.30795052969540393,106.6920494703046
934,2184.427,1.3034368928299216,106.69656310717008
935,2186.582,0.2988273611634895,106.70117263883651
936,2188.737,2.2941209197281154,106.70587908027188
937,2190.890,3.2893165487653278,106.71068345123467
938,2193.043,1.2844132237158306,106.71558677628417
939,2195.195,1.2794099152079497,106.72059008479205
940,2197.346,0.0,106.72569441095294
941,2199.496,1.269099206204487,106.73090079379551
942,2201.646,3.2637897228065498,106.73621027719345
943,2203.795,3.2583760901235763,106.74162390987642
944,2205.943,1.2528572545590606,106.74714274544094
945,2208.090,5.2472321576385355,106.75276784236146
946,2210.236,3.2414997359987296,106.75850026400127
947,2212.382,1.2356589213765687,106.76434107862343
948,2214.527,0.2297086405982327,106.77029135940177
949,2216.671,1.223647815568171,106.77635218443183
950,2218.814,3.217475363258103,106.7825246367419
951,2220.957,4.211190195696204,106.7888098043038
952,2223.098,2.2047912199559505,106.79520878004405
953,2225.239,0.0,106.80172266185467
954,2227.380,3.1916474473957663,106.80835255260423
955,2229.519,2.1849004398512335,106.81509956014877
956,2231.657,4.178035202657185,106.82196479734282
957,2233.795,4.171050617949746,106.82894938205025
958,2235.932,1.1639455628446598,106.83605443715534
959,2238.069,0.0,106.84328109057365
960,2240.204,1.149369524736855,106.85063047526315
961,2242.339,3.141896270765173,106.85810372923483
962,2244.473,3.134298004435834,106.86570199556417
963,2246.606,1.1265735775984353,106.87342642240156
964,2248.738,0.0,106.88127816298368
965,2250.870,2.1107416243557537,106.88925837564425
966,2253.001,0.10263177617495955,106.89736822382504
967,2255.131,2.0943911239131694,106.90560887608683
968,2257.260,1.0860184938796067,106.9139815061204
969,2259.388,5.0775127072426045,106.9224872927574
970,2261.516,2.0688725800185637,106.93112741998144
971,2263.643,2.060096923061053,106.93990307693895
972,2265.769,2.0511845420498673,106.94881545795013
973,2267.894,5.042134237479914,106.95786576252009
974,2270.019,3.032944804650512,106.96705519534949
975,2272.143,4.0236150336541385,106.97638496634586
976,2274.266,1.0141437093657544,106.98585629063425
977,2276.388,1.0045296114315505,106.99547038856845
978,2278.509,0.9947715142582894,107.00522848574171
979,2280.630,1.984868187002121,107.01513181299788
980,2282.750,0.0,107.02518160644229
981,2284.869,2.9646208925472166,107.03537910745278
982,2286.988,0.9542744373095218,107.04572556269048
983,2289.105,0.0,107.05622222411111
984,2291.222,1.9331296510245295,107.06687034897547
985,2293.338,2.9223288001390983,107.0776711998609
986,2295.453,0.0,107.08862604467186
987,2297.568,0.9002638433488954,107.0997361566511
988,2299.682,1.8889971856095542,107.11100281439045
989,2301.795,0.0,107.12242730184207
990,2303.907,3.865989091670997,107.134010908329
991,2306.018,0.0,107.14575492855656
992,2308.129,2.842339337377126,107.15766066262287
993,2310.239,2.8302705839696642,107.16972941603034
994,2312.348,0.8180375003040581,107.18196249969594
995,2314.457,1.805638770037092,107.19436122996291
996,2316.564,1.7930730713889318,107.20692692861107
997,2318.671,0.0,107.21966092286834
998,2320.777,1.767435454578802,107.2325645454212
999,2322.882,3.7543608655740712,107.24563913442593
1000,2324.987,1.741113966480384,107.25888603351962
1001,2327.091,2.72769340816906,107.27230659183094
1002,2329.194,3.7140978360087757,107.28590216399122
1003,2331.296,0.0,107.29967411014539
1004,2333.397,2.686376204037103,107.3136237959629
1005,2335.498,1.6722474073512927,107.32775259264871
1006,2337.598,3.6579381230456818,107.34206187695432
1007,2339.697,2.6434469688114035,107.3565530311886
1008,2341.796,1.6287725567711533,107.37122744322885
1009,2343.893,0.613913493468317,107.38608650653168
1010,2345.990,2.5988683798559435,107.40113162014406
1011,2348.086,3.583635811285802,107.4163641887142
1012,2350.182,1.5682143774974122,107.43178562250259
1013,2352.276,1.5526026626071285,107.44739733739287
1014,2354.370,2.5367992450971286,107.46320075490287
1015,2356.463,1.5208026978044416,107.47919730219556
1016,2358.555,0.5046115879100483,107.49538841208995
1017,2360.647,0.0,107.511775523072
1018,2362.738,2.4716399206940736,107.52836007930593
1019,2364.828,2.4548564693553914,107.54514353064461
1020,2366.917,1.4378726673589028,107.5621273326411
1021,2369.005,0.0,107.5793129465591
1022,2371.093,0.40329816061559143,107.59670183938441
1023,2373.180,1.385704516164651,107.61429548383535
