pixel_index,raman_shift_cm-1,intensity
0,200.000,-5.461473666666667
1,201.000,1.7345730000000001
2,202.000,-1.5198842222222222
3,203.000,-4.976309111111111
4,204.000,-0.8607496666666664
5,205.000,-6.129464
6,206.000,-3.087666333333333
7,207.000,7.360158666666667
8,208.000,5.540283333333334
9,209.000,-1.0150293333333333
10,210.000,3.3789423333333333
11,211.000,-1.8431799999999996
12,212.000,4.493536
13,213.000,-2.304463666666667
14,214.000,0.6502923333333334
15,215.000,-1.5021893333333338
16,216.000,2.0872006666666665
17,217.000,-0.31875000000000026
18,218.000,3.0924499999999995
19,219.000,0.625870666666667
20,220.000,5.244006333333334
21,221.000,1.8056539999999999
22,222.000,0.5316053333333334
23,223.000,-4.011324666666667
24,224.000,-0.23058699999999988
25,225.000,-2.8335326666666667
26,226.000,-0.002646833333333376
27,227.000,-2.655821
28,228.000,-3.734232333333333
29,229.000,0.6095386666666666
30,230.000,6.176837
31,231.000,3.5982791666666665
32,232.000,-0.6918000000000001
33,233.000,-0.986983
34,234.000,-3.832790833333334
35,235.000,0.23512933333333308
36,236.000,1.3449929999999999
37,237.000,-0.9952546666666668
38,238.000,-2.605520333333333
39,239.000,0.7348679999999997
40,240.000,-0.5012113333333333
41,241.000,2.1529426666666667
42,242.000,-1.0982966666666665
43,243.000,6.378920333333333
44,244.000,0.2514530000000001
45,245.000,3.7785883333333334
46,246.000,-5.006303
47,247.000,-7.985657
48,248.000,-0.8028475
49,249.000,-4.689381666666667
50,250.000,-5.040847666666667
51,251.000,-2.4451213333333333
52,252.000,-0.7507149999999999
53,253.000,0.408974
54,254.000,0.18044633333333326
55,255.000,-2.2896940000000003
56,256.000,-0.6736683333333331
57,257.000,-5.683897666666667
58,258.000,-3.9317566666666663
59,259.000,-0.8193040000000004
60,260.000,2.629086666666667
61,261.000,-1.3519716666666666
62,262.000,-3.0115393333333333
63,263.000,-2.48882
64,264.000,1.7433950000000003
65,265.000,4.7301936666666675
66,266.000,-1.1839196666666667
67,267.000,3.107715666666666
68,268.000,2.1068503333333335
69,269.000,2.068633666666667
70,270.000,0.49430099999999993
71,271.000,1.3455200000000003
72,272.000,-0.04262399999999985
73,273.000,5.829688999999999
74,274.000,-1.560318333333333
75,275.000,-1.7776136666666666
76,276.000,2.818350333333333
77,277.000,-0.38203899999999996
78,278.000,-4.884955333333333
79,279.000,1.3772680000000002
80,280.000,-1.097634
81,281.000,-1.0081853333333333
82,282.000,1.6761463333333335
83,283.000,0.471622
84,284.000,-6.589019333333333
85,285.000,2.7415483333333337
86,286.000,-3.4294376666666664
87,287.000,-0.723324
88,288.000,5.074041666666666
89,289.000,3.3751689999999996
90,290.000,-0.13669300000000004
91,291.000,1.0372013333333332
92,292.000,-1.2922486666666668
93,293.000,-3.734211666666667
94,294.000,3.2781249999999997
95,295.000,2.7158409999999997
96,296.000,-1.6131473333333333
97,297.000,1.3102383333333334
98,298.000,0.6317800000000001
99,299.000,2.1350729999999998
100,300.000,1.8919153333333334
101,301.000,-2.383709666666667
102,302.000,2.097251666666667
103,303.000,1.3986676666666664
104,304.000,0.21464133333333332
105,305.000,2.2725063333333337
106,306.000,2.6746153333333336
107,307.000,-3.8848606666666665
108,308.000,2.7487006666666667
109,309.000,-1.7283650000000002
110,310.000,6.31378
111,311.000,-2.1671413333333334
112,312.000,-0.5433509999999998
113,313.000,3.583047666666667
114,314.000,4.927059222222222
115,315.000,4.643898277777779
116,316.000,4.360737333333334
117,317.000,3.3399109999999994
118,318.000,3.950398
119,319.000,5.753802
120,320.000,2.0475046666666668
121,321.000,-5.261871333333334
122,322.000,-1.1257463333333337
123,323.000,0.9276909999999999
124,324.000,-0.4248330000000002
125,325.000,-4.235045666666667
126,326.000,-1.1586956666666663
127,327.000,-2.1711533333333333
128,328.000,0.39580933333333324
129,329.000,-0.528999
130,330.000,-2.1649521666666667
131,331.000,-2.601283666666667
132,332.000,-0.6112961666666669
133,333.000,-5.155639666666667
134,334.000,-1.800146166666667
135,335.000,2.270248666666667
136,336.000,0.01281166666666674
137,337.000,-1.9671826666666667
138,338.000,-2.1575333333333333
139,339.000,4.292817333333333
140,340.000,3.1378649999999997
141,341.000,3.821543333333333
142,342.000,4.190866000000001
143,343.000,-2.7785313333333335
144,344.000,-1.6045648333333336
145,345.000,2.573885666666667
146,346.000,-7.433820333333333
147,347.000,0.076745
148,348.000,-1.8892336666666665
149,349.000,-1.9604243333333333
150,350.000,0.15886899999999984
151,351.000,-3.4005983333333334
152,352.000,-0.6475143333333332
153,353.000,-4.247455333333334
154,354.000,-3.018197333333333
155,355.000,-1.845656666666667
156,356.000,-2.150161
157,357.000,4.7365113333333335
158,358.000,-1.457239666666667
159,359.000,7.2503280000000006
160,360.000,2.363151
161,361.000,-1.4375003333333334
162,362.000,0.10659433333333308
163,363.000,1.0048860000000002
164,364.000,3.3622753333333333
165,365.000,-4.961665333333333
166,366.000,-4.459657333333333
167,367.000,0.38356599999999963
168,368.000,2.3399846666666666
169,369.000,2.4458119999999997
170,370.000,0.009929666666666689
171,371.000,-1.2291026666666667
172,372.000,0.710753166666667
173,373.000,-0.36027266666666663
174,374.000,2.661932333333333
175,375.000,-3.646123
176,376.000,2.8349464999999996
177,377.000,1.8896163333333333
178,378.000,0.36084766666666646
179,379.000,-1.2832203333333334
180,380.000,-1.81853
181,381.000,-1.3744396666666672
182,382.000,0.3820193333333333
183,383.000,1.2789000000000001
184,384.000,3.438554
185,385.000,0.6593149999999999
186,386.000,0.9299736666666664
187,387.000,2.8738876666666666
188,388.000,2.652885
189,389.000,-3.710775333333333
190,390.000,2.8008893333333336
191,391.000,4.465895333333333
192,392.000,0.7041424999999997
193,393.000,3.261901333333333
194,394.000,-1.486640666666667
195,395.000,-3.2707541666666664
196,396.000,-0.8021756666666665
197,397.000,-4.518656666666666
198,398.000,2.6450123333333333
199,399.000,6.828343666666666
200,400.000,4.731926499999999
201,401.000,0.17018166666666665
202,402.000,4.457265
203,403.000,3.834748666666666
204,404.000,-2.0539036666666663
205,405.000,-1.2353933333333333
206,406.000,-2.1888590000000003
207,407.000,-2.207009333333333
208,408.000,-0.9789470000000001
209,409.000,-3.3260736666666664
210,410.000,2.6540543333333333
211,411.000,5.131042333333333
212,412.000,-3.246708
213,413.000,4.186304
214,414.000,-6.154202000000001
215,415.000,-0.6235530000000001
216,416.000,-1.2431993333333333
217,417.000,-4.575184
218,418.000,-4.325951666666667
219,419.000,5.377775666666667
220,420.000,-3.300583666666667
221,421.000,1.8411436666666667
222,422.000,2.7616331666666674
223,423.000,-2.0219003333333334
224,424.000,0.20534066666666653
225,425.000,-0.1401676666666667
226,426.000,1.266729
227,427.000,6.7892529999999995
228,428.000,3.906936
229,429.000,-2.2379513333333336
230,430.000,2.7415663333333335
231,431.000,7.711165666666666
232,432.000,-3.2941680000000004
233,433.000,-1.9778616666666666
234,434.000,-3.045520666666667
235,435.000,-1.134651
236,436.000,4.026543666666666
237,437.000,0.5947663333333334
238,438.000,0.7806346666666667
239,439.000,2.1509476666666667
240,440.000,-0.737872
241,441.000,2.0318443333333334
242,442.000,-3.7323576666666667
243,443.000,-5.802136
244,444.000,-1.8671303333333331
245,445.000,-2.340032
246,446.000,-2.448296333333333
247,447.000,-2.019201333333333
248,448.000,-2.0114870000000002
249,449.000,6.632506333333333
250,450.000,5.011881
251,451.000,-0.6704133333333332
252,452.000,0.4406693333333334
253,453.000,-0.7422856666666666
254,454.000,0.6089593333333333
255,455.000,-1.3947073333333335
256,456.000,2.2928683333333333
257,457.000,0.250345
258,458.000,3.796083
259,459.000,1.6376473333333337
260,460.000,6.660643333333333
261,461.000,3.076596666666667
262,462.000,2.8683336666666666
263,463.000,4.55724
264,464.000,2.776692
265,465.000,-2.9300063333333335
266,466.000,-4.085867333333334
267,467.000,2.020531
268,468.000,2.0918433333333337
269,469.000,4.139854000000001
270,470.000,1.3179946666666666
271,471.000,2.886203
272,472.000,1.9793816666666668
273,473.000,-3.5297813333333337
274,474.000,2.3515776666666666
275,475.000,4.337539666666667
276,476.000,-2.449699
277,477.000,3.598160666666667
278,478.000,0.2009983333333333
279,479.000,4.426106333333333
280,480.000,-4.417584
281,481.000,-0.6793661666666666
282,482.000,0.37151433333333345
283,483.000,2.365579666666667
284,484.000,-0.13289150000000008
285,485.000,0.8503423333333334
286,486.000,0.4960383333333335
287,487.000,-3.410048666666667
288,488.000,-4.571373
289,489.000,-3.0887059999999997
290,490.000,3.764431333333333
291,491.000,-0.7277893333333333
292,492.000,-3.6185790000000004
293,493.000,1.518880333333333
294,494.000,4.723717333333334
295,495.000,7.473103333333333
296,496.000,3.0159609999999994
297,497.000,4.788016999999999
298,498.000,-2.6416633333333337
299,499.000,-5.164614333333334
300,500.000,-2.4622846666666667
301,501.000,1.2588306666666667
302,502.000,3.1317187777777775
303,503.000,-1.6992051111111113
304,504.000,2.5219686666666665
305,505.000,-6.892603
306,506.000,2.4971053333333333
307,507.000,-0.7687640000000003
308,508.000,-0.0565543333333333
309,509.000,-10.267592333333333
310,510.000,-2.8774846666666662
311,511.000,4.820376666666667
312,512.000,-0.7144499999999999
313,513.000,2.3138053333333333
314,514.000,-3.8410696666666664
315,515.000,-0.7207903333333333
316,516.000,0.2193413333333334
317,517.000,-3.3140553333333336
318,518.000,4.668992833333333
319,519.000,2.9940436666666668
320,520.000,-0.9338660000000006
321,521.000,1.4628866666666667
322,522.000,-0.048652000000000216
323,523.000,-0.20321066666666676
324,524.000,-1.865691166666667
325,525.000,1.2615096666666663
326,526.000,0.43601866666666655
327,527.000,0.21245299999999986
328,528.000,4.705437666666667
329,529.000,5.537795166666666
330,530.000,-0.28992900000000005
331,531.000,0.03130433333333323
332,532.000,5.047649666666667
333,533.000,3.191494
334,534.000,5.586589333333333
335,535.000,0.055794333333333425
336,536.000,8.13762
337,537.000,1.9786473333333332
338,538.000,2.084763833333333
339,539.000,4.584108666666667
340,540.000,-1.3580343333333333
341,541.000,3.213910666666667
342,542.000,3.855018
343,543.000,2.385598
344,544.000,1.5832186666666666
345,545.000,4.1157786666666665
346,546.000,-0.48772100000000007
347,547.000,2.4141253333333332
348,548.000,-1.3049663333333335
349,549.000,-2.0410173333333335
350,550.000,3.8199636666666668
351,551.000,-1.3213290000000002
352,552.000,1.514919333333333
353,553.000,-0.19912266666666648
354,554.000,-2.6471006666666668
355,555.000,-5.584258666666667
356,556.000,-0.8202296666666666
357,557.000,-0.1140723333333334
358,558.000,-1.8273389999999996
359,559.000,0.22767166666666663
360,560.000,0.015674999999999883
361,561.000,-1.1046163333333334
362,562.000,1.9203003333333333
363,563.000,-0.00032049999999994583
364,564.000,1.1135116666666665
365,565.000,0.0773129999999999
366,566.000,0.1571193333333334
367,567.000,1.6155606666666664
368,568.000,-0.49361766666666673
369,569.000,4.002868666666667
370,570.000,2.0903220000000005
371,571.000,-1.0497656666666666
372,572.000,4.681176333333333
373,573.000,2.9270593333333337
374,574.000,1.7925603333333335
375,575.000,4.217513333333334
376,576.000,-0.4552696666666667
377,577.000,1.2395966666666667
378,578.000,2.287865
379,579.000,3.882795666666667
380,580.000,8.40905
381,581.000,6.071056
382,582.000,5.824985333333333
383,583.000,1.8742683333333332
384,584.000,-0.7454203333333336
385,585.000,-3.8590533333333332
386,586.000,-3.198518333333334
387,587.000,0.547627
388,588.000,4.627629
389,589.000,2.1242953333333334
390,590.000,7.001321666666667
391,591.000,7.1951773333333335
392,592.000,0.27165733333333364
393,593.000,1.599207
394,594.000,4.4073635
395,595.000,11.648670000000001
396,596.000,4.671766333333333
397,597.000,4.045596
398,598.000,7.726699
399,599.000,3.3629665
400,600.000,10.511821333333334
401,601.000,12.289959666666666
402,602.000,15.644663333333334
403,603.000,14.825823
404,604.000,20.621819666666667
405,605.000,13.086797333333331
406,606.000,14.685200666666669
407,607.000,17.577428333333334
408,608.000,21.266047666666665
409,609.000,24.539962000000003
410,610.000,32.614929000000004
411,611.000,41.692082666666664
412,612.000,44.482541833333336
413,613.000,52.624673
414,614.000,62.04187266666667
415,615.000,76.17409400000001
416,616.000,103.90364900000002
417,617.000,124.58206799999999
418,618.000,145.13096700000003
419,619.000,162.59915166666664
420,620.000,167.72408666666664
421,621.000,166.626764
422,622.000,152.366066
423,623.000,123.17966799999999
424,624.000,101.83580233333333
425,625.000,82.98672900000001
426,626.000,65.645011
427,627.000,52.979384
428,628.000,42.225962
429,629.000,41.24117533333334
430,630.000,31.489474666666666
431,631.000,25.29256033333333
432,632.000,22.654818333333335
433,633.000,15.208360333333333
434,634.000,15.673313333333333
435,635.000,15.145529000000002
436,636.000,11.134171
437,637.000,13.524826666666668
438,638.000,13.190610000000001
439,639.000,11.348673666666668
440,640.000,10.812373333333333
441,641.000,10.2618985
442,642.000,11.034494666666667
443,643.000,4.4959153333333335
444,644.000,9.747413666666667
445,645.000,6.267972666666666
446,646.000,10.899611
447,647.000,8.397852666666667
448,648.000,6.539256999999999
449,649.000,5.489195333333334
450,650.000,8.035789333333334
451,651.000,-2.046416
452,652.000,-1.1342816666666666
453,653.000,4.364594666666666
454,654.000,1.9736440000000002
455,655.000,8.0840435
456,656.000,2.7773070000000004
457,657.000,-0.8156393333333334
458,658.000,3.2339393333333333
459,659.000,1.149578
460,660.000,4.691073
461,661.000,4.698914666666667
462,662.000,-1.2057996666666666
463,663.000,2.135495666666667
464,664.000,4.568093666666666
465,665.000,1.6602839999999999
466,666.000,8.552314333333333
467,667.000,2.7458460000000002
468,668.000,0.22536466666666666
469,669.000,-3.168988
470,670.000,-0.5912926666666668
471,671.000,-0.15812400000000015
472,672.000,1.9110153333333333
473,673.000,1.5532163333333333
474,674.000,3.1747376666666667
475,675.000,3.4557350000000002
476,676.000,1.8861056666666665
477,677.000,-4.082147
478,678.000,0.22826433333333332
479,679.000,2.681722
480,680.000,0.8910269999999999
481,681.000,2.881083
482,682.000,4.331972666666666
483,683.000,0.08908033333333328
484,684.000,-2.4624859999999997
485,685.000,0.7922773333333334
486,686.000,-1.648643333333333
487,687.000,-0.9637019999999997
488,688.000,0.15543549999999984
489,689.000,-4.438369000000001
490,690.000,1.0156653333333334
491,691.000,3.939517
492,692.000,-0.2802756666666668
493,693.000,-0.40802299999999986
494,694.000,-1.30877
495,695.000,2.024112
496,696.000,0.584364666666667
497,697.000,-1.4926409999999999
498,698.000,-0.17229099999999997
499,699.000,-0.06418133333333327
500,700.000,2.7880923333333336
501,701.000,0.04573333333333333
502,702.000,1.4709430000000001
503,703.000,1.5046686666666667
504,704.000,4.789621333333334
505,705.000,4.624365
506,706.000,-4.340117666666667
507,707.000,-1.1586123333333334
508,708.000,3.2080983333333335
509,709.000,0.8844466666666667
510,710.000,-1.0999776666666667
511,711.000,3.628223333333333
512,712.000,-1.9889256666666668
513,713.000,-1.3553986666666669
514,714.000,6.109135666666667
515,715.000,3.5929896666666665
516,716.000,9.772130333333335
517,717.000,6.791785666666666
518,718.000,1.1909496666666666
519,719.000,-1.9069019999999999
520,720.000,-1.5392446666666668
521,721.000,-2.7821650000000004
522,722.000,0.6818126666666667
523,723.000,2.900159
524,724.000,4.538520666666667
525,725.000,0.7232046666666667
526,726.000,4.445002333333334
527,727.000,3.9523423333333336
528,728.000,1.4836253333333334
529,729.000,-0.211144
530,730.000,-0.1591663333333333
531,731.000,-2.8141730000000003
532,732.000,-2.124895
533,733.000,0.13341999999999976
534,734.000,-2.6650569999999996
535,735.000,2.7199613333333335
536,736.000,2.409000666666667
537,737.000,1.8417376666666663
538,738.000,7.7817153333333335
539,739.000,-2.7550670000000004
540,740.000,6.352219666666667
541,741.000,7.576103333333333
542,742.000,5.45637
543,743.000,4.138115333333334
544,744.000,0.6060246666666668
545,745.000,-0.31604099999999996
546,746.000,4.463058666666667
547,747.000,0.30030966666666653
548,748.000,-1.3850616666666664
549,749.000,4.353861333333333
550,750.000,4.501226
551,751.000,3.223659
552,752.000,3.3589293333333337
553,753.000,7.174565666666666
554,754.000,3.842451
555,755.000,6.462727666666666
556,756.000,3.0693603333333335
557,757.000,2.213814333333333
558,758.000,-0.24553333333333338
559,759.000,4.654083
560,760.000,5.943906666666667
561,761.000,1.7390343333333333
562,762.000,10.896503000000001
563,763.000,3.4990779999999995
564,764.000,9.216750666666668
565,765.000,4.980207333333333
566,766.000,4.9669929999999995
567,767.000,0.21395900000000004
568,768.000,8.565635666666667
569,769.000,5.926457666666667
570,770.000,11.023778333333333
571,771.000,9.081420833333333
572,772.000,8.064055333333334
573,773.000,3.3818033333333335
574,774.000,12.058434666666665
575,775.000,12.990021999999998
576,776.000,7.138243333333333
577,777.000,11.86338
578,778.000,12.166147333333333
579,779.000,11.925128
580,780.000,14.238006666666665
581,781.000,19.022934000000003
582,782.000,20.90875766666667
583,783.000,18.557579
584,784.000,20.564226
585,785.000,27.081795
586,786.000,28.311988333333332
587,787.000,39.328883166666664
588,788.000,45.697358333333334
589,789.000,53.385163999999996
590,790.000,51.967592333333336
591,791.000,69.145223
592,792.000,83.16173666666667
593,793.000,88.00788633333333
594,794.000,93.40590566666667
595,795.000,89.93500066666667
596,796.000,93.61677433333334
597,797.000,85.80163966666667
598,798.000,85.59986099999999
599,799.000,70.708578
600,800.000,55.180806
601,801.000,49.95768533333334
602,802.000,42.625563
603,803.000,40.510989
604,804.000,26.601318333333335
605,805.000,30.057281
606,806.000,25.75177766666667
607,807.000,18.357383000000002
608,808.000,20.678016333333336
609,809.000,14.696293333333331
610,810.000,11.462326333333332
611,811.000,11.376108333333335
612,812.000,11.395034333333333
613,813.000,7.070792166666666
614,814.000,8.233291333333334
615,815.000,10.881586666666669
616,816.000,10.683611999999998
617,817.000,6.657172500000001
618,818.000,9.483555
619,819.000,5.422441
620,820.000,5.921198
621,821.000,-2.797136666666667
622,822.000,8.443748666666666
623,823.000,5.002888666666666
624,824.000,7.071155666666667
625,825.000,3.4598600000000004
626,826.000,6.6305369999999995
627,827.000,3.2848889999999997
628,828.000,2.1444319999999997
629,829.000,6.999403666666666
630,830.000,9.308982666666665
631,831.000,-0.25351166666666664
632,832.000,7.118191333333333
633,833.000,-1.1164996666666667
634,834.000,4.600045
635,835.000,3.9234489999999997
636,836.000,7.199617666666666
637,837.000,11.821192666666667
638,838.000,5.186067666666666
639,839.000,2.2536780000000003
640,840.000,-0.5898353333333333
641,841.000,2.9921860000000002
642,842.000,8.545792666666665
643,843.000,2.326445666666667
644,844.000,3.5205110000000004
645,845.000,2.427965
646,846.000,3.512673
647,847.000,5.156319333333333
648,848.000,1.8150063333333335
649,849.000,-0.8128096666666668
650,850.000,5.230288333333333
651,851.000,0.18589133333333333
652,852.000,8.219730666666667
653,853.000,3.089312833333333
654,854.000,5.051192333333333
655,855.000,5.458565333333333
656,856.000,-4.635107333333333
657,857.000,-4.021158333333333
658,858.000,-0.49813833333333335
659,859.000,5.162754333333333
660,860.000,3.440833666666667
661,861.000,-0.8065096666666666
662,862.000,7.451679333333334
663,863.000,0.269520666666667
664,864.000,-6.963049666666667
665,865.000,2.297136
666,866.000,-1.4486273333333335
667,867.000,1.2760520000000002
668,868.000,6.644922
669,869.000,6.345296
670,870.000,2.125503666666667
671,871.000,-0.06114700000000006
672,872.000,-0.9068809999999997
673,873.000,2.5988583333333337
674,874.000,2.7979369999999997
675,875.000,0.42534700000000036
676,876.000,-0.9540806666666665
677,877.000,-2.0256088333333335
678,878.000,-1.0764693333333333
679,879.000,-0.9861633333333334
680,880.000,3.221859666666667
681,881.000,5.073539333333333
682,882.000,6.912182333333333
683,883.000,3.589276333333333
684,884.000,2.527328666666667
685,885.000,4.334813666666666
686,886.000,2.328348333333333
687,887.000,5.499107666666667
688,888.000,3.2708
689,889.000,3.090060333333333
690,890.000,5.401821333333333
691,891.000,-2.5004946666666665
692,892.000,1.283190666666667
693,893.000,2.221261333333333
694,894.000,-2.016976666666667
695,895.000,2.243654
696,896.000,-5.190136
697,897.000,2.1930676666666664
698,898.000,1.9654369999999997
699,899.000,3.037613166666667
700,900.000,0.07469066666666684
701,901.000,4.550732666666668
702,902.000,-4.091242666666666
703,903.000,-0.18129016666666667
704,904.000,-1.2846056666666665
705,905.000,-1.5812646666666668
706,906.000,1.505212
707,907.000,1.0441626666666668
708,908.000,1.6901453333333336
709,909.000,1.9133021666666667
710,910.000,0.4103270000000003
711,911.000,0.24332733333333323
712,912.000,-2.135645333333333
713,913.000,-4.263251666666666
714,914.000,1.5334486666666667
715,915.000,-4.985608
716,916.000,-4.117737
717,917.000,1.3387006666666668
718,918.000,1.3346480000000003
719,919.000,0.012304000000000018
720,920.000,5.0956451666666664
721,921.000,2.439374333333333
722,922.000,9.207428333333334
723,923.000,1.576682333333333
724,924.000,4.145948333333333
725,925.000,-0.3454939999999999
726,926.000,2.924614666666667
727,927.000,1.855558333333333
728,928.000,5.069502
729,929.000,5.008669666666667
730,930.000,4.350212333333333
731,931.000,6.989026
732,932.000,4.236104999999999
733,933.000,3.5593383333333333
734,934.000,-0.4854486666666668
735,935.000,5.754346333333333
736,936.000,6.1018126666666666
737,937.000,4.207548
738,938.000,3.8810793333333335
739,939.000,7.9524696666666665
740,940.000,5.381213
741,941.000,4.596749
742,942.000,-2.8803176666666666
743,943.000,1.9710549999999998
744,944.000,-0.436854
745,945.000,2.4759683333333333
746,946.000,8.210626333333334
747,947.000,2.503547333333333
748,948.000,-0.9036406666666666
749,949.000,5.936381666666667
750,950.000,4.734039
751,951.000,0.1985939999999998
752,952.000,2.6374210000000002
753,953.000,3.8292723333333334
754,954.000,5.285247666666667
755,955.000,8.549966666666668
756,956.000,9.520268
757,957.000,3.082433333333333
758,958.000,11.335605000000001
759,959.000,11.387885333333335
760,960.000,8.242545999999999
761,961.000,10.679979333333334
762,962.000,5.067632000000001
763,963.000,10.202356
764,964.000,15.300557666666668
765,965.000,6.970488666666667
766,966.000,10.935119666666667
767,967.000,8.585680333333334
768,968.000,14.905593000000001
769,969.000,12.295580333333334
770,970.000,15.252417
771,971.000,11.133318000000001
772,972.000,14.471365666666665
773,973.000,11.092514
774,974.000,14.796598666666668
775,975.000,15.469819000000001
776,976.000,17.746350333333336
777,977.000,19.197012
778,978.000,17.084616
779,979.000,16.478610333333332
780,980.000,24.094202
781,981.000,21.630945999999998
782,982.000,23.653002333333333
783,983.000,34.107364
784,984.000,31.556889666666667
785,985.000,33.87611966666666
786,986.000,43.024729666666666
787,987.000,48.427856
788,988.000,54.181183
789,989.000,59.793681666666664
790,990.000,73.16862300000001
791,991.000,94.13290966666666
792,992.000,104.24504166666668
793,993.000,130.30897266666668
794,994.000,157.01507533333333
795,995.000,202.251346
796,996.000,262.64597133333336
797,997.000,365.154289
798,998.000,502.31477266666667
799,999.000,689.8620586666666
800,1000.000,896.289554
801,1001.000,873.6308893333334
802,1002.000,850.9722246666666
803,1003.000,689.2026086666668
804,1004.000,505.3805776666666
805,1005.000,370.55859933333335
806,1006.000,273.9524563333333
807,1007.000,208.05987133333335
808,1008.000,161.67669166666664
809,1009.000,131.98324366666665
810,1010.000,107.53785366666666
811,1011.000,98.26640433333334
812,1012.000,88.36932066666668
813,1013.000,74.01379733333334
814,1014.000,73.89072733333332
815,1015.000,64.515638
816,1016.000,58.78569233333334
817,1017.000,60.25525266666667
818,1018.000,60.25490666666667
819,1019.000,58.695484666666665
820,1020.000,69.15301133333334
821,1021.000,64.01544766666667
822,1022.000,75.84045533333334
823,1023.000,87.52680033333333
824,1024.000,100.61349799999999
825,1025.000,123.81194133333334
826,1026.000,149.36556900000002
827,1027.000,195.18037766666666
828,1028.000,257.2405086666667
829,1029.000,326.2357513333333
830,1030.000,392.759053
831,1031.000,394.781853
832,1032.000,396.804653
833,1033.000,318.6527643333334
834,1034.000,247.02182633333334
835,1035.000,192.69062300000004
836,1036.000,147.67856566666669
837,1037.000,104.688913
838,1038.000,90.36373966666667
839,1039.000,67.92769133333333
840,1040.000,67.25402666666666
841,1041.000,53.368241000000005
842,1042.000,48.23954366666667
843,1043.000,34.792505
844,1044.000,31.393232666666666
845,1045.000,29.176478666666668
846,1046.000,28.488474666666665
847,1047.000,25.758314666666667
848,1048.000,22.352980333333335
849,1049.000,16.075382
850,1050.000,13.650167666666666
851,1051.000,16.388720333333335
852,1052.000,18.332979333333334
853,1053.000,13.17083
854,1054.000,17.748781666666666
855,1055.000,15.17624
856,1056.000,14.275543166666667
857,1057.000,15.501760666666668
858,1058.000,13.732953
859,1059.000,6.0277096666666665
860,1060.000,9.907761333333333
861,1061.000,6.507656666666666
862,1062.000,13.089222999999999
863,1063.000,7.886374
864,1064.000,3.6697826666666664
865,1065.000,11.668017999999998
866,1066.000,9.812219666666666
867,1067.000,9.857057333333334
868,1068.000,5.403309
869,1069.000,6.5403348333333335
870,1070.000,5.512687
871,1071.000,1.1515161666666665
872,1072.000,1.5534035000000002
873,1073.000,6.377233999999999
874,1074.000,4.7679920000000005
875,1075.000,2.7798166666666666
876,1076.000,4.358146666666666
877,1077.000,5.782693999999999
878,1078.000,2.108253
879,1079.000,4.775412333333333
880,1080.000,-0.3636866666666667
881,1081.000,-0.5004286666666666
882,1082.000,4.459472333333333
883,1083.000,3.4899350000000005
884,1084.000,1.810317666666667
885,1085.000,2.4020726666666667
886,1086.000,3.7196053333333334
887,1087.000,2.7565791666666666
888,1088.000,2.3322713333333334
889,1089.000,1.7051813333333332
890,1090.000,4.734998666666666
891,1091.000,11.005035
892,1092.000,-1.582145
893,1093.000,5.759424666666667
894,1094.000,6.323509666666666
895,1095.000,8.088810333333333
896,1096.000,1.4126206666666665
897,1097.000,3.260836
898,1098.000,-0.21400733333333358
899,1099.000,6.915281666666666
900,1100.000,2.3252849999999996
901,1101.000,3.429972166666667
902,1102.000,4.478258
903,1103.000,3.129455666666667
904,1104.000,4.058121166666667
905,1105.000,2.123455
906,1106.000,5.2932923333333335
907,1107.000,2.8416340000000004
908,1108.000,5.8730400000000005
909,1109.000,0.03270366666666676
910,1110.000,2.182059333333333
911,1111.000,5.682890666666666
912,1112.000,5.549433666666666
913,1113.000,-1.2397283333333335
914,1114.000,4.017148
915,1115.000,3.6872796666666665
916,1116.000,-1.9329636666666665
917,1117.000,4.467946
918,1118.000,8.572757000000001
919,1119.000,7.123543666666667
920,1120.000,6.451596666666666
921,1121.000,1.0797623333333333
922,1122.000,12.251110666666667
923,1123.000,7.467735666666667
924,1124.000,3.9128073333333333
925,1125.000,3.827765833333333
926,1126.000,5.478042666666667
927,1127.000,5.7327900000000005
928,1128.000,4.425725666666667
929,1129.000,12.669937333333335
930,1130.000,3.5004899999999997
931,1131.000,8.885262333333332
932,1132.000,7.853037333333333
933,1133.000,7.378271333333333
934,1134.000,6.206554
935,1135.000,8.081241
936,1136.000,12.931315666666668
937,1137.000,9.233658
938,1138.000,15.624939333333332
939,1139.000,10.057706000000001
940,1140.000,13.466337666666666
941,1141.000,22.833822666666666
942,1142.000,22.625664666666665
943,1143.000,24.01480666666667
944,1144.000,27.385476666666666
945,1145.000,22.099372333333335
946,1146.000,36.61239466666667
947,1147.000,39.505405
948,1148.000,46.77152266666667
949,1149.000,60.82214199999999
950,1150.000,76.14712833333333
951,1151.000,84.18611066666666
952,1152.000,107.64830933333333
953,1153.000,130.090735
954,1154.000,133.802816
955,1155.000,138.51853633333334
956,1156.000,131.58455983333334
957,1157.000,121.42570233333333
958,1158.000,103.75385466666667
959,1159.000,92.29562066666666
960,1160.000,71.263979
961,1161.000,64.67549533333333
962,1162.000,61.455386999999995
963,1163.000,47.457270666666666
964,1164.000,40.588663333333336
965,1165.000,38.582547
966,1166.000,32.879235666666666
967,1167.000,29.053238000000004
968,1168.000,26.533772666666664
969,1169.000,24.901970333333335
970,1170.000,26.300614
971,1171.000,26.906298000000003
972,1172.000,32.058691833333334
973,1173.000,32.372178999999996
974,1174.000,36.843468333333334
975,1175.000,37.101220777777776
976,1176.000,42.058374888888885
977,1177.000,47.771415999999995
978,1178.000,58.544105333333334
979,1179.000,75.994751
980,1180.000,91.03184700000001
981,1181.000,102.37867966666666
982,1182.000,112.72389600000001
983,1183.000,116.21062666666666
984,1184.000,111.64573866666666
985,1185.000,100.122116
986,1186.000,95.97645233333333
987,1187.000,70.86567000000001
988,1188.000,57.87141866666667
989,1189.000,48.879787666666665
990,1190.000,37.13528933333333
991,1191.000,30.151744000000004
992,1192.000,26.918189111111115
993,1193.000,19.28001688888889
994,1194.000,20.163683666666667
995,1195.000,20.70232366666667
996,1196.000,15.601196666666667
997,1197.000,14.086611
998,1198.000,19.551311333333334
999,1199.000,10.896527166666667
1000,1200.000,10.252895333333333
1001,1201.000,5.236234666666667
1002,1202.000,12.007765333333333
1003,1203.000,7.244134
1004,1204.000,1.9161563333333334
1005,1205.000,4.033212666666667
1006,1206.000,3.746177
1007,1207.000,4.341240999999999
1008,1208.000,4.3525979999999995
1009,1209.000,-0.08796133333333334
1010,1210.000,3.759657666666667
1011,1211.000,1.9246513333333333
1012,1212.000,3.3274639999999995
1013,1213.000,1.855768333333333
1014,1214.000,4.833009833333333
1015,1215.000,4.731842666666666
1016,1216.000,12.107467
1017,1217.000,4.951257666666666
1018,1218.000,2.3534363333333332
1019,1219.000,2.3464156666666667
1020,1220.000,8.058723666666667
1021,1221.000,5.206661666666666
1022,1222.000,3.2274433333333334
1023,1223.000,2.3984963333333327
1024,1224.000,4.380450333333333
1025,1225.000,8.020040333333332
1026,1226.000,2.261444333333333
1027,1227.000,0.3868780000000001
1028,1228.000,1.1508260000000001
1029,1229.000,-2.2678898333333333
1030,1230.000,6.329665333333334
1031,1231.000,4.004101333333334
1032,1232.000,1.5111780000000001
1033,1233.000,3.603328
1034,1234.000,2.606110666666667
1035,1235.000,4.331489666666666
1036,1236.000,2.7241079999999998
1037,1237.000,0.5713786666666666
1038,1238.000,-4.134890333333334
1039,1239.000,1.7333043333333331
1040,1240.000,0.13140833333333335
1041,1241.000,-1.7600266666666664
1042,1242.000,0.32557300000000033
1043,1243.000,4.405084666666666
1044,1244.000,2.306485
1045,1245.000,-0.1610026666666667
1046,1246.000,4.710177666666667
1047,1247.000,2.7282190000000006
1048,1248.000,3.326350333333334
1049,1249.000,-0.22326216666666662
1050,1250.000,1.7102723333333332
1051,1251.000,-2.925117666666667
1052,1252.000,-1.3391816666666667
1053,1253.000,-0.6178593333333332
1054,1254.000,2.7671803333333336
1055,1255.000,-2.7775573333333337
1056,1256.000,6.224381333333333
1057,1257.000,-0.7010739999999998
1058,1258.000,-0.14982866666666675
1059,1259.000,2.0620913333333335
1060,1260.000,8.242223000000001
1061,1261.000,0.826126
1062,1262.000,0.006489999999999736
1063,1263.000,-0.07559366666666693
1064,1264.000,2.7394890000000003
1065,1265.000,-0.8408149999999998
1066,1266.000,1.612654
1067,1267.000,-2.8480623333333335
1068,1268.000,1.9293886666666664
1069,1269.000,1.0997480000000002
1070,1270.000,-0.03449600000000003
1071,1271.000,-4.937417833333334
1072,1272.000,-4.418831666666667
1073,1273.000,5.049757666666666
1074,1274.000,0.8653703333333332
1075,1275.000,-1.253859
1076,1276.000,-4.533694
1077,1277.000,2.8780213333333333
1078,1278.000,5.319496999999999
1079,1279.000,-2.155940333333333
1080,1280.000,0.4742256666666668
1081,1281.000,4.207106333333333
1082,1282.000,3.301819
1083,1283.000,0.5467253333333332
1084,1284.000,3.730081333333333
1085,1285.000,-2.2358603333333336
1086,1286.000,2.761689666666667
1087,1287.000,4.871577
1088,1288.000,2.0809806666666666
1089,1289.000,-0.4694736666666663
1090,1290.000,3.1020413333333328
1091,1291.000,2.2280913333333334
1092,1292.000,-2.4057036666666667
1093,1293.000,0.6108463333333334
1094,1294.000,8.677976000000001
1095,1295.000,3.948518666666667
1096,1296.000,-1.0043486666666668
1097,1297.000,-0.347876
1098,1298.000,-4.3661726666666665
1099,1299.000,-0.7486419999999997
1100,1300.000,-2.2072886666666665
1101,1301.000,0.7345746666666665
1102,1302.000,-0.7995756666666666
1103,1303.000,4.597763666666666
1104,1304.000,0.4316546666666663
1105,1305.000,0.5172163333333334
1106,1306.000,-1.6480863333333333
1107,1307.000,7.228970666666666
1108,1308.000,5.741824333333334
1109,1309.000,1.5524236666666666
1110,1310.000,0.08072099999999989
1111,1311.000,1.0913810000000002
1112,1312.000,-0.0836563333333334
1113,1313.000,1.0065736666666665
1114,1314.000,-1.6712816666666666
1115,1315.000,2.906057
1116,1316.000,7.948037333333333
1117,1317.000,2.470732
1118,1318.000,-5.111948000000001
1119,1319.000,3.6737136666666665
1120,1320.000,0.9545703333333332
1121,1321.000,1.8582486666666664
1122,1322.000,3.1990348333333336
1123,1323.000,1.6385633333333331
1124,1324.000,2.6726003333333335
1125,1325.000,0.6709606666666664
1126,1326.000,1.1884549999999998
1127,1327.000,7.949900666666667
1128,1328.000,5.043575
1129,1329.000,6.532188333333333
1130,1330.000,2.0413666666666668
1131,1331.000,0.20637700000000003
1132,1332.000,-3.619839666666667
1133,1333.000,-3.1286696666666667
1134,1334.000,-3.6571653333333334
1135,1335.000,2.423995
1136,1336.000,-4.082658333333334
1137,1337.000,4.400265
1138,1338.000,-0.7776179999999998
1139,1339.000,-2.683175
1140,1340.000,1.9385329999999998
1141,1341.000,6.324157666666667
1142,1342.000,3.894804666666667
1143,1343.000,7.1733193333333345
1144,1344.000,5.576810999999999
1145,1345.000,1.3991766666666665
1146,1346.000,-7.037567333333333
1147,1347.000,1.695391
1148,1348.000,-1.213035
1149,1349.000,3.6717688333333336
1150,1350.000,-0.09518283333333362
1151,1351.000,-0.9277543333333335
1152,1352.000,-1.9074193333333334
1153,1353.000,4.671455666666667
1154,1354.000,0.2749413333333333
1155,1355.000,3.6672731666666665
1156,1356.000,-2.3030636666666666
1157,1357.000,1.4463043333333332
1158,1358.000,5.146891166666667
1159,1359.000,1.4955675
1160,1360.000,-3.5152013333333336
1161,1361.000,0.954974
1162,1362.000,6.307277666666667
1163,1363.000,4.1912955
1164,1364.000,1.8728410000000002
1165,1365.000,3.3337193333333333
1166,1366.000,1.4811436666666669
1167,1367.000,-1.7652853333333336
1168,1368.000,1.7486286666666666
1169,1369.000,1.588018
1170,1370.000,-0.060929666666666694
1171,1371.000,-2.3113623333333333
1172,1372.000,4.086730666666667
1173,1373.000,2.357438333333333
1174,1374.000,-0.8445506666666663
1175,1375.000,2.587043
1176,1376.000,3.8680893333333333
1177,1377.000,4.974981666666667
1178,1378.000,8.163209666666667
1179,1379.000,2.3177266666666667
1180,1380.000,1.7126106666666672
1181,1381.000,3.709888
1182,1382.000,3.5706899999999995
1183,1383.000,6.891089333333333
1184,1384.000,5.567419666666667
1185,1385.000,4.047122333333333
1186,1386.000,10.032533666666666
1187,1387.000,8.153097333333333
1188,1388.000,-1.0064699999999995
1189,1389.000,-4.8641483333333335
1190,1390.000,1.9731580000000004
1191,1391.000,3.4708323333333335
1192,1392.000,-1.2276326666666664
1193,1393.000,-1.7325166666666665
1194,1394.000,3.598701666666667
1195,1395.000,0.10469533333333321
1196,1396.000,6.039345
1197,1397.000,-1.1477533333333334
1198,1398.000,7.689533666666667
1199,1399.000,6.742130666666667
1200,1400.000,6.710770277777779
1201,1401.000,5.699476555555556
1202,1402.000,3.1957446666666662
1203,1403.000,4.146395
1204,1404.000,1.3787716666666665
1205,1405.000,10.697978999999998
1206,1406.000,5.456842000000001
1207,1407.000,8.305751333333333
1208,1408.000,3.7475043333333335
1209,1409.000,3.3585240000000005
1210,1410.000,5.2643379999999995
1211,1411.000,10.420482333333334
1212,1412.000,3.6340966666666668
1213,1413.000,4.280243666666666
1214,1414.000,8.484603333333332
1215,1415.000,10.429141666666666
1216,1416.000,11.264112500000001
1217,1417.000,8.794601666666665
1218,1418.000,8.498372666666667
1219,1419.000,12.447549166666667
1220,1420.000,16.119878
1221,1421.000,15.135979333333333
1222,1422.000,16.165729666666667
1223,1423.000,12.242562999999999
1224,1424.000,18.454815999999997
1225,1425.000,13.049824666666666
1226,1426.000,14.45104
1227,1427.000,16.927566666666667
1228,1428.000,20.340149333333333
1229,1429.000,23.940295333333335
1230,1430.000,17.713689000000002
1231,1431.000,20.790628333333334
1232,1432.000,23.390841333333338
1233,1433.000,33.931237
1234,1434.000,34.25046966666667
1235,1435.000,44.227248
1236,1436.000,41.756114
1237,1437.000,51.96795766666667
1238,1438.000,58.27218466666667
1239,1439.000,68.87117333333333
1240,1440.000,70.14553033333334
1241,1441.000,79.86140533333334
1242,1442.000,100.04114966666667
1243,1443.000,113.74776966666667
1244,1444.000,130.25628500000002
1245,1445.000,147.47031566666666
1246,1446.000,159.32388733333332
1247,1447.000,190.31548733333332
1248,1448.000,200.05222600000002
1249,1449.000,209.82146050000003
1250,1450.000,217.6284006666667
1251,1451.000,217.43129233333335
1252,1452.000,192.8530496666667
1253,1453.000,189.635681
1254,1454.000,170.36124900000002
1255,1455.000,144.3430956666667
1256,1456.000,126.84785900000001
1257,1457.000,112.88614566666668
1258,1458.000,91.38342533333332
1259,1459.000,85.45422866666667
1260,1460.000,78.201697
1261,1461.000,61.66359355555554
1262,1462.000,58.54994777777778
1263,1463.000,49.11362499999999
1264,1464.000,51.44291066666667
1265,1465.000,41.49331633333333
1266,1466.000,33.15963
1267,1467.000,30.459917
1268,1468.000,32.79784133333334
1269,1469.000,30.344838999999997
1270,1470.000,31.538803833333333
1271,1471.000,25.029485000000005
1272,1472.000,18.335898333333333
1273,1473.000,16.850316000000003
1274,1474.000,17.095933666666667
1275,1475.000,13.324771833333335
1276,1476.000,16.147350666666668
1277,1477.000,10.567174
1278,1478.000,16.981232000000002
1279,1479.000,11.803270666666668
1280,1480.000,9.458567
1281,1481.000,7.506346666666666
1282,1482.000,11.962811
1283,1483.000,11.239264333333333
1284,1484.000,16.390873333333335
1285,1485.000,14.262891000000002
1286,1486.000,9.103432333333332
1287,1487.000,6.650535666666666
1288,1488.000,7.5107343333333345
1289,1489.000,8.721109333333333
1290,1490.000,9.505170999999999
1291,1491.000,14.276974333333333
1292,1492.000,9.591771
1293,1493.000,9.910851666666668
1294,1494.000,7.614013666666668
1295,1495.000,7.241585000000001
1296,1496.000,3.433654333333333
1297,1497.000,7.862649333333334
1298,1498.000,13.649079333333333
1299,1499.000,10.462495333333335
1300,1500.000,9.330154
1301,1501.000,6.080137000000001
1302,1502.000,9.096209333333332
1303,1503.000,4.9705303333333335
1304,1504.000,3.5762296666666664
1305,1505.000,2.0375693333333333
1306,1506.000,8.146491
1307,1507.000,3.722243666666667
1308,1508.000,9.870609333333332
1309,1509.000,5.201341666666667
1310,1510.000,7.9594336666666665
1311,1511.000,7.115119666666666
1312,1512.000,4.303226666666666
1313,1513.000,6.971942333333334
1314,1514.000,-0.41489933333333334
1315,1515.000,-1.3956229999999998
1316,1516.000,1.1771258333333334
1317,1517.000,3.9480136666666663
1318,1518.000,6.156204333333334
1319,1519.000,8.608159333333333
1320,1520.000,6.460628166666666
1321,1521.000,9.121816666666668
1322,1522.000,4.463687333333334
1323,1523.000,2.5356986666666663
1324,1524.000,4.992959
1325,1525.000,6.0908869999999995
1326,1526.000,-0.6584204999999999
1327,1527.000,2.1033776666666664
1328,1528.000,3.515875833333333
1329,1529.000,4.928374000000001
1330,1530.000,2.963343333333333
1331,1531.000,9.017669333333332
1332,1532.000,11.364454833333333
1333,1533.000,11.633354666666667
1334,1534.000,11.7435
1335,1535.000,7.044970999999999
1336,1536.000,5.819404
1337,1537.000,6.804612333333332
1338,1538.000,11.042605333333334
1339,1539.000,11.962705999999999
1340,1540.000,6.706930333333333
1341,1541.000,7.736938333333334
1342,1542.000,6.1935356666666666
1343,1543.000,2.7252533333333333
1344,1544.000,8.988992333333334
1345,1545.000,7.798577999999999
1346,1546.000,8.422561333333332
1347,1547.000,5.899876
1348,1548.000,5.170089
1349,1549.000,11.056968333333332
1350,1550.000,11.932333999999999
1351,1551.000,10.769873333333335
1352,1552.000,7.726789
1353,1553.000,13.564346666666665
1354,1554.000,13.873009666666668
1355,1555.000,14.63611
1356,1556.000,11.800526
1357,1557.000,14.045128333333333
1358,1558.000,10.029181
1359,1559.000,13.608358
1360,1560.000,16.444295
1361,1561.000,20.450463666666668
1362,1562.000,24.053193333333336
1363,1563.000,18.914368999999997
1364,1564.000,18.122734666666666
1365,1565.000,17.63688816666667
1366,1566.000,18.565068333333333
1367,1567.000,25.082379333333336
1368,1568.000,32.734558
1369,1569.000,27.666692333333334
1370,1570.000,29.36244566666667
1371,1571.000,38.37505733333334
1372,1572.000,44.06898666666666
1373,1573.000,51.79109433333333
1374,1574.000,56.84753
1375,1575.000,74.80442833333332
1376,1576.000,86.48687833333332
1377,1577.000,94.23516233333334
1378,1578.000,122.73240733333334
1379,1579.000,138.36254433333335
1380,1580.000,165.8325176666667
1381,1581.000,195.36102066666663
1382,1582.000,215.1785726666667
1383,1583.000,224.51715649999997
1384,1584.000,218.8862806666667
1385,1585.000,208.01979966666667
1386,1586.000,182.5182123333333
1387,1587.000,164.08060700000001
1388,1588.000,145.55613000000002
1389,1589.000,135.398597
1390,1590.000,132.21748716666667
1391,1591.000,132.51375866666663
1392,1592.000,127.79551666666669
1393,1593.000,145.0280326666667
1394,1594.000,161.61036166666668
1395,1595.000,182.19382166666665
1396,1596.000,212.12870999999998
1397,1597.000,264.40349999999995
1398,1598.000,323.6436516666667
1399,1599.000,416.440225
1400,1600.000,509.26980299999997
1401,1601.000,592.7272533333334
1402,1602.000,590.692954
1403,1603.000,588.6586546666667
1404,1604.000,507.82109833333334
1405,1605.000,409.61827566666665
1406,1606.000,316.6504446666666
1407,1607.000,250.379144
1408,1608.000,198.258634
1409,1609.000,157.71827066666665
1410,1610.000,127.748236
1411,1611.000,106.04892
1412,1612.000,91.794316
1413,1613.000,80.49712933333335
1414,1614.000,62.27513233333334
1415,1615.000,59.067917666666666
1416,1616.000,51.30957033333334
1417,1617.000,45.48870266666666
1418,1618.000,48.07066633333333
1419,1619.000,35.730170666666666
1420,1620.000,32.71113
1421,1621.000,26.996411
1422,1622.000,25.749768666666665
1423,1623.000,23.17574466666667
1424,1624.000,20.626683999999997
1425,1625.000,18.357214666666668
1426,1626.000,16.20656766666667
1427,1627.000,17.586968499999998
1428,1628.000,21.76679466666667
1429,1629.000,16.812438666666665
1430,1630.000,15.584192333333334
1431,1631.000,14.354319333333331
1432,1632.000,16.114263666666666
1433,1633.000,15.637738666666666
1434,1634.000,15.562345333333333
1435,1635.000,8.190899666666667
1436,1636.000,11.625831
1437,1637.000,6.157543
1438,1638.000,8.194675666666667
1439,1639.000,2.48685
1440,1640.000,6.570799666666666
1441,1641.000,9.931982666666666
1442,1642.000,8.233966
1443,1643.000,11.215701666666666
1444,1644.000,8.110387333333334
1445,1645.000,7.228377333333334
1446,1646.000,6.379348
1447,1647.000,7.673059666666667
1448,1648.000,11.082039666666667
1449,1649.000,14.747427666666667
1450,1650.000,10.600917666666666
1451,1651.000,6.307063666666667
1452,1652.000,4.856839333333333
1453,1653.000,7.980220666666667
1454,1654.000,6.564823
1455,1655.000,0.44512233333333323
1456,1656.000,-2.0002473333333337
1457,1657.000,6.130386666666666
1458,1658.000,8.404404999999999
1459,1659.000,10.624353
1460,1660.000,13.349485333333334
1461,1661.000,1.6336056666666667
1462,1662.000,7.700485666666668
1463,1663.000,1.2512523333333334
1464,1664.000,9.090121333333334
1465,1665.000,4.963853666666666
1466,1666.000,3.6009144999999996
1467,1667.000,5.219196
1468,1668.000,3.9744423333333327
1469,1669.000,4.188405
1470,1670.000,7.1031146666666665
1471,1671.000,5.203902666666667
1472,1672.000,3.3247656666666665
1473,1673.000,-0.13936700000000016
1474,1674.000,0.2236600000000001
1475,1675.000,1.269614
1476,1676.000,7.4343823333333345
1477,1677.000,0.7164936666666666
1478,1678.000,2.250271666666667
1479,1679.000,3.4200863333333333
1480,1680.000,-0.029504333333333282
1481,1681.000,1.341009
1482,1682.000,0.44676833333333343
1483,1683.000,-0.7997929999999999
1484,1684.000,2.2986106666666664
1485,1685.000,-0.5326129999999996
1486,1686.000,-2.516066
1487,1687.000,5.182888666666667
1488,1688.000,5.6270169999999995
1489,1689.000,5.254882333333334
1490,1690.000,0.19390333333333332
1491,1691.000,0.32916766666666647
1492,1692.000,2.5094023333333335
1493,1693.000,0.09616900000000017
1494,1694.000,2.1733776666666667
1495,1695.000,3.3294566666666667
1496,1696.000,-0.6154226666666668
1497,1697.000,4.647667666666666
1498,1698.000,6.597035666666667
1499,1699.000,-1.8531403333333334
1500,1700.000,0.20560566666666671
1501,1701.000,5.157969666666666
1502,1702.000,2.1671673333333334
1503,1703.000,2.8969893333333334
1504,1704.000,-2.1547520000000002
1505,1705.000,0.7320281666666667
1506,1706.000,0.30295866666666654
1507,1707.000,-0.1034156666666665
1508,1708.000,2.272545333333334
1509,1709.000,1.513636
1510,1710.000,-0.3350096666666668
1511,1711.000,-3.080422166666667
1512,1712.000,0.04097300000000004
1513,1713.000,1.4581376666666666
1514,1714.000,4.282447
1515,1715.000,3.5678586666666674
1516,1716.000,7.735241333333334
1517,1717.000,0.210001
1518,1718.000,0.3139999999999999
1519,1719.000,1.539483
1520,1720.000,4.657517
1521,1721.000,7.595290666666667
1522,1722.000,6.314988
1523,1723.000,3.1192016666666667
1524,1724.000,1.0995233333333336
1525,1725.000,-1.0746883333333332
1526,1726.000,-0.8665969999999996
1527,1727.000,-3.6352246666666663
1528,1728.000,3.339916
1529,1729.000,2.4598486666666664
1530,1730.000,-0.7353486666666664
1531,1731.000,0.6258956666666667
1532,1732.000,0.23207133333333316
1533,1733.000,1.4058693333333334
1534,1734.000,-6.862509666666667
1535,1735.000,-8.907872333333334
1536,1736.000,-0.9757471666666667
1537,1737.000,1.405539
1538,1738.000,-1.3862936666666668
1539,1739.000,2.6994633333333335
1540,1740.000,-2.703333888888889
1541,1741.000,-2.785653777777778
1542,1742.000,1.8113
1543,1743.000,0.5413803333333336
1544,1744.000,0.18807833333333335
1545,1745.000,-3.941212
1546,1746.000,2.292615
1547,1747.000,0.21212899999999993
1548,1748.000,0.6706433333333331
1549,1749.000,-2.2468536666666665
1550,1750.000,-3.5541396666666665
1551,1751.000,1.9886756666666667
1552,1752.000,-2.1150783333333334
1553,1753.000,-0.8048533333333333
1554,1754.000,-1.8291490000000001
1555,1755.000,1.127619
1556,1756.000,-0.9799749999999999
1557,1757.000,-6.029847666666666
1558,1758.000,-0.6192763333333335
1559,1759.000,2.0815829999999997
1560,1760.000,-4.096125
1561,1761.000,1.039931
1562,1762.000,-3.735858333333333
1563,1763.000,0.4623230000000002
1564,1764.000,4.645221666666667
1565,1765.000,1.8394786666666667
1566,1766.000,1.234079
1567,1767.000,-1.0113243333333328
1568,1768.000,4.2506423333333325
1569,1769.000,1.8074139999999999
1570,1770.000,2.0223666666666666
1571,1771.000,7.129908333333333
1572,1772.000,5.151205
1573,1773.000,5.945806
1574,1774.000,3.2618519999999998
1575,1775.000,-2.345982333333333
1576,1776.000,1.011586
1577,1777.000,-7.889255666666666
1578,1778.000,1.8551166666666665
1579,1779.000,-2.8516285
1580,1780.000,-1.1559411666666668
1581,1781.000,-1.0319233333333333
1582,1782.000,3.0006186666666665
1583,1783.000,0.15368099999999943
1584,1784.000,1.2562626666666667
1585,1785.000,2.2693879999999997
1586,1786.000,-1.0754133333333333
1587,1787.000,-3.6236276666666662
1588,1788.000,2.4140410000000005
1589,1789.000,6.514497833333333
1590,1790.000,1.853268
1591,1791.000,-0.7772340000000001
1592,1792.000,-0.9488543333333334
1593,1793.000,0.9457576666666666
1594,1794.000,-2.12257
1595,1795.000,1.27925
1596,1796.000,-2.194309333333334
1597,1797.000,1.001414333333333
1598,1798.000,0.7742543333333335
1599,1799.000,-0.6816496666666666
1600,1800.000,2.333676666666667
1601,1801.000,1.8248750000000002
1602,1802.000,2.859037666666667
1603,1803.000,3.396394666666667
1604,1804.000,-3.384002
1605,1805.000,-2.7936693333333333
1606,1806.000,0.02514399999999976
1607,1807.000,4.534647666666667
1608,1808.000,-4.6046613333333335
1609,1809.000,7.247274333333334
1610,1810.000,-0.29955066666666674
1611,1811.000,1.0650656666666671
1612,1812.000,4.289441666666666
1613,1813.000,0.8372468333333334
1614,1814.000,0.8696053333333333
1615,1815.000,-0.902631
1616,1816.000,4.57559
1617,1817.000,1.5199369999999999
1618,1818.000,-6.555379666666667
1619,1819.000,-4.0668766666666665
1620,1820.000,4.004266
1621,1821.000,-0.23357066666666662
1622,1822.000,-0.8330370000000001
1623,1823.000,1.6026699999999998
1624,1824.000,-0.8287840000000001
1625,1825.000,3.3515236666666666
1626,1826.000,-4.960064333333334
1627,1827.000,3.2472266666666667
1628,1828.000,-3.9619136666666663
1629,1829.000,-4.987450999999999
1630,1830.000,1.0264023333333334
1631,1831.000,-6.553818499999999
1632,1832.000,-0.5245129999999999
1633,1833.000,-3.2903343333333335
1634,1834.000,-1.6963973333333333
1635,1835.000,5.957757999999999
1636,1836.000,2.5899066666666664
1637,1837.000,2.5456678333333334
1638,1838.000,-2.3624666666666663
1639,1839.000,0.5467956666666667
1640,1840.000,-0.25775066666666674
1641,1841.000,-4.469443333333333
1642,1842.000,4.261247333333333
1643,1843.000,-1.788722333333333
1644,1844.000,-0.4027306666666668
1645,1845.000,5.0463215
1646,1846.000,3.7053436666666664
1647,1847.000,3.235912666666666
1648,1848.000,-0.1860639999999997
1649,1849.000,0.8619433333333332
1650,1850.000,1.3363820000000002
1651,1851.000,5.92615
1652,1852.000,1.7046076666666667
1653,1853.000,0.8461930000000001
1654,1854.000,-6.878319333333334
1655,1855.000,-2.022795
1656,1856.000,1.0884240000000005
1657,1857.000,-3.2816283333333334
1658,1858.000,-4.1401650000000005
1659,1859.000,-6.071972333333332
1660,1860.000,-2.5470889999999997
1661,1861.000,0.36229500000000003
1662,1862.000,0.1902026666666666
1663,1863.000,0.6133660000000001
1664,1864.000,-1.7747438333333332
1665,1865.000,1.1379303333333335
1666,1866.000,-1.6417383333333333
1667,1867.000,0.9824076666666666
1668,1868.000,1.8988776666666665
1669,1869.000,5.079514666666667
1670,1870.000,2.1346236666666667
1671,1871.000,1.9432446666666667
1672,1872.000,-4.073624333333333
1673,1873.000,-0.31080466666666656
1674,1874.000,1.0796063333333334
1675,1875.000,-1.782959
1676,1876.000,1.5554786666666667
1677,1877.000,2.665437666666667
1678,1878.000,2.2744686666666665
1679,1879.000,4.236202666666666
1680,1880.000,-0.4283883333333332
1681,1881.000,7.26579
1682,1882.000,-0.6555266666666668
1683,1883.000,2.694494333333333
1684,1884.000,-1.2212746666666667
1685,1885.000,8.139073
1686,1886.000,4.0534143333333335
1687,1887.000,-0.2982394444444442
1688,1888.000,3.425480777777778
1689,1889.000,1.4046316666666667
1690,1890.000,3.5109209999999997
1691,1891.000,0.9756923333333333
1692,1892.000,3.7221283333333335
1693,1893.000,4.009675333333333
1694,1894.000,-3.206913333333334
1695,1895.000,-4.393263666666666
1696,1896.000,-4.498470333333334
1697,1897.000,-1.8435013333333332
1698,1898.000,-2.760247666666667
1699,1899.000,-2.824704666666667
1700,1900.000,-2.6932503333333333
1701,1901.000,2.7078116666666667
1702,1902.000,0.13851333333333318
1703,1903.000,-5.6351450000000005
1704,1904.000,-2.8402343333333335
1705,1905.000,0.6911238333333332
1706,1906.000,-0.9611853333333334
1707,1907.000,1.629202
1708,1908.000,0.8753148333333334
1709,1909.000,0.7835590000000003
1710,1910.000,0.35006700000000013
1711,1911.000,1.9533160000000003
1712,1912.000,1.9574833333333332
1713,1913.000,9.192049666666668
1714,1914.000,6.069547666666666
1715,1915.000,9.273206
1716,1916.000,0.033103000000000105
1717,1917.000,3.9303569999999994
1718,1918.000,2.086927333333333
1719,1919.000,0.46789966666666666
1720,1920.000,3.999656
1721,1921.000,-1.988120333333333
1722,1922.000,-2.401631666666667
1723,1923.000,3.242154333333333
1724,1924.000,-1.1716499999999999
1725,1925.000,-4.613872333333334
1726,1926.000,1.3507196666666665
1727,1927.000,-3.3640369999999997
1728,1928.000,-3.4786993333333336
1729,1929.000,-4.804827666666667
1730,1930.000,0.730412
1731,1931.000,-0.7748929999999999
1732,1932.000,3.0780876666666668
1733,1933.000,-0.5315856666666671
1734,1934.000,2.5328486666666667
1735,1935.000,2.7587883333333334
1736,1936.000,-0.8715486666666666
1737,1937.000,-0.3847380000000001
1738,1938.000,0.5927619999999999
1739,1939.000,1.0131970000000001
1740,1940.000,0.4424223333333333
1741,1941.000,-0.4361859999999999
1742,1942.000,3.5522113333333336
1743,1943.000,0.3249553333333332
1744,1944.000,-3.1476373333333334
1745,1945.000,-0.852002
1746,1946.000,5.635437333333333
1747,1947.000,-4.4102966666666665
1748,1948.000,-3.865657
1749,1949.000,-2.294817
1750,1950.000,-0.42805166666666655
1751,1951.000,3.296279
1752,1952.000,1.237337666666667
1753,1953.000,-1.4152466666666665
1754,1954.000,1.2335673333333335
1755,1955.000,1.2911193333333335
1756,1956.000,0.948919
1757,1957.000,-1.2961200000000002
1758,1958.000,-0.6885780000000001
1759,1959.000,2.8869740000000004
1760,1960.000,-0.07930466666666669
1761,1961.000,-1.9786756666666665
1762,1962.000,1.5581016666666665
1763,1963.000,2.4042203333333334
1764,1964.000,1.0982903333333331
1765,1965.000,0.09723783333333329
1766,1966.000,3.0602060000000004
1767,1967.000,-3.257216666666667
1768,1968.000,-3.323987333333333
1769,1969.000,-0.9860276666666667
1770,1970.000,-4.8901718333333335
1771,1971.000,-2.7408291666666664
1772,1972.000,3.669321
1773,1973.000,0.5069979999999998
1774,1974.000,-0.6570493333333332
1775,1975.000,1.3854013333333333
1776,1976.000,0.405627666666667
1777,1977.000,-2.834028333333333
1778,1978.000,0.7243566666666665
1779,1979.000,-2.868404333333333
1780,1980.000,0.8445526666666666
1781,1981.000,-0.3239343333333334
1782,1982.000,-0.5227879999999999
1783,1983.000,-0.22783666666666677
1784,1984.000,1.1046846666666668
1785,1985.000,-5.013439333333333
1786,1986.000,-0.18326633333333334
1787,1987.000,-1.1010396666666666
1788,1988.000,-5.996070333333333
1789,1989.000,-4.123391333333333
1790,1990.000,-2.566462
1791,1991.000,-0.6690148333333333
1792,1992.000,5.3917953333333335
1793,1993.000,-1.1783253333333334
1794,1994.000,-1.9156560000000002
1795,1995.000,1.2323069999999998
1796,1996.000,4.710203666666668
1797,1997.000,-3.128917
1798,1998.000,-3.900003
1799,1999.000,-2.7444683333333333
1800,2000.000,5.145613
