# kind,background_subtracted
# version_label,v1_poly5
# poly_order,5
# iterations_run,11
pixel_index,raman_shift_cm-1,intensity,background_intensity
0,-224.846,5.579801326808962,91.42019867319104
1,-221.778,6.516345481229976,91.48365451877002
2,-218.712,5.452419649814303,91.5475803501857
3,-215.647,7.388027851377657,91.61197214862234
4,-212.583,6.3231740896154065,91.6768259103846
5,-209.521,6.257862353127592,91.74213764687241
6,-206.460,6.192096615444129,91.80790338455587
7,-203.399,6.125880835049912,91.87411916495009
8,-200.340,6.059218955409904,91.9407810445901
9,-197.283,4.992114904994267,92.00788509500573
10,-194.226,5.924572597303481,92.07542740269652
11,-191.171,5.8565959308934765,92.14340406910652
12,-188.116,4.7881887894007065,92.2118112105993
13,-185.064,4.719355041567312,92.28064495843269
14,-182.012,5.650098541266232,92.34990145873377
15,-178.961,4.580423127526274,92.41957687247373
16,-175.912,5.510332624557307,92.48966737544269
17,-172.864,6.4398308417753185,92.56016915822468
18,-169.817,5.368921573827549,92.63107842617245
19,-166.771,4.2976086006176075,92.70239139938239
20,-163.726,4.22589568733062,92.77410431266938
21,-160.683,4.153786584458274,92.84621341554173
22,-157.641,5.081285027824038,92.91871497217596
23,-154.600,6.008394738608189,92.99160526139181
24,-151.560,3.9351194233729387,93.06488057662706
25,-148.521,2.8614627740876415,93.13853722591236
26,-145.484,3.7874284681537915,93.21257153184621
27,-142.447,2.713020168430205,93.2869798315698
28,-139.412,3.638241523258131,93.36175847674187
29,-136.379,3.563096166486389,93.43690383351361
30,-133.346,3.4875877174964245,93.51241228250358
31,-130.314,4.411719781227461,93.58828021877254
32,-127.284,3.335495948201654,93.66450405179835
33,-124.255,2.2589197945491435,93.74108020545086
34,-121.227,3.181994882033223,93.81800511796678
35,-118.200,5.10472475807542,93.89527524192458
36,-115.175,4.027112955780623,93.97288704421938
37,-112.150,2.949162993962233,94.05083700603777
38,-109.127,2.870878377167216,94.12912162283278
39,-106.105,2.792262595701274,94.20773740429873
40,-103.084,4.7133191256539675,94.28668087434603
41,-100.065,3.6340514289237547,94.36594857107625
42,-97.046,2.5544629532432026,94.4455370467568
43,-94.029,1.474557132204069,94.52544286779593
44,-91.013,3.3943373852824124,94.60566261471759
45,-87.998,3.313807117863675,94.68619288213633
46,-84.984,4.232969721267892,94.76703027873211
47,-81.972,3.1518285727747326,94.84817142722527
48,-78.960,2.0703870356486362,94.92961296435136
49,-75.950,2.988648459163926,95.01135154083607
50,-72.941,0.9066161786299602,95.09338382137004
51,-69.933,0.8242935154162012,95.1757064845838
52,-66.927,0.7416837769773394,95.25831622302266
53,-63.921,1.6587902568784614,95.34120974312154
54,-60.917,0.5756162348201173,95.42438376517988
55,-57.914,2.4921649766634317,95.50783502333657
56,-54.912,1.4084397344552855,95.59156026554471
57,-51.911,1.3244437464533263,95.67555625354667
58,-48.912,2.2401802371512076,95.75981976284879
59,-45.913,2.1556524173035996,95.8443475826964
60,-42.916,2.070863483951399,95.9291365160486
61,-39.920,2.9858166204467693,96.01418337955323
62,-36.925,2.900514996478279,96.09948500352172
63,-33.931,5.814961768096069,96.18503823190393
64,-30.939,25.729160077736893,96.27083992226311
65,-27.947,65.6431130542493,96.3568869457507
66,-24.957,26.556823812918694,96.4431761870813
67,-21.968,7.4702954554925185,96.52970454450748
68,-18.980,3.3835310702052936,96.6164689297947
69,-15.993,0.0,96.70346626819621
70,-13.008,0.209306501572172,96.79069349842783
71,-10.023,1.1218524273569983,96.878147572643
72,-7.040,1.0341745435924992,96.9658254564075
73,-4.058,0.9462758713255397,97.05372412867446
74,-1.077,0.0,97.14184058175915
75,1.903,0.0,97.23017182131392
76,4.881,1.6812851336969459,97.31871486630305
77,7.859,0.0,97.40746674897765
78,10.835,0.0,97.49642451485055
79,13.810,0.0,97.58558522267116
80,16.784,0.32505405559965084,97.67494594440035
81,19.757,0.2354962348146188,97.76450376518538
82,22.728,0.14574421666527826,97.85425578333472
83,25.699,0.0,97.94419911029298
84,28.668,0.0,98.03433087061576
85,31.636,0.0,98.12464820194457
86,34.603,0.0,98.21514825498167
87,37.569,0.0,98.30582819346496
88,40.534,0.0,98.39668519414292
89,43.497,0.0,98.4877164467494
90,46.460,0.0,98.5789191539786
91,49.421,0.0,98.67029053145986
92,52.381,0.0,98.7618278077326
93,55.340,0.14647177577879233,98.85352822422121
94,58.297,0.0,98.94538903520989
95,61.254,0.0,99.03740750781756
96,64.209,1.8704190780272683,99.12958092197273
97,67.164,0.0,99.22190657038841
98,70.117,1.6856182414630325,99.31438175853697
99,73.069,4.592996195374994,99.407003804625
100,76.020,4.500229960431753,99.49977003956825
101,78.969,3.4073221930335507,99.59267780696645
102,81.918,5.314275536921741,99.68572446307826
103,84.865,7.221092623203901,99.7789073767961
104,87.811,5.127776070378971,99.87222392962103
105,90.757,7.0343284843623195,99.96567151563768
106,93.700,5.940752458510914,100.05924754148909
107,96.643,5.847050573648389,100.15294942635161
108,99.585,6.753225398090194,100.2467746019098
109,102.525,5.6592794876687265,100.34072051233127
110,105.465,5.565215385758421,100.43478461424158
111,108.403,4.47103562330085,100.52896437669915
112,111.340,6.376742718829888,100.62325728117011
113,114.276,5.282339178496798,100.7176608215032
114,117.211,6.187827496095366,100.81217250390463
115,120.144,5.093210153086986,100.90678984691301
116,123.077,3.9984896186258254,101.00151038137417
117,126.008,6.9036683495838815,101.09633165041612
118,128.938,2.808748790576203,101.1912512094238
119,131.868,6.713733373985846,101.28626662601415
120,134.795,6.6186245199891545,101.38137548001085
121,137.722,7.523424636580771,101.47657536341923
122,140.648,7.428136119598804,101.5718638804012
123,143.572,4.3327613527499125,101.66723864725009
124,146.496,6.237302707634484,101.76269729236552
125,149.418,5.141762543771662,101.85823745622834
126,152.339,6.046143208624528,101.95385679137547
127,155.259,5.95044703762521,102.04955296237479
128,158.178,6.854676354199981,102.14532364580002
129,161.096,6.758833469794382,102.24116653020562
130,164.012,2.6629206838983492,102.33707931610165
131,166.928,3.566940284071336,102.43305971592866
132,169.842,5.470894545967411,102.52910545403259
133,172.755,6.374785733360369,102.62521426663963
134,175.667,5.278616098168868,102.72138390183113
135,178.578,5.182387880481585,102.81761211951842
136,181.488,4.0861033085822385,102.91389669141776
137,184.397,3.9897645989747588,103.01023540102524
138,187.304,4.893373956408453,103.10662604359155
139,190.211,5.796933573903004,103.203066426097
140,193.116,3.7004456327737216,103.29955436722628
141,196.020,3.603912302656539,103.39608769734346
142,198.923,3.5073357415332396,103.49266425846676
143,201.825,3.4107180957564935,103.5892819042435
144,204.726,5.3140615000749705,103.68593849992503
145,207.625,6.217368077658563,103.78263192234144
146,210.524,6.120639940123354,103.87936005987665
147,213.421,4.023879187556858,103.97612081244314
148,216.318,7.927087908543072,104.07291209145693
149,219.213,5.830268180187602,104.1697318198124
150,222.107,2.733422068142829,104.26657793185717
151,225.000,4.636551626632922,104.36344837336708
152,227.891,5.539658898479075,104.46034110152092
153,230.782,5.442745915124547,104.55725408487545
154,233.672,5.345814696659801,104.6541853033402
155,236.560,7.248867251847599,104.7511327481524
156,239.447,6.151905578148202,104.8480944218518
157,242.333,6.054931661744362,104.94506833825564
158,245.218,7.957947477566535,105.04205252243347
159,248.102,4.86095498931796,105.13904501068204
160,250.985,5.763956149499805,105.2360438505002
161,253.867,5.666952899436211,105.33304710056379
162,256.748,7.569947169299525,105.43005283070048
163,259.627,7.472940878135319,105.52705912186468
164,262.505,4.375935933887519,105.62406406611248
165,265.383,7.278934233423598,105.7210657665764
166,268.259,6.181937662559605,105.8180623374404
167,271.134,7.084948096085313,105.91505190391469
168,274.008,6.987967397789362,106.01203260221064
169,276.880,7.890997420484339,106.10900257951566
170,279.752,7.794040006031921,106.20595999396808
171,282.623,4.697096985367992,106.30290301463201
172,285.492,6.600170178527719,106.39982982147228
173,288.360,7.503261394670716,106.49673860532928
174,291.228,8.406372432106167,106.59362756789383
175,294.094,5.309505078317898,106.6904949216821
176,296.959,4.2126611099895115,106.78733889001049
177,299.823,6.115842293029544,106.88415770697046
178,302.685,3.019050382596518,106.98094961740348
179,305.547,3.9222871231241214,107.07771287687588
180,308.408,4.825554248346265,107.17444575165374
181,311.267,3.7288534813222327,107.27114651867777
182,314.126,3.6321865344618374,107.36781346553816
183,316.983,1.5355551095504438,107.46444489044956
184,319.839,6.438960897774152,107.56103910222585
185,322.694,4.34240557974492,107.65759442025508
186,325.548,4.245890825525649,107.75410917447435
187,328.401,6.1494182946553195,107.85058170534468
188,331.253,8.05298963617409,107.94701036382591
189,334.103,6.956606488648447,108.04339351135155
190,336.953,3.8602704801962915,108.13972951980371
191,339.801,2.7639832285120605,108.23601677148794
192,342.649,2.667746340891867,108.33225365910813
193,345.495,5.571561414258582,108.42843858574142
194,348.340,4.4754300351869745,108.52456996481303
195,351.184,3.3793537799288487,108.62064622007115
196,354.027,4.283334214438128,108.71666578556187
197,356.869,5.187372894395949,108.81262710560405
198,359.709,4.091471365235847,108.90852863476415
199,362.549,2.9956311621688485,109.00436883783115
200,365.388,3.8998538102085263,109.10014618979147
201,368.225,5.804140824196239,109.19585917580376
202,371.061,0.7084937088261114,109.29150629117389
203,373.897,2.612913958670248,109.38708604132975
204,376.731,4.517403058203826,109.48259694179617
205,379.564,1.4219624818302066,109.5780375181698
206,382.396,3.326593693906048,109.67340630609395
207,385.227,5.231298148766399,109.7687018512336
208,388.057,6.13607729074991,109.86392270925009
209,390.885,8.040932554223815,109.95906744577618
210,393.713,4.945865363609158,110.05413463639084
211,396.539,2.8508771334058736,110.14912286659413
212,399.365,4.755969268217882,110.24403073178212
213,402.189,3.661143162778231,110.33885683722177
214,405.012,3.5664002019742185,110.43359979802578
215,407.835,4.47174176087249,110.52825823912751
216,410.656,0.3771692047441775,110.62283079525582
217,413.476,5.282683889089981,110.71731611091002
218,416.295,4.188287159665336,110.81171284033466
219,419.112,4.093980352505497,110.9060196474945
220,421.929,3.9997647939506464,111.00023520604935
221,424.745,3.9056418006710203,111.09435819932898
222,427.559,0.0,111.18838732030791
223,430.373,0.7176787284195569,111.28232127158044
224,433.185,1.6238412346645674,111.37615876533543
225,435.996,0.5301014766687899,111.46989852333121
226,438.807,3.4364607231295423,111.56353927687046
227,441.616,2.342920233224902,111.6570797667751
228,444.424,1.2494812566388305,111.75051874336117
229,447.231,0.1561450335862986,111.8438549664137
230,450.037,4.062912794838368,111.93708720516163
231,452.842,1.9697857617473602,112.03021423825264
232,455.645,1.8767651462719215,112.12323485372808
233,458.448,2.7838521510022076,112.21614784899779
234,461.250,1.6910479691849076,112.30895203081509
235,464.050,3.59835378474844,112.40164621525156
236,466.849,2.505770772328063,112.49422922767194
237,469.648,5.413300097290929,112.58669990270907
238,472.445,4.320942915761265,112.67905708423874
239,475.241,2.2287003746454843,112.77129962535452
240,478.036,2.136573611657269,112.86342638834273
241,480.830,7.044563755342693,112.9554362446573
242,483.623,3.952671925105392,113.04732807489461
243,486.415,5.8608992312316275,113.13910076876837
244,489.206,9.769246774915416,113.23075322508458
245,491.996,26.677715648283638,113.32228435171636
246,494.784,46.586306934421174,113.41369306557883
247,497.572,53.495021707396006,113.504978292604
248,500.358,73.40386103228438,113.59613896771562
249,503.144,103.31282596519584,113.68717403480416
250,505.928,147.22191755329843,113.77808244670157
251,508.712,174.13113683484374,113.86886316515627
252,511.494,118.04048483919206,113.95951516080794
253,514.275,59.9499625868375,114.0500374131625
254,517.055,23.859571089433132,114.14042891056687
255,519.834,12.769311349816036,114.23068865018396
256,522.612,5.679184362032444,114.32081563796756
257,525.389,3.589191111362922,114.41080888863708
258,528.165,6.499332574347392,114.50066742565261
259,530.940,2.4096097188103016,114.5903902811897
260,533.713,3.320023503885764,114.67997649611424
261,536.486,1.2305748800426102,114.76942511995739
262,539.257,4.1412647891095276,114.85873521089047
263,542.028,2.052094164300243,114.94790583569976
264,544.797,0.9630639302385191,115.03693606976148
265,547.566,2.8741750029834066,115.1258249970166
266,550.333,2.7854282900542415,115.21457170994576
267,553.099,0.6968246904558413,115.30317530954416
268,555.864,3.6083650947035864,115.39163490529641
269,558.629,3.520050384848531,115.47994961515147
270,561.392,1.4318814345025856,115.56811856549741
271,564.154,0.0,115.65614089113646
272,566.915,1.2559842647402348,115.74401573525977
273,569.674,0.0,115.83174224942232
274,572.433,3.0806804064821307,115.91931959351787
275,575.191,2.9932530642462893,116.00674693575371
276,577.948,2.9059765473743226,116.09402345262568
277,580.703,0.0,116.18114832889296
278,583.458,2.7318792424469933,116.268120757553
279,586.211,1.6450600601835959,116.3549399398164
280,588.964,2.558394914918267,116.44160508508173
281,591.715,1.4718845890894698,116.52811541091053
282,594.466,2.385529856997934,116.61447014300207
283,597.215,0.2993314848316686,116.70066851516833
284,599.963,1.2132902306912001,116.7867097693088
285,602.710,1.1274068446145407,116.87259315538546
286,605.457,1.0416820686024408,116.95831793139756
287,608.202,0.0,117.04388336335656
288,610.946,0.0,117.129288725261
289,613.689,2.7854667009285663,117.21453329907143
290,616.431,2.700383625314828,117.29961637468517
291,619.172,0.0,117.38453724991133
292,621.911,0.53070476955439,117.46929523044561
293,624.650,2.446110370154784,117.55388962984522
294,627.388,0.0,117.63831976950372
295,630.125,1.2774150213740256,117.72258497862597
296,632.860,0.0,117.80668459420296
297,635.595,1.109382039013326,117.89061796098667
298,638.328,3.0256155685349313,117.97438443146507
299,641.061,0.942016634163167,118.05798336583683
300,643.792,0.0,118.14141413198638
301,646.523,4.775323894541373,118.22467610545863
302,649.252,0.6922313305660026,118.307768669434
303,651.980,1.6093087852968182,118.39069121470318
304,654.708,0.0,118.4734431396421
305,657.434,2.443976149813224,118.55602385018678
306,660.159,4.3615672401918175,118.63843275980818
307,662.883,2.279330710512866,118.72066928948713
308,665.606,0.0,118.80273286768923
309,668.328,1.1153770696603544,118.88462293033965
310,671.049,3.0336610792019343,118.96633892079807
311,673.769,0.0,119.04788028983359
312,676.488,3.87075350440044,119.12924649559956
313,679.206,0.0,119.21043700360846
314,681.923,3.7085487132931547,119.29145128670685
315,684.639,1.6277111749498658,119.37228882505013
316,687.354,0.0,119.4529491060776
317,690.067,0.0,119.53343162448715
318,692.780,0.0,119.61373588221029
319,695.492,1.3061386116130365,119.69386138838696
320,698.202,2.2261923406595656,119.77380765934043
321,700.912,1.1464257814478174,119.85357421855218
322,703.621,2.0668394033632183,119.93316059663678
323,706.328,0.0,120.0125663313168
324,709.035,0.0,120.09179096739764
325,711.740,0.8291659432575216,120.17083405674248
326,714.444,1.750304841752893,120.2496951582471
327,717.148,0.6716261621852055,120.3283738378148
328,719.850,1.5931303316687462,120.40686966833125
329,722.552,1.5148177703605654,120.48518222963943
330,725.252,3.436688891485531,120.56331110851447
331,727.951,1.358744101361495,120.6412558986385
332,730.649,0.0,120.71901620057562
333,733.347,2.203408378253272,120.79659162174673
334,736.043,0.0,120.87398177640438
335,738.738,2.048813714392267,120.95118628560773
336,741.432,1.971795222802612,121.02820477719739
337,744.125,1.894963114229725,121.10503688577028
338,746.817,2.818317747345432,121.18168225265457
339,749.508,2.7418594741154863,121.25814052588451
340,752.198,0.0,121.33441136017535
341,754.887,2.589505583101797,121.4104944168982
342,757.575,0.0,121.48638936405493
343,760.262,0.4379041237470034,121.562095876253
344,762.948,0.3623863653195514,121.63761363468045
345,765.633,0.2870576729193317,121.71294232708067
346,768.317,3.211918352272633,121.78808164772737
347,770.999,2.136968702600612,121.86303129739939
348,773.681,0.06220901664437406,121.93779098335563
349,776.362,0.0,122.01236041930989
350,779.042,0.0,122.08673932540586
351,781.720,2.839072571808174,122.16092742819183
352,784.398,1.7650755394042505,122.23492446059575
353,787.075,2.691269838100027,122.30873016189997
354,789.751,2.6176557222838,122.3823442777162
355,792.425,1.5442334400396192,122.45576655996038
356,795.099,1.4710032331724108,122.52899676682759
357,797.771,1.3979653372331597,122.60203466276684
358,800.443,3.3251199815439634,122.67488001845604
359,803.114,4.2524673892231135,122.74753261077689
360,805.783,1.180007777210335,122.81999222278966
361,808.452,0.10774135629178261,122.89225864370822
362,811.119,2.0356683311252084,122.96433166887479
363,813.786,0.963788900265115,123.03621109973489
364,816.451,0.8921032561877809,123.10789674381222
365,819.116,0.8206115853164704,123.17938841468353
366,821.779,1.749314068046516,123.25068593195348
367,824.442,0.6782108787703862,123.32178912122961
368,827.103,0.0,123.39269781409712
369,829.763,2.536588151906244,123.46341184809376
370,832.423,2.4660689333151993,123.5339310666848
371,835.081,3.3957446807621636,123.60425531923784
372,837.739,1.3256155390022712,123.67438446099773
373,840.395,4.255681646938598,123.7443183530614
374,843.050,3.185943137647186,123.81405686235281
375,845.705,0.11640013840221286,123.88359986159779
376,848.358,1.0470527707010717,123.95294722929893
377,851.010,3.9779011502895685,124.02209884971043
378,853.662,0.0,124.09105461281311
379,856.312,0.0,124.15981441428912
380,858.961,0.0,124.22837815549693
381,861.610,0.7032542565538051,124.2967457434462
382,864.257,0.0,124.3649170907726
383,866.903,2.5671078842871964,124.4328921157128
384,869.549,1.4993292579207207,124.50067074207928
385,872.193,2.431747100764767,124.56825289923523
386,874.836,1.3643614779306006,124.6356385220694
387,877.478,2.297172449028963,124.70282755097104
388,880.120,3.230180068195253,124.76981993180475
389,882.760,1.1633843841146358,124.83661561588536
390,885.399,0.0,124.90321455995286
391,888.037,6.03038327385282,124.96961672614718
392,890.675,5.964177918016816,125.03582208198318
393,893.311,0.898169399674515,125.10183060032548
394,895.946,0.8323577406366098,125.16764225936339
395,898.580,0.7667429574143512,125.23325704258565
396,901.214,0.0,125.29867493875554
397,903.846,4.636104058114441,125.36389594188556
398,906.477,3.5710799487875704,125.42892005121243
399,909.107,1.5062527288280876,125.49374727117191
400,911.737,0.44162238862625713,125.55837761137374
401,914.365,2.377188913423538,125.62281108657646
402,916.992,3.312952283337637,125.68704771666236
403,919.618,7.248912473387719,125.75108752661228
404,922.244,3.1850694535194037,125.8149305464806
405,924.868,5.121423188630018,125.87857681136998
406,927.491,5.05797363859358,125.94202636140642
407,930.113,7.994720758286036,126.00527924171396
408,932.735,5.931664497610257,126.06833550238974
409,935.355,10.868804801521293,126.13119519847871
410,937.974,9.806141610051398,126.1938583899486
411,940.592,6.743674858335112,126.25632514166489
412,943.210,6.681404476634484,126.31859552336552
413,945.826,6.6193303903641265,126.38066960963587
414,948.441,4.557452520116385,126.44254747988361
415,951.056,5.495770781686332,126.50422921831367
416,953.669,6.434285086097049,126.56571491390295
417,956.281,10.372995339624595,126.6270046603754
418,958.893,6.3119014438232455,126.68809855617675
419,961.503,10.251003295550518,126.74899670444948
420,964.112,8.190300786992367,126.80969921300763
421,966.721,12.129793805688195,126.8702061943118
422,969.328,6.069482234556119,126.93051776544388
423,971.935,8.009365951917943,126.99063404808206
424,974.540,7.94944483152436,127.05055516847564
425,977.144,4.889718742580044,127.11028125741996
426,979.748,6.830187549768738,127.16981245023126
427,982.350,4.770851113278468,127.22914888672153
428,984.952,6.71170928882654,127.28829071117346
429,987.552,0.6527619276847503,127.34723807231525
430,990.152,2.5940088767044216,127.40599112329558
431,992.750,1.5354499783416031,127.4645500216584
432,995.348,0.4770850706821079,127.52291492931789
433,997.944,4.418913987466723,127.58108601253328
434,1000.540,4.360936558116222,127.63906344188378
435,1003.134,2.303152607756573,127.69684739224343
436,1005.728,4.245561957243979,127.75443804275602
437,1008.321,0.18816442319007365,127.81183557680993
438,1010.912,2.1309598179869766,127.86904018201302
439,1013.503,3.073947949832416,127.92605205016758
440,1016.092,2.0171286227549103,127.98287137724509
441,1018.681,1.9605016366387815,128.03949836336122
442,1021.269,0.0,128.0959332127506
443,1023.856,2.847823866258125,128.15217613374188
444,1026.441,0.7917726612676006,128.2082273387324
445,1029.026,2.7359129558367954,128.2640870441632
446,1031.610,1.6802445295061261,128.31975547049387
447,1034.193,0.0,128.37523284217747
448,1036.775,3.569480612364657,128.43051938763534
449,1039.355,2.5143846607679734,128.48561533923203
450,1041.935,3.45947906674985,128.54052093325015
451,1044.514,0.0,128.59523640986535
452,1047.092,3.3502379868788807,128.64976201312112
453,1049.669,2.295902009096409,128.7040979909036
454,1052.245,0.24175540508340987,128.7582445949166
455,1054.820,2.187797919343552,128.81220208065645
456,1057.394,3.1340292926131497,128.86597070738685
457,1059.967,2.0804492618862582,128.91955073811374
458,1062.539,3.0270575604398005,128.9729424395602
459,1065.110,3.973853917858577,129.02614608214142
460,1067.681,0.0,129.0791619399394
461,1070.250,0.0,129.131990290678
462,1072.818,0.8153685843022629,129.18463141569774
463,1075.385,3.762914400069292,129.2370855999307
464,1077.951,1.710646868124627,129.28935313187537
465,1080.517,1.6585656964283544,129.34143430357165
466,1083.081,4.606670589424425,129.39332941057557
467,1085.644,2.554961248065723,129.44503875193428
468,1088.207,1.503437369839105,129.4965626301609
469,1090.768,1.4520986487905816,129.54790135120942
470,1093.329,3.400944775550414,129.5990552244496
471,1095.888,3.349975437358296,129.6500245626417
472,1098.447,0.2991903180883355,129.70080968191166
473,1101.004,1.2485890982743229,129.75141090172568
474,1103.561,1.1981714551347409,129.80182854486526
475,1106.116,3.147937062597947,129.85206293740205
476,1108.671,2.0978855913272128,129.9021144086728
477,1111.225,4.048016708745905,129.9519832912541
478,1113.777,0.9983300790626402,130.00166992093736
479,1116.329,1.9488253632962937,130.0511746367037
480,1118.880,1.8995022193011835,130.10049778069882
481,1121.430,0.8503603017922217,130.14963969820778
482,1123.979,0.0,130.19860073763007
483,1126.527,2.7526187495456327,130.24738125045437
484,1129.074,2.704018408766558,130.29598159123344
485,1131.620,1.6555978824409578,130.34440211755904
486,1134.165,1.6073568099632496,130.39264319003675
487,1136.709,2.5592948277390235,130.44070517226098
488,1139.252,0.0,130.4885884307897
489,1141.794,0.46370666488058987,130.5362933351194
490,1144.335,0.4161797423400344,130.58382025765997
491,1146.875,1.3688304262903728,130.63116957370963
492,1149.415,3.32165833857033,130.67834166142967
493,1151.953,3.2746630981805254,130.72533690181947
494,1154.490,1.2278443213086518,130.77215567869135
495,1157.027,0.0,130.81879837864543
496,1159.562,1.1347346089555401,130.86526539104446
497,1162.097,0.08844289201113043,130.91155710798887
498,1164.630,1.0423260757085018,130.9576739242915
499,1167.163,5.996383762547538,131.00361623745246
500,1169.695,3.9506155523657753,131.04938444763422
501,1172.225,4.905021042363785,131.09497895763622
502,1174.755,2.8595998271300402,131.14040017286996
503,1177.284,1.8143514986661842,131.18564850133382
504,1179.812,3.769275646412126,131.23072435358787
505,1182.338,3.724371857271109,131.2756281427289
506,1184.864,2.6796397156348633,131.32036028436514
507,1187.389,4.63507880340876,131.36492119659124
508,1189.913,3.5906887000367647,131.40931129996324
509,1192.436,2.546468982526875,131.45353101747313
510,1194.959,4.5024192254758475,131.49758077452415
511,1197.480,4.458539001094607,131.5414609989054
512,1200.000,2.4148278792332576,131.58517212076674
513,1202.519,2.3712854274061783,131.62871457259382
514,1205.038,4.327911210817177,131.67208878918282
515,1207.555,2.284704792384588,131.7152952076154
516,1210.071,3.2416657327664495,131.75833426723355
517,1212.587,3.198793590385492,131.8012064096145
518,1215.101,0.15608792145442862,131.84391207854557
519,1217.615,1.1135482800008845,131.88645171999912
520,1220.128,0.0,131.92882578210734
521,1222.639,4.028965284862778,131.97103471513722
522,1225.150,0.9869210285346526,132.01307897146535
523,1227.660,1.9450409944471403,132.05495900555286
524,1230.169,0.0,132.09667527392028
525,1232.677,4.861771764877517,132.13822823512248
526,1235.184,2.820381650276545,132.17961834972346
527,1237.690,3.779153919728742,132.22084608027126
528,1240.195,4.738088108727112,132.2619118912729
529,1242.699,0.0,132.3028162491692
530,1245.202,6.6564403776903305,132.34355962230967
531,1247.704,3.615857519072563,132.38414248092744
532,1250.206,6.575434702885929,132.42456529711407
533,1252.706,5.535171455205472,132.46482854479453
534,1255.206,2.4950673002980466,132.50493269970195
535,1257.704,2.4551217606473585,132.54487823935264
536,1260.202,3.415334356979116,132.58466564302088
537,1262.698,3.375704608286128,132.62429539171387
538,1265.194,6.336232031853513,132.6637679681465
539,1267.689,5.2969161432836245,132.70308385671638
540,1270.183,5.257756456521378,132.74224354347862
541,1272.676,4.218752483879257,132.78124751612074
542,1275.168,7.179903736062386,132.82009626393761
543,1277.659,5.141209722193821,132.85879027780618
544,1280.149,1.1026699498394237,132.89733005016058
545,1282.638,5.064283925033237,132.93571607496676
546,1285.126,4.0260511523023865,132.9739488476976
547,1287.613,5.987971134692344,133.01202886530766
548,1290.100,7.950043373791942,133.04995662620806
549,1292.585,3.9122673697585526,133.08773263024145
550,1295.070,1.874642621343213,133.1253573786568
551,1297.553,2.837168625915723,133.16283137408428
552,1300.036,7.799844879489683,133.20015512051032
553,1302.517,2.7626708767477623,133.23732912325224
554,1304.998,1.7256461110667374,133.27435388893326
555,1307.478,5.688770074542589,133.3112299254574
556,1309.957,4.652042258015598,133.3479577419844
557,1312.435,1.6154621510956133,133.3845378489044
558,1314.912,3.579029242187005,133.420970757813
559,1317.388,2.5427430185137894,133.4572569814862
560,1319.863,7.5066029661448965,133.4933970338551
561,1322.337,5.470608570019124,133.52939142998088
562,1324.811,7.434759313970346,133.56524068602965
563,1327.283,5.399054680752556,133.60094531924744
564,1329.755,6.363494152065101,133.6365058479349
565,1332.225,3.3280772085776675,133.67192279142233
566,1334.695,1.2928033299554897,133.7071966700445
567,1337.163,3.257671994884447,133.74232800511555
568,1339.631,2.2226826810961313,133.77731731890387
569,1342.098,7.187834865393029,133.81216513460697
570,1344.564,4.153128023673645,133.84687197632636
571,1347.029,8.118561630957515,133.88143836904248
572,1349.493,6.084135161410444,133.91586483858956
573,1351.956,6.049848088369572,133.95015191163043
574,1354.418,8.015699884368473,133.98430011563153
575,1356.880,3.9816900211623363,134.01830997883766
576,1359.340,4.947817969753004,134.052182030247
577,1361.800,6.914083200414154,134.08591679958585
578,1364.258,2.8804851827163134,134.1195148172837
579,1366.716,8.847023385552177,134.15297661444782
580,1369.172,5.813697277161509,134.1863027228385
581,1371.628,4.780506325156381,134.21949367484362
582,1374.083,2.7474499965462087,134.2525500034538
583,1376.537,0.0,134.28547224223698
584,1378.990,4.681739074686362,134.31826092531364
585,1381.442,5.649083412668574,134.35091658733143
586,1383.893,4.616560236559906,134.3834397634401
587,1386.344,2.5841690107335467,134.41583098926645
588,1388.793,3.5519091991107246,134.44809080088928
589,1391.241,3.5197802651859433,134.48021973481406
590,1393.689,2.487781672052108,134.5122183279479
591,1396.135,5.455912882425395,134.5440871175746
592,1398.581,0.42417335867071415,134.5758266413293
593,1401.026,3.392562562826555,134.60743743717345
594,1403.470,4.361079956630306,134.6389200433697
595,1405.913,2.3297250015431814,134.67027499845682
596,1408.355,3.298497158775433,134.70150284122457
597,1410.796,3.26739588931153,134.73260411068847
598,1413.236,6.23642065393517,134.76357934606483
599,1415.675,4.205570913254462,134.79442908674554
600,1418.114,1.174846127726994,134.825153872273
601,1420.551,4.144245757684985,134.85575424231502
602,1422.988,1.113769263360382,134.88623073663962
603,1425.423,3.0834161049100146,134.91658389508999
604,1427.858,10.05318574244069,134.9468142575593
605,1430.292,1.0230776360342304,134.97692236396577
606,1432.725,2.9930912457728027,135.0069087542272
607,1435.157,2.963226031763753,135.03677396823625
608,1437.588,4.9334814541649905,135.066518545835
609,1440.018,6.903856973209884,135.09614302679012
610,1442.447,0.8743520492325558,135.12564795076744
611,1444.876,3.844966142692897,135.1550338573071
612,1447.303,5.815698714201687,135.1843012857983
613,1449.730,1.7865492245457801,135.21345077545422
614,1452.156,3.75751713471314,135.24248286528686
615,1454.580,4.728601905918026,135.27139809408197
616,1457.004,3.6998029996260016,135.300197000374
617,1459.427,4.671119877579258,135.32888012242074
618,1461.849,5.642552001821457,135.35744799817854
619,1464.270,2.6140988347231087,135.3859011652769
620,1466.690,5.585759839006528,135.41424016099347
621,1469.110,3.557534477770986,135.442465522229
622,1471.528,2.529422214517865,135.47057778548213
623,1473.946,1.5014225131756973,135.4985774868243
624,1476.362,5.473534838125431,135.52646516187457
625,1478.778,2.445758654225358,135.55424134577464
626,1481.193,2.4180934268363217,135.58190657316368
627,1483.607,0.0,135.60946137815307
628,1486.020,2.3630937056985033,135.6369062943015
629,1488.432,2.335758145410267,135.66424185458973
630,1490.843,0.3085314086044946,135.6914685913955
631,1493.253,3.2814129635316363,135.71858703646836
632,1495.663,1.2544022790952738,135.74559772090473
633,1498.071,4.227498824877472,135.77250117512253
634,1500.479,0.20070207116378924,135.7992979288362
635,1502.886,0.0,135.82598851103165
636,1505.292,3.147426550058981,135.85257344994102
637,1507.697,5.120946726982453,135.87905327301755
638,1510.101,2.094571493089404,135.9054285069106
639,1512.504,3.068300322559537,135.93169967744046
640,1514.906,0.042132690426797126,135.9578673095732
641,1517.307,3.0160680726045257,135.98393192739547
642,1519.708,2.990105945910358,136.00989405408964
643,1522.107,0.0,136.0357542119085
644,1524.506,0.9384870778498566,136.06151292215014
645,1526.904,4.912829294867095,136.0871707051329
646,1529.301,2.8872719198298284,136.11272808017017
647,1531.697,0.0,136.1381855655454
648,1534.092,4.836456321513168,136.16354367848683
649,1536.486,0.8111970648575095,136.1888029351425
650,1538.879,1.786036149444925,136.21396385055507
651,1541.272,3.760973061363302,136.2390269386367
652,1543.663,4.736007287856012,136.263992712144
653,1546.054,5.711138317347263,136.28886168265274
654,1548.444,0.0,136.313634360533
655,1550.832,1.6616887450761908,136.3383112549238
656,1553.220,0.6371071262918235,136.36289287370818
657,1555.607,4.612620276512075,136.38737972348792
658,1557.994,0.0,136.41177230955844
659,1560.379,0.5639288641160931,136.4360711358839
660,1562.763,2.5397232949281943,136.4602767050718
661,1565.147,2.5156104816519758,136.48438951834802
662,1567.529,3.4915899244684,136.5084100755316
663,1569.911,0.0,136.5323388750098
664,1572.292,1.443823586287209,136.5561764137128
665,1574.672,2.420076812911333,136.57992318708867
666,1577.051,5.396420310921798,136.6035796890782
667,1579.429,2.3728535879101003,136.6271464120899
668,1581.807,1.349376153025247,136.65062384697475
669,1584.183,6.325987516998936,136.67401248300106
670,1586.559,3.302687192170424,136.69731280782958
671,1588.933,1.2794746925118545,136.72052530748815
672,1591.307,3.2563495336533776,136.74365046634662
673,1593.680,3.233311232908136,136.76668876709186
674,1596.052,1.2103593092974734,136.78964069070253
675,1598.423,1.1874932835761172,136.81250671642388
676,1600.794,4.164712678257047,136.83528732174295
677,1603.163,1.1420170176368742,136.85798298236313
678,1605.531,3.119405827820941,136.88059417217906
679,1607.899,1.0968786367481584,136.90312136325184
680,1610.266,4.074434974216501,136.9255650257835
681,1612.632,2.0520743719078496,136.94792562809215
682,1614.997,3.0297963634132827,136.97020363658672
683,1617.361,0.0,136.99239951574197
684,1619.724,3.9854862719267032,137.0145137280733
685,1622.086,1.963453265888461,137.03654673411154
686,1624.448,4.941501007621923,137.05849899237808
687,1626.808,2.9196290406405296,137.08037095935947
688,1629.168,1.8978369105174693,137.10216308948253
689,1631.527,2.876124164910948,137.12387583508905
690,1633.885,3.854490353589142,137.14550964641086
691,1636.242,5.832935028455438,137.16706497154456
692,1638.598,0.8114577435735271,137.18854225642647
693,1640.954,0.7900580551925316,137.20994194480747
694,1643.308,1.7687355217720437,137.23126447822796
695,1645.662,4.747489704007364,137.25251029599264
696,1648.014,0.0,137.2736798351455
697,1650.366,2.705226469555413,137.2947735304446
698,1652.717,3.6842081856629534,137.31579181433705
699,1655.067,0.6632648830661481,137.33673511693385
700,1657.417,5.642396134015286,137.35760386598471
701,1659.765,6.6216015131469135,137.3783984868531
702,1662.112,3.6008805975091605,137.39911940249084
703,1664.459,2.5802329665866353,137.41976703341336
704,1666.805,0.0,137.44034179767428
705,1669.150,1.539155889159531,137.46084411084047
706,1671.494,0.518725614033201,137.4812743859668
707,1673.837,2.4983669664289323,137.50163303357107
708,1676.179,2.4780795383910004,137.521920461609
709,1678.520,1.457862924550966,137.54213707544903
710,1680.861,4.437716722152942,137.56228327784706
711,1683.201,2.4176405310784332,137.58235946892157
712,1685.539,2.3976339538715763,137.60236604612842
713,1687.877,4.37769659576432,137.62230340423568
714,1690.214,1.3578280647014935,137.6421719352985
715,1692.551,0.33802797136590357,137.6619720286341
716,1694.886,2.318295929203373,137.68170407079663
717,1697.220,0.0,137.7013684455519
718,1699.554,4.279034466147522,137.72096553385248
719,1701.887,2.259504286187564,137.74049571381244
720,1704.219,1.2400406393177263,137.75995936068227
721,1706.550,4.220643153176212,137.7793568468238
722,1708.880,4.201311458315075,137.79868854168492
723,1711.209,2.1820451882251746,137.81795481177483
724,1713.537,4.162843979361583,137.83715602063842
725,1715.865,2.143707471168341,137.85629252883166
726,1718.192,7.124635306103926,137.87536469389607
727,1720.518,3.105627129666175,137.89437287033383
728,1722.843,4.086682590417411,137.9133174095826
729,1725.167,2.067801340009595,137.9321986599904
730,1727.490,3.0489830332094243,137.95101696679058
731,1729.812,3.0302273279235976,137.9697726720764
732,1732.134,6.011533885223514,137.9884661147765
733,1734.455,2.992902369370995,138.007097630629
734,1736.774,4.974332447842812,138.0256675521572
735,1739.093,0.9558237913562948,138.0441762086437
736,1741.411,0.0,138.06262392610597
737,1743.729,2.9189889727292666,138.08101102727073
738,1746.045,1.9006621684510208,138.09933783154898
739,1748.361,0.8823953449889927,138.117604655011
740,1750.675,4.86418818963881,138.1358118103612
741,1752.989,0.0,138.15395960691282
742,1755.302,0.8279516494370114,138.172048350563
743,1757.614,0.0,138.19007834376765
744,1759.925,2.7919501144837966,138.2080498855162
745,1762.236,2.774036728693318,138.22596327130668
746,1764.545,6.756181206879631,138.24381879312037
747,1766.854,0.738383260603058,138.26161673939694
748,1769.162,2.7206426049909282,138.27935739500907
749,1771.469,1.7029589587624798,138.29704104123752
750,1773.775,0.0,138.31466795574605
751,1776.080,4.667761587443948,138.33223841255605
752,1778.385,2.650247317978369,138.34975268202163
753,1780.688,2.632788969195417,138.36721103080458
754,1782.991,0.0,138.3846137218489
755,1785.293,0.5980389856439388,138.40196101435606
756,1787.594,1.5807468362402233,138.41925316375978
757,1789.894,4.563509578299318,138.43649042170068
758,1792.193,1.5463269639985242,138.45367303600148
759,1794.492,0.5291987493582155,138.47080125064178
760,1796.789,1.512124694267186,138.4878753057328
761,1799.086,1.495104562507521,138.50489543749248
762,1801.382,1.478138121779864,138.52186187822014
763,1803.677,2.4612251437283987,138.5387748562716
764,1805.971,3.444365403966117,138.55563459603388
765,1808.265,3.4275586820998853,138.57244131790011
766,1810.557,0.41080476175534386,138.58919523824466
767,1812.849,2.394103430602513,138.6058965693975
768,1815.140,4.377454480380408,138.6225455196196
769,1817.430,1.360857706922502,138.6391422930775
770,1819.719,1.344312910181543,138.65568708981846
771,1822.007,1.3278198942550148,138.67218010574499
772,1824.295,3.3113784674099804,138.68862153259002
773,1826.581,0.2949884421082629,138.70501155789174
774,1828.867,0.2786496350316554,138.72135036496834
775,1831.152,1.2623618671070176,138.73763813289298
776,1833.436,0.24612496353125835,138.75387503646874
777,1835.719,5.229938753796546,138.77006124620345
778,1838.002,3.213803071715546,138.78619692828445
779,1840.283,1.1977177554462912,138.8022822445537
780,1842.564,0.0,138.81831735248255
781,1844.844,0.0,138.8343024051465
782,1847.123,1.1497624487996916,138.8502375512003
783,1849.401,0.0,138.86612293485274
784,1851.678,1.1180413041585098,138.8819586958415
785,1853.955,0.0,138.897744969408
786,1856.231,0.0,138.91348188627248
787,1858.506,3.0708304273913427,138.92916957260866
788,1860.780,2.0551918499812984,138.9448081500187
789,1863.053,2.0396022644918332,138.96039773550817
790,1865.325,1.0240615585392447,138.97593844146076
791,1867.597,1.0085696243866948,138.9914303756133
792,1869.867,0.0,139.00687364103058
793,1872.137,4.9777316639197124,139.0222683360803
794,1874.406,1.9623854455921332,139.03761455440787
795,1876.674,2.9470876150886625,139.05291238491134
796,1878.941,1.9318380882837118,139.0681619117163
797,1881.208,0.0,139.08336321415067
798,1883.473,3.9014836332804066,139.0985163667196
799,1885.738,3.886378560919411,139.1136214390806
800,1888.002,0.8713215039819602,139.12867849601804
801,1890.265,0.0,139.1436875974183
802,1892.528,2.841351201755515,139.15864879824449
803,1894.789,6.826437851488464,139.17356214851154
804,1897.050,2.8115723067391514,139.18842769326085
805,1899.310,4.796754527464742,139.20324547253526
806,1901.569,3.7819844786459953,139.218015521354
807,1903.827,0.0,139.23273786968755
808,1906.084,1.7525874575675857,139.24741254243241
809,1908.340,0.0,139.26203955938615
810,1910.596,1.7233810647778114,139.2766189352222
811,1912.851,0.0,139.2911506794646
812,1915.105,1.694365203536762,139.30563479646324
813,1917.358,4.679928714631615,139.32007128536839
814,1919.610,0.6655398598942668,139.33446014010573
815,1921.862,1.6511986506486949,139.3488013493513
816,1924.113,5.636905103493746,139.36309489650625
817,1926.362,2.6226592403282325,139.37734075967177
818,1928.611,0.608461088376032,139.39153891162397
819,1930.860,2.5943106802112084,139.4056893197888
820,1933.107,0.5802080537829966,139.419791946217
821,1935.353,3.566153252441296,139.4338467475587
822,1937.599,0.0,139.4478536750386
823,1939.844,0.0,139.46181267443077
824,1942.088,3.524276313966567,139.47572368603343
825,1944.331,0.5104133553560359,139.48958664464396
826,1946.574,2.4965985204662218,139.50340147953378
827,1948.815,2.4828318855769282,139.51716811442307
828,1951.056,4.469113532544156,139.53088646745584
829,1953.296,3.455443548825315,139.54455645117469
830,1955.535,1.441822027504088,139.5581779724959
831,1957.773,2.428249067316017,139.57175093268398
832,1960.011,2.414724772673253,139.58527522732675
833,1962.248,0.40124925368971276,139.5987507463103
834,1964.483,0.0,139.61217737379368
835,1966.718,0.3744450118160785,139.62555498818392
836,1968.953,3.3611165378890746,139.63888346211093
837,1971.186,2.3478373375978094,139.6521626624022
838,1973.418,4.334607549942149,139.66539245005785
839,1975.650,1.3214273197744717,139.67857268022553
840,1977.881,5.308296797824852,139.69170320217515
841,1980.111,3.295216140726012,139.704783859274
842,1982.340,2.2821855110387332,139.71781448896127
843,1984.569,2.269205077276638,139.73079492272336
844,1986.797,2.2562750139315995,139.7437249860684
845,1989.023,2.243395501498668,139.75660449850133
846,1991.249,4.230566726501166,139.76943327349883
847,1993.474,3.217788881515986,139.782211118484
848,1995.699,1.2050621651986262,139.79493783480137
849,1997.922,3.1923867823082617,139.80761321769174
850,2000.145,2.179762943732726,139.82023705626727
851,2002.367,5.16719086651409,139.8328091334859
852,2004.588,3.1546707738732493,139.84532922612675
853,2006.808,4.142202895235357,139.85779710476464
854,2009.028,3.129787466254868,139.87021253374513
855,2011.246,3.117424728840632,139.88257527115937
856,2013.464,2.1051149311809922,139.894885068819
857,2015.681,0.0,139.9071416722311
858,2017.898,2.0806551794272536,139.91934482057275
859,2020.113,0.06850575333362485,139.93149424666638
860,2022.328,4.056410323045668,139.94358967695433
861,2024.541,3.0443691685261456,139.95563083147385
862,2026.754,6.032382576168004,139.967617423832
863,2028.966,2.020450838819528,139.97954916118047
864,2031.178,0.008574255809548958,139.99142574419045
865,2033.388,3.9967531329725148,140.00324686702749
866,2035.598,2.984987782673386,140.0150122173266
867,2037.807,1.9732785238330735,140.02672147616693
868,2040.015,0.9616256819534215,140.03837431804658
869,2042.222,0.9500295891421899,140.0499704108578
870,2044.429,5.9384905841385205,140.06150941586148
871,2046.634,6.927009012337635,140.07299098766237
872,2048.839,3.9155852258163577,140.08441477418364
873,2051.043,3.904219583357758,140.09578041664224
874,2053.247,0.8929124504768424,140.10708754952316
875,2055.449,3.881664199445197,140.1183358005548
876,2057.651,2.870475209316311,140.1295247906837
877,2059.851,3.8593458659505586,140.14065413404944
878,2062.052,2.8482765620406383,140.15172343795936
879,2064.251,2.837267697136383,140.16273230286362
880,2066.449,2.8263196776697725,140.17368032233023
881,2068.647,0.8154329169805123,140.1845670830195
882,2070.844,3.804607835340846,140.19539216465915
883,2073.040,5.7938448599804815,140.20615514001952
884,2075.235,3.7831444251121695,140.21685557488783
885,2077.429,4.7725069719564885,140.2274930280435
886,2079.623,1.761932948767111,140.2380670512329
887,2081.815,2.751422810855786,140.2485771891442
888,2084.007,4.740977020617663,140.25902297938234
889,2086.199,2.7305960475561335,140.26940395244387
890,2088.389,2.7202803683082095,140.2797196316918
891,2090.579,5.71003046666948,140.28996953333052
892,2092.767,1.6998468336193753,140.30015316638062
893,2094.955,3.689729967346125,140.31027003265388
894,2097.143,0.6796803732717365,140.32031962672826
895,2099.329,5.669698564077748,140.33030143592225
896,2101.514,1.6597850597296429,140.34021494027036
897,2103.699,1.6499403875020846,140.35005961249792
898,2105.883,1.640165082004529,140.35983491799547
899,2108.066,6.630459685205835,140.36954031479416
900,2110.249,0.0,140.3791752535405
901,2112.430,1.611260822528891,140.3887391774711
902,2114.611,5.601768477612296,140.3982315223877
903,2116.791,0.592348283368068,140.40765171663193
904,2118.970,0.5830008189395812,140.41699918106042
905,2121.149,2.573726670980591,140.4262733290194
906,2123.326,1.5645264336802711,140.43547356631973
907,2125.503,6.55540070878817,140.44459929121183
908,2127.679,2.546350105639533,140.45364989436047
909,2129.854,3.5373752411804844,140.46262475881952
910,2132.029,4.528476739992755,140.47152326000725
911,2134.202,2.519655234319117,140.48034476568088
912,2136.375,0.5109113640885994,140.4890886359114
913,2138.547,3.502245776941237,140.49775422305876
914,2140.718,0.4936591282535119,140.5063408717465
915,2142.889,3.485152081163392,140.5148479188366
916,2145.058,2.476725306595199,140.5232746934048
917,2147.227,4.468379483285048,140.53162051671495
918,2149.395,0.0,140.5398847021941
919,2151.563,4.451933444592754,140.54806655540725
920,2153.729,3.44383462596727,140.55616537403273
921,2155.895,3.43581955216348,140.56418044783652
922,2158.060,0.4278889413528191,140.57211105864718
923,2160.224,1.4200435196687522,140.57995648033125
924,2162.387,2.4122840212325514,140.58771597876745
925,2164.550,5.404611188177967,140.59538881182203
926,2166.711,2.397025770676464,140.60297422932354
927,2168.872,5.389528526962437,140.61047147303756
928,2171.033,3.3821202233582426,140.61787977664176
929,2173.192,2.374801634299274,140.62519836570073
930,2175.351,3.3675735423591107,140.6324264576409
931,2177.508,1.3604367382747,140.6395632617253
932,2179.665,4.353392020971455,140.64660797902854
933,2181.822,2.346440197588265,140.65355980241173
934,2183.977,3.3395820835027052,140.6604179164973
935,2186.132,4.33281850235619,140.6671814976438
936,2188.285,4.3261502860790415,140.67384971392096
937,2190.439,2.3195782749155285,140.68042172508447
938,2192.591,2.3131033174489914,140.686896682551
939,2194.742,7.306726270627422,140.69327372937258
940,2196.893,1.3004479997877354,140.69955200021226
941,2199.043,3.294269378681463,140.70573062131854
942,2201.192,6.288191289499906,140.7118087105001
943,2203.341,6.282214622898948,140.71778537710105
944,2205.488,4.27634027802435,140.72365972197565
945,2207.635,4.270569162536731,140.72943083746327
946,2209.781,2.2649021926371518,140.73509780736285
947,2211.926,4.259340293091327,140.74065970690867
948,2214.071,4.253884397255689,140.7461156027443
949,2216.214,2.2485354471020287,140.75146455289797
950,2218.357,5.243294393242564,140.75670560675744
951,2220.499,4.238162194955237,140.76183780504476
952,2222.641,1.2331398202088337,140.76686017979117
953,2224.781,4.228228245688001,140.771771754312
954,2226.921,0.22342845681831136,140.7765715431817
955,2229.060,0.21874144779161497,140.78125855220839
956,2231.198,0.0,140.78583177840903
957,2233.336,4.209709790015779,140.79029020998422
958,2235.472,1.2053671737068044,140.7946328262932
959,2237.608,2.201141402171743,140.79885859782826
960,2239.743,7.197033513809714,140.8029664861903
961,2241.878,6.193044555936638,140.80695544406336
962,2244.011,4.189175584810869,140.81082441518913
963,2246.144,4.1854276656571585,140.81457233434284
964,2248.276,1.1818018726928585,140.81819812730714
965,2250.407,4.178299289152676,140.82170071084732
966,2252.538,0.17492100731351456,140.82507899268649
967,2254.667,4.171668128519855,140.82833187148015
968,2256.796,2.168541763209049,140.83145823679095
969,2258.924,3.1655430309359645,140.83445696906404
970,2261.052,0.16267306039850382,140.8373269396015
971,2263.178,0.15993298946253276,140.84006701053747
972,2265.304,3.157323965187061,140.84267603481294
973,2267.429,4.154847143849452,140.84515285615055
974,2269.553,4.152503690970121,140.84749630902988
975,2271.677,2.1502947813383457,140.84970521866165
976,2273.800,2.148221599036731,140.85177840096327
977,2275.921,1.1462853374666508,140.85371466253335
978,2278.043,0.0,140.85551280062657
979,2280.163,3.1428283968712094,140.8571716031288
980,2282.283,4.141310151468218,140.85868984853178
981,2284.401,2.1399336940918943,140.8600663059081
982,2286.520,4.138700265114039,140.86129973488596
983,2288.637,2.1376111143757726,140.86238888562423
984,2290.753,5.136667501212742,140.86333249878726
985,2292.869,4.135870694480332,140.86412930551967
986,2294.984,5.135221972578648,140.86477802742135
987,2297.098,3.1347226234776144,140.86527737652239
988,2299.212,3.134373944742322,140.86562605525768
989,2301.325,5.134177243557929,140.86582275644207
990,2303.437,5.1341338367547,140.8658661632453
991,2305.548,2.1342450508332433,140.86575494916676
992,2307.658,5.134512221990008,140.86548777801
993,2309.768,2.134936696141608,140.8650633038584
994,2311.877,2.135519828950578,140.86448017104942
995,2313.985,0.0,140.8637370141498
996,2316.092,3.1371675420697898,140.8628324579302
997,2318.199,4.1382348826595035,140.8617651173405
998,2320.304,2.13946640251595,140.86053359748405
999,2322.409,0.0,140.859136493593
1000,2324.514,4.142427608996741,140.85757239100326
1001,2326.617,4.144160134870788,140.8558398651292
1002,2328.720,0.0,140.8539374814383
1003,2330.822,3.148136204573575,140.85186379542642
1004,2332.923,1.1503826474072127,140.8496173525928
1005,2335.024,0.15280331158589888,140.8471966884141
1006,2337.123,2.1553996716796746,140.84460032832033
1007,2339.222,3.15817321233078,140.84182678766922
1008,2341.320,6.161125428278922,140.83887457172108
1009,2343.418,4.164257824386482,140.83574217561352
1010,2345.514,2.1675719156631033,140.8324280843369
1011,2347.610,5.1710692272910705,140.82893077270893
1012,2349.705,5.174751294650974,140.82524870534903
1013,2351.800,4.178619663345785,140.82138033665422
1014,2353.893,4.1826758892268,140.8173241107732
1015,2355.986,1.18692153841846,140.81307846158154
1016,2358.078,1.1913581873436385,140.80864181265636
1017,2360.170,6.195987422748175,140.80401257725183
1018,2362.260,2.2008108417269625,140.79918915827304
1019,2364.350,2.205830051748137,140.79416994825186
1020,2366.439,2.211046670678911,140.7889533293211
1021,2368.527,0.0,140.7835376731901
1022,2370.615,1.2220786588813155,140.77792134111868
1023,2372.702,2.2278973161070894,140.7721026838929
