pixel_index,raman_shift_cm-1,intensity
0,200.0,0.032329061424991916
1,201.0,0.010867855266206736
2,202.0,-0.001044160323523579
3,203.0,-0.00546324355069511
4,204.0,-0.004445652621803951
5,205.0,-4.764574334600654e-05
6,206.0,0.002018017367792941
7,207.0,0.007791289533336196
8,208.0,0.009712816770203522
9,209.0,0.00789228531504723
10,210.0,0.006327887217405943
11,211.0,0.005725967555429403
12,212.0,0.002112322855855101
13,213.0,0.0028470513722113127
14,214.0,0.0038721467946875475
15,215.0,0.006742183715639232
16,216.0,0.009141549698020047
17,217.0,0.012108698208861944
18,218.0,0.012423693897184455
19,219.0,0.013480999270939535
20,220.0,0.013550907280562699
21,221.0,0.01065581774271663
22,222.0,0.008013500597444658
23,223.0,0.004871493931590637
24,224.0,0.005501494469443185
25,225.0,0.007733511185084097
26,226.0,0.007419977171415614
27,227.0,0.008480356038856256
28,228.0,0.010051235081571755
29,229.0,0.012573050791186096
30,230.0,0.011801933630921756
31,231.0,0.012258608977800334
32,232.0,0.01623697277951174
33,233.0,0.015030819380683484
34,234.0,0.014745713265847383
35,235.0,0.013412295526840638
36,236.0,0.011882839189872384
37,237.0,0.009066776334616125
38,238.0,0.007444366080660679
39,239.0,0.007013341672452524
40,240.0,0.007492641895958001
41,241.0,0.006152705827840954
42,242.0,0.0029191073717580733
43,243.0,-0.002191080084677065
44,244.0,-0.0027195500668352863
45,245.0,0.0009706966583978568
46,246.0,0.005522733865592196
47,247.0,0.007378532465064803
48,248.0,0.012319108203064196
49,249.0,0.016004297863080958
50,250.0,0.01801735225810746
51,251.0,0.014903935410856868
52,252.0,0.014241457265894781
53,253.0,0.014159404485578436
54,254.0,0.011455872532405424
55,255.0,0.012051853816784985
56,256.0,0.009582177661435806
57,257.0,0.007470287269884361
58,258.0,0.004614520143071666
59,259.0,0.004846833887015846
60,260.0,0.0013605435919446507
61,261.0,-0.00046194680170587164
62,262.0,0.0028616328144673822
63,263.0,0.004960779901073499
64,264.0,0.0028323688955377525
65,265.0,0.0012829404530624886
66,266.0,0.00216858192004329
67,267.0,0.0024329865118642557
68,268.0,0.004335640122408588
69,269.0,0.0058992982383431185
70,270.0,0.004799832230934605
71,271.0,0.009041551648567066
72,272.0,0.012100279158900426
73,273.0,0.013773559991673245
74,274.0,0.01081804297209484
75,275.0,0.00854056560444195
76,276.0,0.010061506106147896
77,277.0,0.009934612456899125
78,278.0,0.009245250792056854
79,279.0,0.006177671845717651
80,280.0,0.008094672833781603
81,281.0,0.006469169501844536
82,282.0,0.004038408255924028
83,283.0,0.004507888270767251
84,284.0,0.0028031976251125996
85,285.0,0.000318138248908313
86,286.0,-0.0006774700460523743
87,287.0,-0.000532220568271537
88,288.0,-0.0037895424024672122
89,289.0,-0.0006413196353051338
90,290.0,0.003294194894438176
91,291.0,0.007258137529002153
92,292.0,0.008156503685750362
93,293.0,0.012052140376096108
94,294.0,0.010519049705830626
95,295.0,0.007186927814500566
96,296.0,0.006462577027898275
97,297.0,0.0035116144349425634
98,298.0,0.0013776014412290043
99,299.0,0.0031959326158478704
100,300.0,0.005135511425595739
101,301.0,0.007838908129615303
102,302.0,0.006958461074597679
103,303.0,0.013590072264234981
104,304.0,0.014019345130906176
105,305.0,0.012504568112665027
106,306.0,0.013624271526332532
107,307.0,0.010825136027995811
108,308.0,0.008838270414767434
109,309.0,0.005827484409658579
110,310.0,0.00334151812540679
111,311.0,-0.0003319714139686101
112,312.0,0.004373350329601599
113,313.0,0.010641002241400953
114,314.0,0.008950172127648395
115,315.0,0.00823666997624896
116,316.0,0.013199079469331765
117,317.0,0.011970327268425741
118,318.0,0.011110104964362955
119,319.0,0.009373487700266532
120,320.0,0.006409406806767113
121,321.0,0.004329921351440882
122,322.0,0.007633437841234527
123,323.0,0.00786347909277023
124,324.0,0.006932416568132759
125,325.0,0.008781464598863515
126,326.0,0.009898993714091284
127,327.0,0.011952620277459245
128,328.0,0.011863609362760454
129,329.0,0.012587399105384749
130,330.0,0.015495832961181075
131,331.0,0.013974792206028987
132,332.0,0.01261536186644029
133,333.0,0.010604464409663306
134,334.0,0.007013924337902107
135,335.0,0.002522331962493098
136,336.0,-2.9509932608817542e-05
137,337.0,0.001884249057672065
138,338.0,0.002941689302259577
139,339.0,0.00818941801114612
140,340.0,0.011270356182824298
141,341.0,0.013487317728152952
142,342.0,0.016931940790319504
143,343.0,0.016545823116204776
144,344.0,0.013595361492445538
145,345.0,0.009910040864020156
146,346.0,0.007873846318743348
147,347.0,0.008726964031155474
148,348.0,0.009248103113926534
149,349.0,0.007098809504233323
150,350.0,0.005145274301391447
151,351.0,0.011303187488451638
152,352.0,0.012599896187013205
153,353.0,0.0119391981040454
154,354.0,0.008821942689758113
155,355.0,0.005811974792686091
156,356.0,0.003780531332024963
157,357.0,0.0011332481776867313
158,358.0,0.0008843353195675381
159,359.0,0.00046216290572324826
160,360.0,0.0036322307662454032
161,361.0,0.00901086643963631
162,362.0,0.007492138378670169
163,363.0,0.010479939695891288
164,364.0,0.010922631792127938
165,365.0,0.01214953550927206
166,366.0,0.01124187215461601
167,367.0,0.009798805889006014
168,368.0,0.008887733978409933
169,369.0,0.012020514863874676
170,370.0,0.008679123767553216
171,371.0,0.009810259715775455
172,372.0,0.008625673321656313
173,373.0,0.0107236659298644
174,374.0,0.009994989852254516
175,375.0,0.010400737780118022
176,376.0,0.008665511003069188
177,377.0,0.00815309958288788
178,378.0,0.002037115113024116
179,379.0,0.002637366061030443
180,380.0,-0.004494289217885592
181,381.0,-0.0005663889986258473
182,382.0,0.0005577674070294535
183,383.0,0.00011201548532230894
184,384.0,-0.0013901423780886526
185,385.0,0.0022532941997544962
186,386.0,0.004834786363069658
187,387.0,0.007617521072594132
188,388.0,0.006372687462447096
189,389.0,0.009097822355959465
190,390.0,0.00861301596978508
191,391.0,0.012122407140681897
192,392.0,0.010354680227973591
193,393.0,0.007004857235806744
194,394.0,0.002064258621348059
195,395.0,-0.0004776272458209635
196,396.0,0.0009889927592467735
197,397.0,-0.0016306169514815792
198,398.0,-0.0039539852750060025
199,399.0,-0.002005323704403384
200,400.0,-0.0016855422191945284
201,401.0,-0.0006718984066806931
202,402.0,0.001923582529222307
203,403.0,0.0033193601544877216
204,404.0,0.0028420290618419095
205,405.0,0.004189704189870053
206,406.0,0.009991575654749393
207,407.0,0.008891738331552986
208,408.0,0.008564208062001628
209,409.0,0.0077591701585142695
210,410.0,0.0054162642366388574
211,411.0,0.0062868457083966635
212,412.0,0.009617102863569893
213,413.0,0.011113679077713682
214,414.0,0.012658018742913228
215,415.0,0.014131334678329072
216,416.0,0.014751075802776077
217,417.0,0.015614619653001089
218,418.0,0.015866026579211445
219,419.0,0.011994708391881152
220,420.0,0.009671475484571541
221,421.0,0.008733862349052726
222,422.0,0.008850670058258202
223,423.0,0.012923246716963304
224,424.0,0.01100576846619766
225,425.0,0.01039335690586333
226,426.0,0.00943867312383494
227,427.0,0.010845459435176574
228,428.0,0.010587841937713846
229,429.0,0.009199116124871308
230,430.0,0.011014243047844654
231,431.0,0.010403935969301111
232,432.0,0.013261336822081004
233,433.0,0.015110387196131296
234,434.0,0.010539309359230352
235,435.0,0.012774600000433692
236,436.0,0.012935592324616624
237,437.0,0.012872483482373995
238,438.0,0.011202572237260535
239,439.0,0.009098694212342218
240,440.0,0.008407939451943177
241,441.0,0.0017767110246359303
242,442.0,2.946324138924964e-05
243,443.0,-0.0027036278208527414
244,444.0,-0.005480095732431636
245,445.0,0.0005446850632014043
246,446.0,0.0066882979593130805
247,447.0,0.008796338621938777
248,448.0,0.008933514619848246
249,449.0,0.011366662791970747
250,450.0,0.011917140839908904
251,451.0,0.005307047266044438
252,452.0,0.004078997102423614
253,453.0,0.001637274338906723
254,454.0,9.554813431387472e-06
255,455.0,0.0034935426196577076
256,456.0,0.004898290376003845
257,457.0,0.0006783682705581113
258,458.0,0.002090999723844527
259,459.0,0.0025957412868537087
260,460.0,0.0035321488386043038
261,461.0,1.9317258192547747e-05
262,462.0,0.0010344718974912553
263,463.0,0.003199088228305828
264,464.0,0.004732721871131815
265,465.0,0.006896025318959358
266,466.0,0.0069445260694137294
267,467.0,0.007235695210307644
268,468.0,0.01077701948908832
269,469.0,0.011051724885796319
270,470.0,0.00898750678372343
271,471.0,0.005518689993514739
272,472.0,0.005949161325193507
273,473.0,0.00715619098036303
274,474.0,0.00464152475122138
275,475.0,0.004090745556108521
276,476.0,0.0037435061291563607
277,477.0,0.0053930691382013994
278,478.0,0.006608876420690986
279,479.0,0.005400811514605052
280,480.0,0.00270853276331197
281,481.0,0.0039894704364356595
282,482.0,0.0073897689352620905
283,483.0,0.010586924425324332
284,484.0,0.01142854342417243
285,485.0,0.012388214889452197
286,486.0,0.010431389484729131
287,487.0,0.007247515391304532
288,488.0,0.0027321413512066284
289,489.0,-0.0008042424322659599
290,490.0,-0.0014895472270886193
291,491.0,-0.0002471568991876985
292,492.0,0.005006096219767376
293,493.0,0.01080288448527436
294,494.0,0.012924960236630359
295,495.0,0.01651258676055777
296,496.0,0.014409426271110483
297,497.0,0.01207606747338313
298,498.0,0.010261628726872753
299,499.0,0.0073449253605031815
300,500.0,0.00434377015376966
301,501.0,0.004789341705561756
302,502.0,0.006290490206486093
303,503.0,0.005964277654969721
304,504.0,0.005487229051338878
305,505.0,0.009920972840544016
306,506.0,0.00907563172251541
307,507.0,0.01029505734217619
308,508.0,0.013169090268879345
309,509.0,0.010930173650691113
310,510.0,0.011223103857241947
311,511.0,0.013342187136837689
312,512.0,0.011832625184940607
313,513.0,0.007983897865489548
314,514.0,0.008013116344132433
315,515.0,0.009925423144546834
316,516.0,0.006996169609149561
317,517.0,0.0083858574785382
318,518.0,0.008798926480796247
319,519.0,0.008074386371492607
320,520.0,0.00880982158784925
321,521.0,0.009642641977361472
322,522.0,0.008074313200235156
323,523.0,0.007529167944192324
324,524.0,0.009419220494436832
325,525.0,0.011064352893257077
326,526.0,0.009127924547476402
327,527.0,0.009673406288633751
328,528.0,0.009707741391898337
329,529.0,0.0094519841304782
330,530.0,0.0072407143911148095
331,531.0,0.006989515292896275
332,532.0,0.007125968917042841
333,533.0,0.0032638559185716887
334,534.0,0.001412442653665566
335,535.0,-0.0007702508866508176
336,536.0,-0.000897002585233432
337,537.0,0.0014912392935619231
338,538.0,0.004348791419600021
339,539.0,0.002916314060667418
340,540.0,0.003318208099290511
341,541.0,0.006826796558558655
342,542.0,0.007299615313909418
343,543.0,0.006852636558795665
344,544.0,0.0032637889415605146
345,545.0,0.0020065668538666558
346,546.0,0.006492195803421602
347,547.0,0.00867705263356342
348,548.0,0.011113735143427854
349,549.0,0.010308567113732025
350,550.0,0.010064764366057624
351,551.0,0.017770666643500695
352,552.0,0.01763458087348449
353,553.0,0.01782193215458223
354,554.0,0.008798527352939893
355,555.0,0.005748567597491798
356,556.0,0.00505049167227422
357,557.0,0.002706609737740616
358,558.0,0.0051412236110205175
359,559.0,0.0051284082195001655
360,560.0,0.004936054065136659
361,561.0,0.010021051268411645
362,562.0,0.006792333234071788
363,563.0,0.007654941745404996
364,564.0,0.0033954105268827186
365,565.0,0.0038061643270068447
366,566.0,0.0042378059584440245
367,567.0,0.00571722502599981
368,568.0,0.009698738981479505
369,569.0,0.007372697695522463
370,570.0,0.00982990942811877
371,571.0,0.008697337960078403
372,572.0,0.008858880654558745
373,573.0,0.01053802240400552
374,574.0,0.007788944027810886
375,575.0,0.006763005498510367
376,576.0,0.007094505881734009
377,577.0,0.0057333616713249914
378,578.0,0.009891479635968446
379,579.0,0.0074954430196005626
380,580.0,0.011104906109053963
381,581.0,0.009142919715184128
382,582.0,0.009283427799936104
383,583.0,0.009068457961375854
384,584.0,0.0039681898312751
385,585.0,0.0031320712095823113
386,586.0,0.00883013887498818
387,587.0,0.006763664833368917
388,588.0,0.014270861968088433
389,589.0,0.01365381623000788
390,590.0,0.018316559626896545
391,591.0,0.0174469454793893
392,592.0,0.017203717067614407
393,593.0,0.01692349965135787
394,594.0,0.011417389310769436
395,595.0,0.010614721794003098
396,596.0,0.010783879347187808
397,597.0,0.0072071228775959515
398,598.0,0.008157404393063766
399,599.0,0.007560780847335321
400,600.0,0.013929775893464445
401,601.0,0.015277496841722296
402,602.0,0.01795143151392558
403,603.0,0.01985951448432405
404,604.0,0.021097445838061522
405,605.0,0.019567053063326928
406,606.0,0.02199442974526627
407,607.0,0.024024472373239625
408,608.0,0.024003896456855252
409,609.0,0.023294044778422104
410,610.0,0.02872204916149768
411,611.0,0.03242392558532851
412,612.0,0.035280977466778544
413,613.0,0.037118201646028165
414,614.0,0.04149373896505666
415,615.0,0.04311939019415254
416,616.0,0.051954122440931214
417,617.0,0.062486398692124155
418,618.0,0.069674903941426
419,619.0,0.07212027475592482
420,620.0,0.07871152293156622
421,621.0,0.08078032878535542
422,622.0,0.07527629666994418
423,623.0,0.07029904462011927
424,624.0,0.062331275938556266
425,625.0,0.05542390156585131
426,626.0,0.04746628976742832
427,627.0,0.04393895627529813
428,628.0,0.03759505590416841
429,629.0,0.030082960722731495
430,630.0,0.028252180449996413
431,631.0,0.024763499123960524
432,632.0,0.019239627993779075
433,633.0,0.01672773949198411
434,634.0,0.013274713856080766
435,635.0,0.01247297802434703
436,636.0,0.00986927114520495
437,637.0,0.009833141619156214
438,638.0,0.01185732912286253
439,639.0,0.009378742549923675
440,640.0,0.010570200171641602
441,641.0,0.011579809432237093
442,642.0,0.01238557788373524
443,643.0,0.01333444000526736
444,644.0,0.012333567749722616
445,645.0,0.01516511172055202
446,646.0,0.016162151149158935
447,647.0,0.01626189863899826
448,648.0,0.018814794555902195
449,649.0,0.013046550017091459
450,650.0,0.008280631065548294
451,651.0,0.007288689014633664
452,652.0,0.005836514136638605
453,653.0,0.0060379398031932124
454,654.0,0.0042164274423458796
455,655.0,0.006747015744731862
456,656.0,0.008183314204678372
457,657.0,0.009818517935514219
458,658.0,0.011171647802937897
459,659.0,0.010312497815924427
460,660.0,0.008175188810486744
461,661.0,0.007894419626213046
462,662.0,0.006744122444168248
463,663.0,0.00644232609412881
464,664.0,0.005089978357751864
465,665.0,0.005436816656166138
466,666.0,0.0047432722016361685
467,667.0,0.0027884916154934498
468,668.0,0.0010654633846514652
469,669.0,0.0012245169620583877
470,670.0,0.0007561155469073062
471,671.0,0.0010717872798746207
472,672.0,0.0026118173290455107
473,673.0,0.002296413592519447
474,674.0,0.0025184684031567765
475,675.0,0.004790941615793939
476,676.0,0.00498192358889986
477,677.0,0.0067857622692767215
478,678.0,0.004422770878591106
479,679.0,0.004006952475620064
480,680.0,0.005348853352897585
481,681.0,0.0050771118247728226
482,682.0,0.005228129478271702
483,683.0,0.00592976242629981
484,684.0,0.009542164526253593
485,685.0,0.011486422656405685
486,686.0,0.01203535062543617
487,687.0,0.014377742409056702
488,688.0,0.015232299787004024
489,689.0,0.014070718012167055
490,690.0,0.016189185214445
491,691.0,0.014374012158610113
492,692.0,0.0128292828815644
493,693.0,0.013017708569600519
494,694.0,0.01190408377384457
495,695.0,0.00967912238661956
496,696.0,0.006649128401727597
497,697.0,0.004778850622641862
498,698.0,0.002512012139372316
499,699.0,0.0019943972725328047
500,700.0,0.003886133616874457
501,701.0,0.0036377854890315676
502,702.0,0.0037652229729099396
503,703.0,0.003696902637490184
504,704.0,0.005972073139452544
505,705.0,0.0059036557819265615
506,706.0,0.004241488333238385
507,707.0,0.0033089546536197085
508,708.0,0.005086591198642645
509,709.0,0.008087010110373206
510,710.0,0.009511603501904527
511,711.0,0.012202288160107155
512,712.0,0.01494368524961803
513,713.0,0.017242521239279596
514,714.0,0.014961027813239658
515,715.0,0.010452826012887488
516,716.0,0.008283993846267861
517,717.0,0.007928276136772806
518,718.0,0.00460113861706744
519,719.0,0.0013452392378420952
520,720.0,0.00011355158095014533
521,721.0,0.0007478428962291151
522,722.0,0.0010955325726273676
523,723.0,0.000809156204242905
524,724.0,0.0005397086870040545
525,725.0,0.003110645033957449
526,726.0,0.005753627137000584
527,727.0,0.006911835690593429
528,728.0,0.0071666033457502346
529,729.0,0.010891501899084298
530,730.0,0.010828576503199929
531,731.0,0.010292402125148111
532,732.0,0.007893127954342972
533,733.0,0.006305161306767044
534,734.0,0.0061047627237742754
535,735.0,0.004725254068602563
536,736.0,0.003387233172145109
537,737.0,0.0019800493269234343
538,738.0,0.0025356014483039527
539,739.0,0.004343218097044503
540,740.0,0.0047576953431083605
541,741.0,0.004392800675692509
542,742.0,0.003801219173443899
543,743.0,0.002398753394699277
544,744.0,0.007008995594063728
545,745.0,0.010029706788063437
546,746.0,0.013428216172764544
547,747.0,0.013449745231430148
548,748.0,0.012727346654641626
549,749.0,0.008111221667756052
550,750.0,0.004784164703258427
551,751.0,0.0005714023428278195
552,752.0,-0.0019693089706002273
553,753.0,-0.004179547542724491
554,754.0,-0.0012728850463227072
555,755.0,0.0024372906104073717
556,756.0,0.004766741598215672
557,757.0,0.005823366314891323
558,758.0,0.005069267334946093
559,759.0,0.004045916786149674
560,760.0,0.006855061323181154
561,761.0,0.010223701160269168
562,762.0,0.012488541740413212
563,763.0,0.008200778474534404
564,764.0,0.0031566343865420963
565,765.0,0.004081356491073037
566,766.0,-0.0003337426910489361
567,767.0,-0.00033557429106990906
568,768.0,-0.00212649867067551
569,769.0,0.0012925261716305837
570,770.0,0.006277456054996993
571,771.0,0.011017632976442093
572,772.0,0.0127477605952975
573,773.0,0.01015612719584253
574,774.0,0.009122977734247965
575,775.0,0.013252749767989618
576,776.0,0.010391597784930495
577,777.0,0.009386418193014898
578,778.0,0.007826698854175904
579,779.0,0.004441604968138191
580,780.0,0.0033460668245007706
581,781.0,0.0023596182979814294
582,782.0,0.0020017078119239115
583,783.0,0.005043236901374025
584,784.0,0.00765687420386134
585,785.0,0.009938067835437074
586,786.0,0.007552378070043171
587,787.0,0.010049052918677545
588,788.0,0.012541869366198092
589,789.0,0.01326618005847743
590,790.0,0.014560799136816701
591,791.0,0.014630310949050769
592,792.0,0.014539601050240455
593,793.0,0.015621337473254338
594,794.0,0.012866833757626601
595,795.0,0.009179273442455262
596,796.0,0.004423283517754046
597,797.0,0.005534923401027853
598,798.0,0.005054589827131778
599,799.0,0.005223275736878009
600,800.0,0.006063053749856837
601,801.0,0.0063590992572007034
602,802.0,0.008237774792816783
603,803.0,0.009531118514937157
604,804.0,0.007508487651757605
605,805.0,0.007097952351278444
606,806.0,0.005204354828538329
607,807.0,0.001987287269229172
608,808.0,0.0031188613614361056
609,809.0,0.003648850549398905
610,810.0,0.0033213823674752715
611,811.0,0.005248156349901412
612,812.0,0.008556062537726073
613,813.0,0.008134097338369109
614,814.0,0.00827644574601623
615,815.0,0.008532093458971416
616,816.0,0.007577251948303785
617,817.0,0.006800626162026325
618,818.0,0.01427920300647319
619,819.0,0.01624793561697403
620,820.0,0.01758973495540604
621,821.0,0.020188883372906793
622,822.0,0.02274541315355198
623,823.0,0.019625218955838013
624,824.0,0.019550406816355087
625,825.0,0.015516084075798527
626,826.0,0.010861033629072274
627,827.0,0.008909955056760956
628,828.0,0.007979417417046934
629,829.0,0.0073976029419879465
630,830.0,0.004526211321615523
631,831.0,0.0033772507850099794
632,832.0,0.007562029521177443
633,833.0,0.007536352269530503
634,834.0,0.009503608855941124
635,835.0,0.013101845317625874
636,836.0,0.013836914902336038
637,837.0,0.016265028039040914
638,838.0,0.016928804207854472
639,839.0,0.01469631619262955
640,840.0,0.013196323067855353
641,841.0,0.012795274667117374
642,842.0,0.01198865079369586
643,843.0,0.012065185957096844
644,844.0,0.011105037574591803
645,845.0,0.012013954256884458
646,846.0,0.012918094310391601
647,847.0,0.011347303393358968
648,848.0,0.010771275223825903
649,849.0,0.008247253944884255
650,850.0,0.009280912828899441
651,851.0,0.008617339802249607
652,852.0,0.004559112520934679
653,853.0,0.0033826053508406602
654,854.0,0.00011271515941902305
655,855.0,-0.0015679678146828923
656,856.0,0.00020155862996792007
657,857.0,0.0017607106113689429
658,858.0,0.00488644297373562
659,859.0,0.007341774685276345
660,860.0,0.009959940172370367
661,861.0,0.012917678508432012
662,862.0,0.012195981108076051
663,863.0,0.009797049301972432
664,864.0,0.0075156131613568515
665,865.0,0.008211604647281994
666,866.0,0.007790538725079589
667,867.0,0.008848922795844108
668,868.0,0.009295120383757908
669,869.0,0.011574883355703768
670,870.0,0.014637028767276574
671,871.0,0.015330082165999239
672,872.0,0.014806835350634016
673,873.0,0.013613938816373518
674,874.0,0.011539135488650182
675,875.0,0.011587087840293487
676,876.0,0.01346966804004683
677,877.0,0.014225777718315335
678,878.0,0.013828522342144135
679,879.0,0.013407922148515689
680,880.0,0.01377528048655792
681,881.0,0.011089591091813525
682,882.0,0.008380475274593742
683,883.0,0.0075770545223150885
684,884.0,0.0029721462449431336
685,885.0,0.0017876752066989484
686,886.0,0.005294175863956386
687,887.0,0.0032147292779715676
688,888.0,0.0018681183827633624
689,889.0,-0.001539568466313999
690,890.0,0.0010927515831236183
691,891.0,0.0015555008264026464
692,892.0,0.0001892627198278237
693,893.0,-6.382653463781481e-05
694,894.0,-0.0033621658757466855
695,895.0,-0.004398857846087163
696,896.0,-0.005968482415660314
697,897.0,-0.0057025001124947385
698,898.0,-0.004891394510097113
699,899.0,-0.0055618754505356695
700,900.0,0.0016443819555035238
701,901.0,0.0008633982100166425
702,902.0,0.00048238029259674563
703,903.0,0.0030392196038967127
704,904.0,0.004919053097815348
705,905.0,0.007178036918761678
706,906.0,0.007455913248509396
707,907.0,0.008889569675489324
708,908.0,0.009089247843635382
709,909.0,0.008086142355914738
710,910.0,0.01033274524018869
711,911.0,0.006762051000274722
712,912.0,0.00201213389702326
713,913.0,0.0019676178886536247
714,914.0,0.003544966495995838
715,915.0,0.003813414985440051
716,916.0,0.0030640908460749083
717,917.0,0.0035703242748091235
718,918.0,0.005105572870689254
719,919.0,0.00611110369737296
720,920.0,0.012380042851888677
721,921.0,0.01374475259915569
722,922.0,0.009044223126910828
723,923.0,0.0117618198384266
724,924.0,0.007797125274835088
725,925.0,0.006944770355305312
726,926.0,0.0068406139444294
727,927.0,0.007232474501495372
728,928.0,0.007659773960211475
729,929.0,0.006904422612016049
730,930.0,0.01245396466375943
731,931.0,0.012039132035993935
732,932.0,0.012127609905713498
733,933.0,0.011810676792102836
734,934.0,0.0068508604243655005
735,935.0,0.00452338282139943
736,936.0,0.0026364739350756322
737,937.0,0.0014445534965985226
738,938.0,0.004407010332199212
739,939.0,0.002327249680167845
740,940.0,0.007803596516968798
741,941.0,0.007409773138042756
742,942.0,0.011780212141483469
743,943.0,0.013000405515181567
744,944.0,0.012216764087700444
745,945.0,0.008344929944714651
746,946.0,0.006979160893343561
747,947.0,0.007926651230591594
748,948.0,0.009899271421177322
749,949.0,0.008445635921988026
750,950.0,0.013599838180790892
751,951.0,0.01319002516770553
752,952.0,0.016473416411458226
753,953.0,0.015894686540476786
754,954.0,0.013279875622954972
755,955.0,0.011242400908307701
756,956.0,0.00726284818598312
757,957.0,0.005353444282834784
758,958.0,0.0011869563425068095
759,959.0,0.00313904178598182
760,960.0,0.005179874071629087
761,961.0,0.006914685822823813
762,962.0,0.007137663340161652
763,963.0,0.008738725567935176
764,964.0,0.011195149119592471
765,965.0,0.01449951881734086
766,966.0,0.014944932733350643
767,967.0,0.016610793750755845
768,968.0,0.013190747322504505
769,969.0,0.016428889220925096
770,970.0,0.01597438806462625
771,971.0,0.013566499480997701
772,972.0,0.013975753836811893
773,973.0,0.015697348651511428
774,974.0,0.013943907931312992
775,975.0,0.013185074156046488
776,976.0,0.014651993725260814
777,977.0,0.01746829844239686
778,978.0,0.017111500271205286
779,979.0,0.020413179299232465
780,980.0,0.023002821410300047
781,981.0,0.021660478753831112
782,982.0,0.027770349252434934
783,983.0,0.02665069062054043
784,984.0,0.026961066830084212
785,985.0,0.026877325377235466
786,986.0,0.029276211596670904
787,987.0,0.03216238872719395
788,988.0,0.035629741637700746
789,989.0,0.04286102032649051
790,990.0,0.05092142825684336
791,991.0,0.059231119274798905
792,992.0,0.067589167764567
793,993.0,0.0748674958703369
794,994.0,0.08764673092599448
795,995.0,0.09956733286183285
796,996.0,0.1114218145501817
797,997.0,0.1260525241729414
798,998.0,0.14572279125274804
799,999.0,0.165608782732981
800,1000.0,0.1771088378225084
801,1001.0,0.1818061823293696
802,1002.0,0.17841730175412146
803,1003.0,0.16873790433137031
804,1004.0,0.15502468290504345
805,1005.0,0.13940457374117482
806,1006.0,0.11988656464172308
807,1007.0,0.10285911596103799
808,1008.0,0.09491616076302344
809,1009.0,0.08440027484389864
810,1010.0,0.07223697813165626
811,1011.0,0.06248189690807954
812,1012.0,0.05278424356152212
813,1013.0,0.04573245926010224
814,1014.0,0.040942370820634934
815,1015.0,0.0417408337348513
816,1016.0,0.039908698385996415
817,1017.0,0.0425082418452433
818,1018.0,0.0478764367945797
819,1019.0,0.0509235529976635
820,1020.0,0.05123438016058185
821,1021.0,0.05431814571129972
822,1022.0,0.05400162486338117
823,1023.0,0.05668047974104604
824,1024.0,0.06203921348119253
825,1025.0,0.06549856672010826
826,1026.0,0.06921343519069197
827,1027.0,0.08029001823800462
828,1028.0,0.09236383348733487
829,1029.0,0.10100179989692952
830,1030.0,0.10589016031346729
831,1031.0,0.11001195260579581
832,1032.0,0.1076566769590122
833,1033.0,0.10143008536887307
834,1034.0,0.09145412082128304
835,1035.0,0.07792375937470469
836,1036.0,0.06722572240845293
837,1037.0,0.058103750124941525
838,1038.0,0.05339724142413472
839,1039.0,0.04447176841517434
840,1040.0,0.03905157430800053
841,1041.0,0.03420732739384922
842,1042.0,0.03297289154135687
843,1043.0,0.030729013727253937
844,1044.0,0.024846676125509233
845,1045.0,0.024404247470453118
846,1046.0,0.02371214699748069
847,1047.0,0.021244775368557397
848,1048.0,0.02141153397279843
849,1049.0,0.017434652936022362
850,1050.0,0.014814355454319805
851,1051.0,0.015628211518594504
852,1052.0,0.017761081231076607
853,1053.0,0.01589720743529872
854,1054.0,0.009912406714943922
855,1055.0,0.009446975018362395
856,1056.0,0.010622465400659642
857,1057.0,0.01114493588954971
858,1058.0,0.01050473188398112
859,1059.0,0.01230270042646417
860,1060.0,0.014868069230293319
861,1061.0,0.02045953598246149
862,1062.0,0.024499599446741654
863,1063.0,0.020099980723706525
864,1064.0,0.01617474599047767
865,1065.0,0.015354265000585874
866,1066.0,0.01409368241142476
867,1067.0,0.014328611651529216
868,1068.0,0.010319131274241465
869,1069.0,0.010466352267966845
870,1070.0,0.007585974258036438
871,1071.0,0.009293785708994019
872,1072.0,0.007661927672797924
873,1073.0,0.002728817915061299
874,1074.0,0.004218242388132566
875,1075.0,0.004223945033217834
876,1076.0,0.007070093037298506
877,1077.0,0.009261107894242901
878,1078.0,0.010687655010493995
879,1079.0,0.013199274397915196
880,1080.0,0.015680968256756283
881,1081.0,0.01545024839585938
882,1082.0,0.01757584746417835
883,1083.0,0.019888542293231934
884,1084.0,0.020148393825332813
885,1085.0,0.019386830093350262
886,1086.0,0.02032623927806864
887,1087.0,0.019357304823534646
888,1088.0,0.020817515786822272
889,1089.0,0.01879491480005445
890,1090.0,0.020759311333546717
891,1091.0,0.01400700279757458
892,1092.0,0.013892458788564831
893,1093.0,0.008836576079990013
894,1094.0,0.008197849384721984
895,1095.0,0.008676303430636806
896,1096.0,0.00791355284197886
897,1097.0,0.01119264688576869
898,1098.0,0.011865743693389734
899,1099.0,0.012356820067084275
900,1100.0,0.013589219439467115
901,1101.0,0.010826216431707437
902,1102.0,0.0102508646628383
903,1103.0,0.011551280739442057
904,1104.0,0.014673729620092738
905,1105.0,0.014962768005146268
906,1106.0,0.01539375331247893
907,1107.0,0.013456676613691746
908,1108.0,0.00808131732799101
909,1109.0,0.004308009841860584
910,1110.0,0.0015887477494921924
911,1111.0,0.0025462944974701716
912,1112.0,0.0017230266745761286
913,1113.0,0.004704530462669638
914,1114.0,0.007127918016757833
915,1115.0,0.007537032785905332
916,1116.0,0.007753138314136497
917,1117.0,0.00829136431568101
918,1118.0,0.009521440966140899
919,1119.0,0.009767168383643568
920,1120.0,0.00950658341118059
921,1121.0,0.00938736793973327
922,1122.0,0.009915324001384071
923,1123.0,0.010285247883020926
924,1124.0,0.009140580123306874
925,1125.0,0.006993986681909043
926,1126.0,0.007482290681519487
927,1127.0,0.009004145080277175
928,1128.0,0.00984247503572546
929,1129.0,0.01185088579335849
930,1130.0,0.011412728880870008
931,1131.0,0.012015403445323147
932,1132.0,0.01257343934024623
933,1133.0,0.010233979291441288
934,1134.0,0.00795019465360434
935,1135.0,0.006580695368817189
936,1136.0,0.005830092425362235
937,1137.0,0.006218356083042185
938,1138.0,0.010948962739906755
939,1139.0,0.012287401455224885
940,1140.0,0.013562387856209075
941,1141.0,0.01199946961574324
942,1142.0,0.009303713915937699
943,1143.0,0.010669943235165636
944,1144.0,0.010725178469028297
945,1145.0,0.010107992134208552
946,1146.0,0.012494633645380403
947,1147.0,0.021275121405605127
948,1148.0,0.0278084709127206
949,1149.0,0.03204971352017682
950,1150.0,0.03637390398140198
951,1151.0,0.034847510677320295
952,1152.0,0.03664967306352009
953,1153.0,0.039459660102792116
954,1154.0,0.04128597805770344
955,1155.0,0.041515986628467165
956,1156.0,0.042210087356805384
957,1157.0,0.04384670976142888
958,1158.0,0.03978009585019515
959,1159.0,0.03778715488121228
960,1160.0,0.033979976032685336
961,1161.0,0.02889856468531004
962,1162.0,0.02480944240775085
963,1163.0,0.022282355489846386
964,1164.0,0.019742662747960157
965,1165.0,0.018539588183509904
966,1166.0,0.018469349287355514
967,1167.0,0.015297820905794849
968,1168.0,0.011585659791605734
969,1169.0,0.00978633805041584
970,1170.0,0.010300752662512524
971,1171.0,0.01027095071433585
972,1172.0,0.011960358393392512
973,1173.0,0.01285300867476824
974,1174.0,0.013494624537047478
975,1175.0,0.014871137650098048
976,1176.0,0.016045504322078775
977,1177.0,0.013518729994647262
978,1178.0,0.012286241589097718
979,1179.0,0.010902461705112634
980,1180.0,0.01042503521272112
981,1181.0,0.009264575638566029
982,1182.0,0.01073795001261626
983,1183.0,0.01501245665276019
984,1184.0,0.017847300535710087
985,1185.0,0.016141517446977078
986,1186.0,0.015113844227441428
987,1187.0,0.010880340551761859
988,1188.0,0.007654804642356946
989,1189.0,0.004823633328266764
990,1190.0,-8.691755789758208e-05
991,1191.0,-0.006860403873568946
992,1192.0,-0.00466894661216947
993,1193.0,0.0016215864556948661
994,1194.0,0.002839003878898012
995,1195.0,0.004327271987237542
996,1196.0,0.010318153181020454
997,1197.0,0.011613957670467698
998,1198.0,0.014484142536831343
999,1199.0,0.014655996858693683
1000,1200.0,0.009847736301431228
1001,1201.0,0.004596232124019195
1002,1202.0,0.0047400389737639655
1003,1203.0,0.003575878864189488
1004,1204.0,0.003398734791441582
1005,1205.0,0.009029646396839622
1006,1206.0,0.012976289385928635
1007,1207.0,0.013477546268971201
1008,1208.0,0.017524986973515802
1009,1209.0,0.015071093799035063
1010,1210.0,0.013309281969405538
1011,1211.0,0.010453591300742169
1012,1212.0,0.009995696942740625
1013,1213.0,0.00759648179933955
1014,1214.0,0.00467831965026177
1015,1215.0,0.005970439300759469
1016,1216.0,0.0009094921835668489
1017,1217.0,0.0014416694253645394
1018,1218.0,0.003553794647215212
1019,1219.0,0.004193050967975766
1020,1220.0,0.003238375105548318
1021,1221.0,0.003065596292023955
1022,1222.0,0.004757520125333477
1023,1223.0,0.0048533571464639625
1024,1224.0,0.004289006314780869
1025,1225.0,0.007923583371577819
1026,1226.0,0.007271440916917128
1027,1227.0,0.010238050748918986
1028,1228.0,0.01214561381541792
1029,1229.0,0.011472078079596921
1030,1230.0,0.009687506432358514
1031,1231.0,0.008933879398346375
1032,1232.0,0.005946040744531353
1033,1233.0,0.008586758063507312
1034,1234.0,0.010357128147389148
1035,1235.0,0.010075874550024988
1036,1236.0,0.007575075219364429
1037,1237.0,0.008723430471951954
1038,1238.0,0.006989583183473619
1039,1239.0,0.006869457557635797
1040,1240.0,0.008757663601281593
1041,1241.0,0.008802758829662829
1042,1242.0,0.006644448269129392
1043,1243.0,0.011970911136554982
1044,1244.0,0.009088088587363308
1045,1245.0,0.005280235750425058
1046,1246.0,0.0041068092726585315
1047,1247.0,0.003790021611920436
1048,1248.0,0.0007698911787896109
1049,1249.0,0.005874006121540963
1050,1250.0,0.004352032695613102
1051,1251.0,0.008676329249728018
1052,1252.0,0.008586319401713472
1053,1253.0,0.009163937024734618
1054,1254.0,0.004146774466499335
1055,1255.0,0.003852494144983665
1056,1256.0,0.001977974173323573
1057,1257.0,0.0022349307074848927
1058,1258.0,0.003901071195446747
1059,1259.0,0.009773343261342484
1060,1260.0,0.009742857001010711
1061,1261.0,0.011986063866651558
1062,1262.0,0.010948184669829938
1063,1263.0,0.011314194728554943
1064,1264.0,0.00944266970538045
1065,1265.0,0.0078079628860150685
1066,1266.0,0.0037530804068591334
1067,1267.0,0.005202911348975868
1068,1268.0,0.00802449008687207
1069,1269.0,0.00917526097304922
1070,1270.0,0.011032710998073335
1071,1271.0,0.005683416543150561
1072,1272.0,0.00204719064863136
1073,1273.0,4.207613547300216e-05
1074,1274.0,-0.003943820274386526
1075,1275.0,-0.0033066717308239007
1076,1276.0,-0.004219765129799118
1077,1277.0,6.540756166400229e-05
1078,1278.0,0.007415906351366247
1079,1279.0,0.010720132033294232
1080,1280.0,0.015404653353924637
1081,1281.0,0.01005384390744195
1082,1282.0,0.009123024260839094
1083,1283.0,0.007485229658364302
1084,1284.0,0.009550187847571022
1085,1285.0,0.008621998105360497
1086,1286.0,0.006743911047469865
1087,1287.0,0.0072837722063568925
1088,1288.0,0.010051946322235305
1089,1289.0,0.011266646711243649
1090,1290.0,0.011669197351731062
1091,1291.0,0.007686971128890279
1092,1292.0,0.008470436773750678
1093,1293.0,0.008409087518752958
1094,1294.0,0.009273881490820448
1095,1295.0,0.007269852451199664
1096,1296.0,0.0021465008265489213
1097,1297.0,-0.0002113516850754613
1098,1298.0,-0.0011197538065939464
1099,1299.0,0.0002576751016012487
1100,1300.0,-0.00030088868656638103
1101,1301.0,0.0006792448946776853
1102,1302.0,0.0008626696030805431
1103,1303.0,0.0016023094710513022
1104,1304.0,0.006691089898229774
1105,1305.0,0.007946098498211852
1106,1306.0,0.00438988426875748
1107,1307.0,0.008713707709537168
1108,1308.0,0.006991368705374034
1109,1309.0,0.005658822465108955
1110,1310.0,0.005084055908158806
1111,1311.0,0.005737459290937388
1112,1312.0,0.0007143659932968701
1113,1313.0,-0.00026205533552464054
1114,1314.0,0.003924059930517781
1115,1315.0,0.003685902741193784
1116,1316.0,0.006856894603142054
1117,1317.0,0.01231350199983074
1118,1318.0,0.012771698254350214
1119,1319.0,0.010973965146344642
1120,1320.0,0.010797986732941797
1121,1321.0,0.006384253655422874
1122,1322.0,0.0016024661851576658
1123,1323.0,0.0015423687473509222
1124,1324.0,-0.0017005079107079353
1125,1325.0,-0.0038484611099987697
1126,1326.0,-0.0006382309974254165
1127,1327.0,0.0020674525885821977
1128,1328.0,0.004401341874276664
1129,1329.0,0.004353774470547825
1130,1330.0,0.0030264425375518596
1131,1331.0,0.0007954103356409625
1132,1332.0,0.0011615973001905522
1133,1333.0,0.005301863365971838
1134,1334.0,0.0061762984629968746
1135,1335.0,0.009439740855211888
1136,1336.0,0.013614048996995446
1137,1337.0,0.014016412471981704
1138,1338.0,0.01278684074180075
1139,1339.0,0.011408696360450344
1140,1340.0,0.008972884464956591
1141,1341.0,0.007092017747970826
1142,1342.0,0.007025887572900062
1143,1343.0,0.015065797510454244
1144,1344.0,0.01658563922967058
1145,1345.0,0.016584280776640405
1146,1346.0,0.016270329307429176
1147,1347.0,0.014942170161957282
1148,1348.0,0.011218264608016481
1149,1349.0,0.008275094505820087
1150,1350.0,0.009620685221723546
1151,1351.0,0.006462696561523905
1152,1352.0,0.010545913157261173
1153,1353.0,0.013023059843267971
1154,1354.0,0.00970618171831566
1155,1355.0,0.010941909981884095
1156,1356.0,0.010749067795442956
1157,1357.0,0.009535484759903868
1158,1358.0,0.008684955774906135
1159,1359.0,0.00891620795009152
1160,1360.0,0.011210557955172454
1161,1361.0,0.009190995556401392
1162,1362.0,0.011687421282068783
1163,1363.0,0.01005625142395761
1164,1364.0,0.00900345622056565
1165,1365.0,0.010379163656242774
1166,1366.0,0.008186876433559077
1167,1367.0,0.008336759583441659
1168,1368.0,0.00917628467564579
1169,1369.0,0.007307866290807979
1170,1370.0,0.006592370022331582
1171,1371.0,0.006754870620342164
1172,1372.0,0.005557631034260963
1173,1373.0,0.003966863945480051
1174,1374.0,0.003656650624014471
1175,1375.0,0.004416631675793164
1176,1376.0,0.005391337745400851
1177,1377.0,0.004665592317113149
1178,1378.0,0.00775250131846463
1179,1379.0,0.007258555585479241
1180,1380.0,0.00629607152487444
1181,1381.0,0.0083414464491807
1182,1382.0,0.0039084135957115655
1183,1383.0,0.002364668990536483
1184,1384.0,0.005328895290277261
1185,1385.0,0.0018318130534139792
1186,1386.0,-0.0007668423724761323
1187,1387.0,-0.003299300351493978
1188,1388.0,0.004775657177271758
1189,1389.0,0.0069261912407389764
1190,1390.0,0.007528801666602253
1191,1391.0,0.011223887491435512
1192,1392.0,0.012151901616870214
1193,1393.0,0.01251063371965879
1194,1394.0,0.011118993599502015
1195,1395.0,0.005043656118359941
1196,1396.0,0.0016105176628035069
1197,1397.0,-0.0014226039546056117
1198,1398.0,0.0031671399717674385
1199,1399.0,0.003993285964412073
1200,1400.0,0.005832802477446106
1201,1401.0,0.009050231161799678
1202,1402.0,0.013689874538038516
1203,1403.0,0.009351967071712219
1204,1404.0,0.00550159209288924
1205,1405.0,0.0006760058127642753
1206,1406.0,-0.0023423578632694154
1207,1407.0,-0.004691768308579369
1208,1408.0,-0.003605586482299806
1209,1409.0,-0.001108255327402417
1210,1410.0,0.0016363196922621938
1211,1411.0,0.004347292713685119
1212,1412.0,0.009113956531452623
1213,1413.0,0.007022949650731507
1214,1414.0,0.007102997027191299
1215,1415.0,0.009154721329256254
1216,1416.0,0.007974411192011093
1217,1417.0,0.010925950595564204
1218,1418.0,0.010325866874365796
1219,1419.0,0.011564340441183322
1220,1420.0,0.009220248024328484
1221,1421.0,0.010615409971277042
1222,1422.0,0.01047401662508945
1223,1423.0,0.00853746702195043
1224,1424.0,0.007996151917430597
1225,1425.0,0.012457126240146051
1226,1426.0,0.011395758732316299
1227,1427.0,0.013241384036491383
1228,1428.0,0.012645216858628908
1229,1429.0,0.011970210976277243
1230,1430.0,0.013835222105577475
1231,1431.0,0.015749154322683433
1232,1432.0,0.014130053103129082
1233,1433.0,0.015960556140361556
1234,1434.0,0.01831533589750638
1235,1435.0,0.021730345469695572
1236,1436.0,0.021741279764398668
1237,1437.0,0.021888081079286435
1238,1438.0,0.02308093500397721
1239,1439.0,0.025272676884829592
1240,1440.0,0.024174719328041824
1241,1441.0,0.02574609893649248
1242,1442.0,0.029247301997873346
1243,1443.0,0.032924770135773294
1244,1444.0,0.03762134566118268
1245,1445.0,0.04650958788082448
1246,1446.0,0.051084573702410124
1247,1447.0,0.05545732698387588
1248,1448.0,0.06046171043737432
1249,1449.0,0.06906687270868296
1250,1450.0,0.06951185842937474
1251,1451.0,0.07321562027172203
1252,1452.0,0.06891804662055162
1253,1453.0,0.06237198218378316
1254,1454.0,0.05474615827187277
1255,1455.0,0.05242308743355407
1256,1456.0,0.042268291941053804
1257,1457.0,0.034311439348559604
1258,1458.0,0.030427201978373404
1259,1459.0,0.032359385025130354
1260,1460.0,0.03162556389367642
1261,1461.0,0.02931469116485318
1262,1462.0,0.026112296409283246
1263,1463.0,0.021415327706565047
1264,1464.0,0.016994963317386577
1265,1465.0,0.018498738291457366
1266,1466.0,0.014280261662200745
1267,1467.0,0.014202620439003404
1268,1468.0,0.01489989754285146
1269,1469.0,0.017059534979383492
1270,1470.0,0.01698207158165924
1271,1471.0,0.015251625710491342
1272,1472.0,0.014337787725890004
1273,1473.0,0.008923492428720118
1274,1474.0,0.0062345903165359024
1275,1475.0,0.005630619936928554
1276,1476.0,0.0033274382816657483
1277,1477.0,0.005546291217954773
1278,1478.0,0.006844058438027116
1279,1479.0,0.006427138682173229
1280,1480.0,0.005946925133355161
1281,1481.0,0.008908622823444883
1282,1482.0,0.009248645352552381
1283,1483.0,0.0070041683943422115
1284,1484.0,0.005071270563760946
1285,1485.0,0.008991752064905658
1286,1486.0,0.01026199357227653
1287,1487.0,0.009678268671803868
1288,1488.0,0.010434549435511318
1289,1489.0,0.008987612123215069
1290,1490.0,0.009778417604434868
1291,1491.0,0.009751702162078017
1292,1492.0,0.006961899885675933
1293,1493.0,0.0017190663980611253
1294,1494.0,0.0012953657749398635
1295,1495.0,0.0031473858018705313
1296,1496.0,0.002943263348391299
1297,1497.0,0.002506296569738359
1298,1498.0,0.0037577147094958983
1299,1499.0,0.008946589938989042
1300,1500.0,0.012858566758650727
1301,1501.0,0.009421189335372032
1302,1502.0,0.010723397376281595
1303,1503.0,0.007997144033669345
1304,1504.0,0.00854795348067652
1305,1505.0,0.006711979576138632
1306,1506.0,0.00656560213608615
1307,1507.0,0.00418718667074203
1308,1508.0,0.004166355525540949
1309,1509.0,0.006250826034929453
1310,1510.0,0.005647284904099904
1311,1511.0,0.0019298501215203655
1312,1512.0,0.0036046478131288276
1313,1513.0,0.001295001627787731
1314,1514.0,-0.0008143412433334293
1315,1515.0,0.0013732954385106797
1316,1516.0,0.003894152821264521
1317,1517.0,0.004096530485811088
1318,1518.0,0.004772071241896276
1319,1519.0,0.00341694160853174
1320,1520.0,0.007539284149916555
1321,1521.0,0.012729678233250035
1322,1522.0,0.013153874375393367
1323,1523.0,0.01129121713712597
1324,1524.0,0.00909783098759867
1325,1525.0,0.009613710707622704
1326,1526.0,0.007773521625388019
1327,1527.0,0.0034646364431852703
1328,1528.0,0.0055306638539401225
1329,1529.0,0.004715712332589124
1330,1530.0,0.010185387707450125
1331,1531.0,0.011263077878573027
1332,1532.0,0.011507231036656886
1333,1533.0,0.01281814331263769
1334,1534.0,0.012763719375817184
1335,1535.0,0.014204291278545694
1336,1536.0,0.014162231151363388
1337,1537.0,0.01142735243881049
1338,1538.0,0.01335365641556725
1339,1539.0,0.01090604633846371
1340,1540.0,0.009771473293975179
1341,1541.0,0.006488278928801354
1342,1542.0,0.009529433913106405
1343,1543.0,0.013073657285668587
1344,1544.0,0.013485527732900555
1345,1545.0,0.01606596058846224
1346,1546.0,0.016577590929840142
1347,1547.0,0.011763579982407572
1348,1548.0,0.007605947208987508
1349,1549.0,0.004661518337900862
1350,1550.0,0.004362512218859466
1351,1551.0,0.008371937298428752
1352,1552.0,0.009836539516824226
1353,1553.0,0.01133851007321846
1354,1554.0,0.012205443351667783
1355,1555.0,0.016720678938845563
1356,1556.0,0.015944736871493146
1357,1557.0,0.01623943242039084
1358,1558.0,0.012327535105721014
1359,1559.0,0.012034671114267976
1360,1560.0,0.013680823744295528
1361,1561.0,0.015377135551903353
1362,1562.0,0.01438248248343612
1363,1563.0,0.013236165476050683
1364,1564.0,0.016097108013217842
1365,1565.0,0.015666782457586174
1366,1566.0,0.01528422073700812
1367,1567.0,0.018929071985248416
1368,1568.0,0.019186562498229573
1369,1569.0,0.02078174126415417
1370,1570.0,0.021098522255818652
1371,1571.0,0.021755160200121967
1372,1572.0,0.02166553259297893
1373,1573.0,0.02198201605726686
1374,1574.0,0.027505329362240073
1375,1575.0,0.030391714401447213
1376,1576.0,0.0372908587654828
1377,1577.0,0.04290764022504283
1378,1578.0,0.05135326633176997
1379,1579.0,0.05973694361281797
1380,1580.0,0.06953994804434446
1381,1581.0,0.07681771457656805
1382,1582.0,0.07892086816500216
1383,1583.0,0.07912749607837376
1384,1584.0,0.0765451417194455
1385,1585.0,0.07035323068628584
1386,1586.0,0.062716336055007
1387,1587.0,0.05591948314469913
1388,1588.0,0.049594736513148725
1389,1589.0,0.04710881876549583
1390,1590.0,0.047771451034302095
1391,1591.0,0.052916957003585945
1392,1592.0,0.05313787516759888
1393,1593.0,0.05415862016687428
1394,1594.0,0.06000644774277533
1395,1595.0,0.06673884273879284
1396,1596.0,0.07679007636101054
1397,1597.0,0.08956674650563597
1398,1598.0,0.09528352359144816
1399,1599.0,0.10318616107869835
1400,1600.0,0.11045883472036827
1401,1601.0,0.11630562816450189
1402,1602.0,0.11575911552170054
1403,1603.0,0.11368442309231425
1404,1604.0,0.11036082876865823
1405,1605.0,0.10138397113548253
1406,1606.0,0.09131386530331406
1407,1607.0,0.08264652308908763
1408,1608.0,0.06815933229538007
1409,1609.0,0.05811049480436466
1410,1610.0,0.04828375793326808
1411,1611.0,0.040886353054697164
1412,1612.0,0.03537822197831672
1413,1613.0,0.03304381848097391
1414,1614.0,0.03347213150709506
1415,1615.0,0.032001981148617936
1416,1616.0,0.02607870509607584
1417,1617.0,0.023291242086349022
1418,1618.0,0.020851257793033477
1419,1619.0,0.017910601367959116
1420,1620.0,0.014676282271172281
1421,1621.0,0.01180445361136654
1422,1622.0,0.00985624569469363
1423,1623.0,0.0158740548556015
1424,1624.0,0.02108693393572681
1425,1625.0,0.021817379472205425
1426,1626.0,0.02023769529259602
1427,1627.0,0.01942809541877311
1428,1628.0,0.01984088612679739
1429,1629.0,0.01614435894391886
1430,1630.0,0.015284835439313535
1431,1631.0,0.01430446821950171
1432,1632.0,0.0165863030816739
1433,1633.0,0.019432016654019463
1434,1634.0,0.01925617178550081
1435,1635.0,0.018595467097932104
1436,1636.0,0.016770204675673913
1437,1637.0,0.014389168737200496
1438,1638.0,0.011803292968728403
1439,1639.0,0.011862609246633992
1440,1640.0,0.013558414819368326
1441,1641.0,0.015060825699654822
1442,1642.0,0.016450174817246786
1443,1643.0,0.015733896721029247
1444,1644.0,0.014698550711421277
1445,1645.0,0.013381718717219692
1446,1646.0,0.011506572959218971
1447,1647.0,0.008301406528627566
1448,1648.0,0.006938975141596854
1449,1649.0,0.007067859326645872
1450,1650.0,0.005675934311303838
1451,1651.0,0.006006149120802844
1452,1652.0,0.007425647964142436
1453,1653.0,0.01214671671524038
1454,1654.0,0.0157595689259631
1455,1655.0,0.02022460745682823
1456,1656.0,0.0177631512759236
1457,1657.0,0.015933685761966545
1458,1658.0,0.015886479741983952
1459,1659.0,0.00974606586468537
1460,1660.0,0.007283918297468763
1461,1661.0,0.0035305732483713872
1462,1662.0,0.0034851211736631146
1463,1663.0,0.004919768461488594
1464,1664.0,0.006482079198696433
1465,1665.0,0.011821509508222526
1466,1666.0,0.010006057204444316
1467,1667.0,0.015379686862437068
1468,1668.0,0.01677443546184949
1469,1669.0,0.012330213862993478
1470,1670.0,0.012583184671759824
1471,1671.0,0.01140619935662057
1472,1672.0,0.010106390484835085
1473,1673.0,0.005215650431566755
1474,1674.0,0.004979293916041611
1475,1675.0,0.009329263857901086
1476,1676.0,0.010248822376940737
1477,1677.0,0.014392087984178788
1478,1678.0,0.014948483466219556
1479,1679.0,0.012284017444735878
1480,1680.0,0.013525705790903557
1481,1681.0,0.014559314868734534
1482,1682.0,0.012817491462290642
1483,1683.0,0.011983614228369152
1484,1684.0,0.012606015481529571
1485,1685.0,0.012800521714765315
1486,1686.0,0.012104117415332731
1487,1687.0,0.008761742137782037
1488,1688.0,0.00914073596480143
1489,1689.0,0.007432130924901265
1490,1690.0,0.007664524371715819
1491,1691.0,0.007639111081896982
1492,1692.0,0.007598735146190805
1493,1693.0,0.010978433303206518
1494,1694.0,0.012517422515042372
1495,1695.0,0.011877910342228886
1496,1696.0,0.014407980181416884
1497,1697.0,0.014238208639586976
1498,1698.0,0.01625187496702519
1499,1699.0,0.01381658659847303
1500,1700.0,0.009595274526221786
1501,1701.0,0.005929819484244975
1502,1702.0,0.005879777746346383
1503,1703.0,0.008518899464624688
1504,1704.0,0.006532374446544885
1505,1705.0,0.008786100752150975
1506,1706.0,0.010919742760144487
1507,1707.0,0.012986260440869429
1508,1708.0,0.008388431906391524
1509,1709.0,0.00468125891338165
1510,1710.0,0.0010863445890617366
1511,1711.0,-0.00047572932000376056
1512,1712.0,0.0023011114506532415
1513,1713.0,0.005062347271903189
1514,1714.0,0.00038858926920791806
1515,1715.0,0.003368953452636549
1516,1716.0,0.0031138733655528914
1517,1717.0,0.0069686433015960815
1518,1718.0,0.007861844660847103
1519,1719.0,0.011996244831363455
1520,1720.0,0.011738977760529741
1521,1721.0,0.011232805660348295
1522,1722.0,0.011868436279450821
1523,1723.0,0.008497092536272054
1524,1724.0,0.0007782079782728501
1525,1725.0,0.0010812811171229705
1526,1726.0,-0.00149676271667082
1527,1727.0,-0.002600143304038696
1528,1728.0,0.0002535955773301887
1529,1729.0,0.0029884551633838356
1530,1730.0,0.006940903605583439
1531,1731.0,0.00981363758675917
1532,1732.0,0.009939420449429127
1533,1733.0,0.00809853406358501
1534,1734.0,0.009030441722896047
1535,1735.0,0.012512637956924188
1536,1736.0,0.008933576780463947
1537,1737.0,0.007305115883266397
1538,1738.0,0.006061735902065447
1539,1739.0,0.005029783794033771
1540,1740.0,0.007504737219730017
1541,1741.0,0.004290498383250284
1542,1742.0,0.002580618993554322
1543,1743.0,0.002109479492448562
1544,1744.0,0.0061194756084553235
1545,1745.0,0.010982770787666567
1546,1746.0,0.008097943749400979
1547,1747.0,0.00966266754372287
1548,1748.0,0.006623289662155139
1549,1749.0,0.006750935124867147
1550,1750.0,0.008118968441685288
1551,1751.0,0.0065555509168287755
1552,1752.0,0.011427022284186471
1553,1753.0,0.013297977832055208
1554,1754.0,0.01722339695643113
1555,1755.0,0.018760834298315463
1556,1756.0,0.019337409933224477
1557,1757.0,0.018969103628154033
1558,1758.0,0.016049601575940313
1559,1759.0,0.01497461541511878
1560,1760.0,0.013075342686312195
1561,1761.0,0.007328504135868477
1562,1762.0,0.009143123937569908
1563,1763.0,0.006111465643532112
1564,1764.0,0.002834912581260849
1565,1765.0,0.0030510380704871294
1566,1766.0,0.007253259795649596
1567,1767.0,0.005151022332022478
1568,1768.0,0.004809405534653382
1569,1769.0,0.008833136714608628
1570,1770.0,0.006295572058419308
1571,1771.0,0.0027600494248042886
1572,1772.0,0.0013876944813804653
1573,1773.0,0.0011250284015261835
1574,1774.0,0.00211752726757655
1575,1775.0,0.00786305157826785
1576,1776.0,0.012219184383599813
1577,1777.0,0.013648819761031567
1578,1778.0,0.014509973446010386
1579,1779.0,0.017401440086153196
1580,1780.0,0.014478833320052438
1581,1781.0,0.011578767651735204
1582,1782.0,0.006147049738542003
1583,1783.0,0.007310977555771396
1584,1784.0,0.006756415022407217
1585,1785.0,0.007706586139505644
1586,1786.0,0.0056944821732296015
1587,1787.0,0.0039129693174653505
1588,1788.0,0.003929107373080436
1589,1789.0,0.005105634336297224
1590,1790.0,0.00861275135714752
1591,1791.0,0.008350636883925872
1592,1792.0,0.0072838409585978545
1593,1793.0,0.007103570032276699
1594,1794.0,0.005933885405584653
1595,1795.0,0.005904157867028097
1596,1796.0,0.0005823180754720165
1597,1797.0,-0.0021943187031168237
1598,1798.0,-0.004242782023631499
1599,1799.0,-0.002595362253803762
1600,1800.0,0.0015625203732740306
1601,1801.0,0.003762892467224787
1602,1802.0,0.0011294446846166724
1603,1803.0,0.00193877954923402
1604,1804.0,0.004976923863443328
1605,1805.0,0.005707016343292844
1606,1806.0,0.0020663449627882557
1607,1807.0,0.0024043095918425696
1608,1808.0,-0.0018912019730086985
1609,1809.0,0.0004392383607391505
1610,1810.0,0.0043217936925945355
1611,1811.0,0.008381994563523515
1612,1812.0,0.009155880943169412
1613,1813.0,0.01292944516004691
1614,1814.0,0.013387780851607725
1615,1815.0,0.011310856837951836
1616,1816.0,0.011830238736404375
1617,1817.0,0.01019570576588383
1618,1818.0,0.00835965957851436
1619,1819.0,0.008685685654671448
1620,1820.0,0.009562772678183288
1621,1821.0,0.012157940324145225
1622,1822.0,0.011578467733191442
1623,1823.0,0.011129889973707391
1624,1824.0,0.007724244897584312
1625,1825.0,0.004586374790022682
1626,1826.0,0.006290982396039966
1627,1827.0,0.0015243642687457707
1628,1828.0,0.0026880165129764605
1629,1829.0,0.00052319614548996
1630,1830.0,0.0023987940348101006
1631,1831.0,0.005027933908902723
1632,1832.0,0.004079279468575487
1633,1833.0,0.0059051226095317355
1634,1834.0,0.0023603017010307304
1635,1835.0,0.0023899113412978183
1636,1836.0,0.0014281992023437886
1637,1837.0,-0.0008931314448792794
1638,1838.0,-0.002043869643796627
1639,1839.0,0.0010846428342455238
1640,1840.0,0.006179654847536764
1641,1841.0,0.010031132627648435
1642,1842.0,0.013174505901722543
1643,1843.0,0.014519346212019734
1644,1844.0,0.01680329443497006
1645,1845.0,0.017483959469682755
1646,1846.0,0.013254778753044925
1647,1847.0,0.01430627321135035
1648,1848.0,0.012399964236428841
1649,1849.0,0.011459168962188461
1650,1850.0,0.009328312177812315
1651,1851.0,0.006820706813224588
1652,1852.0,0.00793847848006852
1653,1853.0,0.007498806887840981
1654,1854.0,0.01021352592349147
1655,1855.0,0.011709463165205691
1656,1856.0,0.0109063744417201
1657,1857.0,0.015353164400695654
1658,1858.0,0.016456874222633557
1659,1859.0,0.014965611498309208
1660,1860.0,0.016209854892805978
1661,1861.0,0.011874711738636284
1662,1862.0,0.009423834192973312
1663,1863.0,0.003877043755506055
1664,1864.0,0.002956598425252752
1665,1865.0,0.001966487192576769
1666,1866.0,-3.675774288898182e-05
1667,1867.0,0.0005685053543439479
1668,1868.0,0.0013851691744353476
1669,1869.0,0.0054352432924719965
1670,1870.0,0.007793107088037549
1671,1871.0,0.00907881843068979
1672,1872.0,0.010821073400441316
1673,1873.0,0.012153674337490518
1674,1874.0,0.016273427007577158
1675,1875.0,0.018127327202755825
1676,1876.0,0.015461207371041253
1677,1877.0,0.011892365969432966
1678,1878.0,0.011152659475198808
1679,1879.0,0.00858857375336587
1680,1880.0,0.005924365728970656
1681,1881.0,0.0033014036788582683
1682,1882.0,0.0009415018197495923
1683,1883.0,0.0010689782861007418
1684,1884.0,0.0029287173600448307
1685,1885.0,0.00662622823270022
1686,1886.0,0.0016145467629254924
1687,1887.0,9.885275091495482e-05
1688,1888.0,0.003011493928468872
1689,1889.0,0.004219281504167824
1690,1890.0,0.0007465797030510178
1691,1891.0,-0.001337461495925393
1692,1892.0,0.0010354097362212573
1693,1893.0,0.0027188919164093965
1694,1894.0,0.005107136225704369
1695,1895.0,0.0063059590689999315
1696,1896.0,0.004017932084908387
1697,1897.0,0.0062491242959273
1698,1898.0,0.006372065482023956
1699,1899.0,0.007846092506856044
1700,1900.0,0.0018377531665028466
1701,1901.0,0.0018408854763328315
1702,1902.0,0.004733009876010366
1703,1903.0,0.005361958570346501
1704,1904.0,0.008331530896730194
1705,1905.0,0.007458398009011595
1706,1906.0,0.009720853443860278
1707,1907.0,0.010570344781097548
1708,1908.0,0.005829415341855238
1709,1909.0,0.0053422800691123075
1710,1910.0,0.0028797813547131665
1711,1911.0,0.001755521673504006
1712,1912.0,0.002444114208891095
1713,1913.0,0.0037351927726781693
1714,1914.0,0.0074877736084660714
1715,1915.0,0.005984172639353284
1716,1916.0,0.003385711760481685
1717,1917.0,0.0010550909408490016
1718,1918.0,0.001982079997190021
1719,1919.0,0.0027000950993889936
1720,1920.0,0.0022416658786021176
1721,1921.0,0.003409279241547962
1722,1922.0,0.0019431144482977443
1723,1923.0,0.001605438760801012
1724,1924.0,0.0021610786011591696
1725,1925.0,0.0028550297138772236
1726,1926.0,0.004645978346170961
1727,1927.0,0.006902941388343481
1728,1928.0,0.012855111708153184
1729,1929.0,0.011841641533630026
1730,1930.0,0.009655284972903213
1731,1931.0,0.009442771674044038
1732,1932.0,0.005533901000050199
1733,1933.0,0.0013326156656173745
1734,1934.0,0.000252428514588537
1735,1935.0,0.0023145120058394174
1736,1936.0,0.0034765800987530348
1737,1937.0,0.0020422792459252287
1738,1938.0,0.005173745547377601
1739,1939.0,0.0038764713959587604
1740,1940.0,0.0031756719097993246
1741,1941.0,0.004033023182335626
1742,1942.0,0.003622430504791647
1743,1943.0,0.0061398676214956035
1744,1944.0,0.0058592373349632
1745,1945.0,0.007226951921397605
1746,1946.0,0.008849606367982222
1747,1947.0,0.015131275803549834
1748,1948.0,0.0185599853470684
1749,1949.0,0.02155928511550232
1750,1950.0,0.02008226495634134
1751,1951.0,0.019786989293329338
1752,1952.0,0.0159902245846084
1753,1953.0,0.01419538151176547
1754,1954.0,0.009021341772967331
1755,1955.0,0.008677071402827072
1756,1956.0,0.009495100337723463
1757,1957.0,0.01118725965498009
1758,1958.0,0.0076271896377869425
1759,1959.0,0.006695883197874613
1760,1960.0,0.0041350376953510504
1761,1961.0,0.005314377939979849
1762,1962.0,0.005954728138032496
1763,1963.0,0.006385321990167092
1764,1964.0,0.008098174225967404
1765,1965.0,0.009902293843148264
1766,1966.0,0.011495565146971032
1767,1967.0,0.009593237260275054
1768,1968.0,0.00804408074667102
1769,1969.0,0.0069262902278437255
1770,1970.0,0.0038632272333263655
1771,1971.0,0.004181000888639421
1772,1972.0,0.004343591122373004
1773,1973.0,0.0024640365637658554
1774,1974.0,0.002344165676103346
1775,1975.0,0.003300941465871844
1776,1976.0,0.006500623196719815
1777,1977.0,0.0061196266850514795
1778,1978.0,0.008198483740662035
1779,1979.0,0.010410310328816728
1780,1980.0,0.013228233175605855
1781,1981.0,0.017097208642307633
1782,1982.0,0.016836322511721753
1783,1983.0,0.01513268911920904
1784,1984.0,0.01694052939662186
1785,1985.0,0.01565484418974755
1786,1986.0,0.01040363374149887
1787,1987.0,0.004764986449856204
1788,1988.0,-0.0004759136008578846
1789,1989.0,-0.0007456386597433603
1790,1990.0,0.0006938657816637151
1791,1991.0,-0.00027172298755676847
1792,1992.0,-0.0014786530932086352
1793,1993.0,0.006165915404715179
1794,1994.0,0.016336587933634347
1795,1995.0,0.018680399985018845
1796,1996.0,0.021764868127324914
1797,1997.0,0.02198921488126097
1798,1998.0,0.018354032156448135
1799,1999.0,0.009859911862507674
1800,2000.0,-0.004492554090939196
