# kind,background_subtracted
# version_label,v1_poly4
# poly_order,4
# iterations_run,20
pixel_index,raman_shift_cm-1,intensity,background_intensity
0,-225.132,1064.465690433312,-326.4656904333119
1,-222.063,1058.364386291977,-311.3643862919772
2,-218.996,1048.3091946429615,-296.3091946429615
3,-215.930,1034.3000014357701,-281.3000014357701
4,-212.866,1018.3366927645046,-266.3366927645046
5,-209.802,1015.4191548678622,-251.4191548678622
6,-206.740,989.5472741291364,-236.54727412913638
7,-203.679,973.7209370762165,-221.7209370762165
8,-200.619,958.940030381588,-206.94003038158803
9,-197.561,935.2044408623324,-192.20444086233238
10,-194.503,929.5140554801269,-177.51405548012696
11,-191.447,896.8687613412452,-162.86876134124523
12,-188.392,896.2684456965567,-148.2684456965567
13,-185.338,888.7129959415269,-133.71299594152683
14,-182.285,877.202299616217,-119.20229961621703
15,-179.234,838.7362444052849,-104.73624440528482
16,-176.184,841.3147181379837,-90.31471813798376
17,-173.135,831.9376087881633,-75.93760878816329
18,-170.087,811.604804474269,-61.604804474268974
19,-167.040,794.3161934593422,-47.31619345934223
20,-163.995,784.0716641510207,-33.07166415102074
21,-160.951,767.871105101538,-18.871105101538035
22,-157.908,746.7144050077236,-4.714405007723599
23,-154.866,746.601452711003,9.398547288996951
24,-151.825,743.532137197398,23.467862802602042
25,-148.786,709.506347597526,37.49365240247408
26,-145.747,681.5239731866006,51.476026813399415
27,-142.710,680.5849033844313,65.41509661556864
28,-139.674,685.6890277554241,79.31097224457585
29,-136.640,669.8362360085804,93.16376399141961
30,-133.606,634.0264179974977,106.97358200250227
31,-130.574,638.2594637203699,120.74053627963002
32,-127.543,620.5352633199866,134.4647366800134
33,-124.513,601.8537070837333,148.14629291626665
34,-121.484,589.2146854435919,161.78531455640808
35,-118.457,582.6180889761399,175.38191102386003
36,-115.430,571.0638084025512,188.93619159744878
37,-112.405,547.5517345885953,202.4482654114047
38,-109.381,531.0817585446381,215.9182414553619
39,-106.358,514.6537714256411,229.34622857435886
40,-103.337,526.2676645311624,242.73233546883762
41,-100.316,495.9233293053554,256.0766706946446
42,-97.297,499.6206573369701,269.3793426630299
43,-94.279,460.3595403593521,282.6404596406479
44,-91.262,450.1398702504432,295.8601297495568
45,-88.246,443.9615390327813,309.0384609672187
46,-85.232,430.82443887350007,322.17556112649993
47,-82.218,407.7284620843294,335.2715379156706
48,-79.206,396.6735011215952,348.3264988784048
49,-76.195,399.6594485862191,361.3405514137809
50,-73.185,371.6861972237191,374.3138027762809
51,-70.177,363.75363992420887,387.24636007579113
52,-67.169,352.8616697223986,400.1383302776014
53,-64.163,344.01017979759365,412.98982020240635
54,-61.158,321.19906347369636,425.80093652630364
55,-58.154,312.4282142192044,438.5717857807956
56,-55.151,293.6975256472118,451.3024743527882
57,-52.150,282.00689151540837,463.99310848459163
58,-49.149,279.3562057260799,476.6437942739201
59,-46.150,257.74536232610865,489.25463767389135
60,-43.152,244.17425550697226,501.82574449302774
61,-40.155,243.64277960474476,514.3572203952552
62,-37.159,227.15082910009642,526.8491708999036
63,-34.165,208.6982986182926,539.3017013817074
64,-31.171,243.28508292919582,551.7149170708042
65,-28.179,443.91107694726384,564.0889230527362
66,-25.188,1417.5761757315506,576.4238242684494
67,-22.198,2125.2802744857063,588.7197255142937
68,-19.210,256.02326855797685,600.9767314420232
69,-16.222,141.80505344120422,613.1949465587958
70,-13.236,135.62552477282657,625.3744752271734
71,-10.251,105.48457833487782,637.5154216651222
72,-7.267,105.38211005398819,649.6178899460118
73,-4.284,74.31801600138351,661.6819839986165
74,-1.302,67.29219239288602,673.707807607114
75,1.678,64.30453558891384,685.6954644110862
76,4.658,44.3549420944812,697.6450579055188
77,7.636,50.44330855919793,709.5566914408021
78,10.613,43.56953177727041,721.4304682227296
79,13.589,24.73350868750026,733.2664913124997
80,16.563,9.935136373286241,745.0648636267138
81,19.537,0.0,756.8256879373778
82,22.509,0.0,768.5490668719017
83,25.480,0.0,780.2351029130994
84,28.451,0.0,791.8838983991882
85,31.419,0.0,803.4955555237905
86,34.387,0.0,815.070176335932
87,37.354,0.0,826.607862740042
88,40.319,0.0,838.1087164959552
89,43.283,0.0,849.5728392189085
90,46.246,0.0,861.000332379544
91,49.208,0.0,872.3912973039075
92,52.169,0.0,883.7458351734485
93,55.129,0.0,895.0640470250212
94,58.087,0.0,906.346033750883
95,61.045,0.0,917.5918960986953
96,64.001,0.0,928.8017346715244
97,66.956,0.0,939.9756499278396
98,69.910,134.8862578184851,951.1137421815149
99,72.862,313.78388839817217,962.2161116018278
100,75.814,516.7171417865404,973.2828582134596
101,78.764,680.6859181035036,984.3140818964964
102,81.714,891.6901176135718,995.3098823864282
103,84.662,970.7296407258525,1006.2703592741475
104,87.609,1050.8043879940471,1017.1956120059529
105,90.554,1000.9142601164542,1028.0857398835458
106,93.499,1036.0591579359682,1038.9408420640318
107,96.443,1078.23898244008,1049.76101755992
108,99.385,1042.4536347608755,1060.5463652391245
109,102.326,1043.7030161750372,1071.2969838249628
110,105.266,1017.9870281038436,1082.0129718961564
111,108.205,982.3055721131693,1092.6944278868307
112,111.143,992.6585499134844,1103.3414500865156
113,114.080,950.0458633598557,1113.9541366401443
114,117.015,986.4674144519456,1124.5325855480544
115,119.950,1012.9231053340125,1135.0768946659875
116,122.883,908.4128382949109,1145.587161705089
117,125.815,893.9365157680916,1156.0634842319084
118,128.746,913.4940403316007,1166.5059596683993
119,131.676,941.0853147080811,1176.9146852919189
120,134.604,919.7102417647707,1187.2897582352293
121,137.532,932.3687245135047,1197.6312754864953
122,140.458,907.0606661107136,1207.9393338892864
123,143.383,909.7859698574237,1218.2140301425763
124,146.307,938.544539199258,1228.455460800742
125,149.230,843.3362777264344,1238.6637222735656
126,152.152,888.161089173768,1248.838910826232
127,155.073,905.0188774206695,1258.9811225793305
128,157.992,821.9095464911452,1269.0904535088548
129,160.911,776.8330005537978,1279.1669994462022
130,163.828,841.789143921826,1289.210856078174
131,166.744,812.7778810530244,1299.2221189469756
132,169.659,876.7991165497838,1309.2008834502162
133,172.573,782.852755159091,1319.147244840909
134,175.486,808.9387017725282,1329.0612982274718
135,178.397,811.0568614262743,1338.9431385737257
136,181.308,768.2071393011042,1348.7928606988958
137,184.217,809.3894407223884,1358.6105592776116
138,187.126,742.6036711600937,1368.3963288399063
139,190.033,827.8497362287826,1378.1502637712174
140,192.939,780.1275416876142,1387.8724583123858
141,195.843,833.4369934403433,1397.5630065596567
142,198.747,826.7779975353201,1407.22200246468
143,201.650,838.1504601654917,1416.8495398345083
144,204.551,773.5542876684012,1426.4457123315988
145,207.451,770.9893865261868,1436.0106134738132
146,210.351,737.4556633655839,1445.5443366344161
147,213.249,771.9530249579225,1455.0469750420775
148,216.146,780.4813782191304,1464.5186217808696
149,219.041,791.0406302097299,1473.95936979027
150,221.936,766.6306881348398,1483.3693118651602
151,224.830,754.2514593441749,1492.748540655825
152,227.722,806.9028513320463,1502.0971486679537
153,230.613,778.584771737361,1511.415228262639
154,233.504,724.2971283436214,1520.7028716563786
155,236.393,706.0398290789267,1529.9601709210733
156,239.281,730.8127820159716,1539.1872179840284
157,242.167,711.6158953720471,1548.3841046279529
158,245.053,679.4490775090408,1557.5509224909592
159,247.938,723.3122369334344,1566.6877630665656
160,250.821,700.2052822963074,1575.7947177036926
161,253.704,729.1281223933349,1584.871877606665
162,256.585,715.080666164788,1593.919333835212
163,259.465,746.0628226955332,1602.9371773044668
164,262.344,674.0745012150339,1611.925498784966
165,265.222,679.1156110973486,1620.8843889026514
166,268.099,679.1860618611327,1629.8139381388673
167,270.974,693.2857631696372,1638.7142368303628
168,273.849,684.4146248307088,1647.5853751692912
169,276.722,706.5725567967906,1656.4274432032094
170,279.595,683.7594691649224,1665.2405308350776
171,282.466,672.9752721767379,1674.024727823262
172,285.336,732.2198762184694,1682.7801237815306
173,288.205,652.4931918209431,1691.5068081790569
174,291.073,664.7951296595829,1700.204870340417
175,293.940,664.1256005544069,1708.874399445593
176,296.805,622.4845154700306,1717.5154845299694
177,299.670,626.871785515666,1726.128214484334
178,302.533,605.287321945119,1734.712678054881
179,305.396,610.7310361567934,1743.2689638432066
180,308.257,602.202839693688,1751.797160306312
181,311.117,580.702644243398,1760.297355756602
182,313.976,598.2303616381146,1768.7696383618854
183,316.834,574.7859038546253,1777.2140961453747
184,319.691,598.369183014313,1785.630816985687
185,322.546,609.9801113831563,1794.0198886168437
186,325.401,577.6186013717315,1802.3813986282685
187,328.254,546.2845655352089,1810.715434464791
188,331.107,582.9779165733567,1819.0220834266433
189,333.958,547.6985673305371,1827.3014326694629
190,336.808,482.44643079571006,1835.55356920429
191,339.657,545.2214201024303,1843.7785798975697
192,342.505,520.0234485288497,1851.9765514711503
193,345.352,530.8524294977146,1860.1475705022854
194,348.198,547.7082765763689,1868.291723423631
195,351.042,514.5909034767519,1876.409096523248
196,353.886,540.500224055399,1884.499775944601
197,356.728,533.4361523134417,1892.5638476865583
198,359.570,488.3986023966063,1900.6013976033937
199,362.410,459.38748859521684,1908.6125114047832
200,365.249,468.4027253441932,1916.5972746558068
201,368.087,486.4442272230499,1924.55577277695
202,370.924,496.511908955898,1932.488091044102
203,373.760,448.60568541144585,1940.3943145885542
204,376.595,445.7254716029961,1948.274528397004
205,379.428,479.87118268844824,1956.1288173115518
206,382.261,401.0427339702983,1963.9572660297017
207,385.092,450.2400408956373,1971.7599591043627
208,387.923,406.46301905615246,1979.5369809438475
209,390.752,423.7115841881273,1987.2884158118727
210,393.580,420.98565217244095,1995.014347827559
211,396.408,446.28513903456997,2002.71486096543
212,399.234,389.6099609445846,2010.3900390554154
213,402.058,442.96003421715295,2018.039965782847
214,404.882,378.3352753115382,2025.6647246884618
215,407.705,352.73560083160055,2033.2643991683994
216,410.527,355.1609275257938,2040.8390724742062
217,413.347,383.61117228717103,2048.388827712829
218,416.167,441.08625215338,2055.91374784662
219,418.985,423.58608430666254,2063.4139156933375
220,421.803,389.11058607385985,2070.88941392614
221,424.619,412.65967492640675,2078.3403250735932
222,427.434,416.2332684803346,2085.7667315196654
223,430.248,394.83128449627156,2093.1687155037284
224,433.061,370.4536408794406,2100.5463591205594
225,435.873,459.10025567966204,2107.899744320338
226,438.684,415.77104709135074,2115.2289529086493
227,441.493,343.465933453519,2122.534066546481
228,444.302,378.1848332497739,2129.815166750226
229,447.109,352.9276651083187,2137.0723348916813
230,449.916,377.6943478019539,2144.305652198046
231,452.721,354.48480024807486,2151.515199751925
232,455.526,332.2989415086731,2158.701058491327
233,458.329,313.1366907903366,2165.8633092096634
234,461.131,384.99796744424884,2173.002032555751
235,463.932,330.8826909661889,2180.117309033811
236,466.732,307.7907809965336,2187.2092190034664
237,469.531,355.7221573202537,2194.2778426797463
238,472.329,315.67673986691807,2201.323260133082
239,475.126,309.65444871068894,2208.345551289311
240,477.921,297.6552040703277,2215.3447959296723
241,480.716,279.6789263091882,2222.3210736908118
242,483.509,350.7255359352239,2229.274464064776
243,486.302,346.7949536009819,2236.205046399018
244,489.093,385.8871001036059,2243.112899896394
245,491.883,335.0018963848356,2249.9981036151644
246,494.673,376.1392635310067,2256.8607364689933
247,497.461,524.2991227730517,2263.7008772269483
248,500.248,799.4813954864981,2270.518604513502
249,503.034,1614.686003191469,2277.313996808531
250,505.819,2512.912867552686,2284.087132447314
251,508.603,4295.161910379463,2290.838089620537
252,511.385,5030.433053625713,2297.5669463742875
253,514.167,2487.726219389943,2304.273780610057
254,516.948,993.0413299152574,2310.9586700847426
255,519.727,583.3783075893566,2317.6216924106434
256,522.506,384.73707494453583,2324.262925055464
257,525.283,362.1175546576874,2330.8824453423126
258,528.060,359.5196695502982,2337.480330449702
259,530.835,286.943342588454,2344.056657411546
260,533.609,273.38849688283335,2350.6115031171666
261,536.382,296.8550556887126,2357.1449443112874
262,539.154,237.34294240596319,2363.657057594037
263,541.925,236.85208057905402,2370.147919420946
264,544.695,263.3823938970486,2376.6176061029514
265,547.464,253.93380619360687,2383.066193806393
266,550.232,233.50624144698486,2389.493758553015
267,552.999,235.09962378003502,2395.900376219965
268,555.765,228.71387746020446,2402.2861225397955
269,558.529,254.34892689953813,2408.651073100462
270,561.293,192.00469665467517,2414.995303345325
271,564.055,227.6811114268521,2421.318888573148
272,566.817,240.3780960619015,2427.6219039380985
273,569.577,272.0955755502505,2433.9044244497495
274,572.337,218.83347502692413,2440.166524973076
275,575.095,201.59171977154165,2446.4082802284584
276,577.852,163.37023520831917,2452.629764791681
277,580.608,162.16894690606978,2458.83105309393
278,583.363,176.98778057820027,2465.0122194217997
279,586.117,147.82666208271576,2471.1733379172842
280,588.870,188.68551742221644,2477.3144825777836
281,591.622,166.56427274389762,2483.4357272561024
282,594.373,163.462854339552,2489.537145660448
283,597.123,189.38118864556736,2495.6188113544326
284,599.872,206.31920224292844,2501.6807977570716
285,602.620,231.27682185721505,2507.723178142785
286,605.366,174.25397435860395,2513.746025641396
287,608.112,161.25058676186654,2519.7494132381335
288,610.856,141.2665862263716,2525.7334137736284
289,613.600,177.30190005608256,2531.6980999439174
290,616.342,179.35645569956114,2537.643544300439
291,619.084,181.4301807499619,2543.569819250038
292,621.824,168.52300294503902,2549.476997054961
293,624.563,138.63485016713912,2555.365149832861
294,627.302,180.76565044320705,2561.234349556793
295,630.039,173.91533194478234,2567.0846680552177
296,632.775,177.0838229880028,2572.916177011997
297,635.510,125.27105203359952,2578.7289479664005
298,638.244,123.4769476869019,2584.523052313098
299,640.977,119.70143869783396,2590.298561302166
300,643.709,159.94445396091487,2596.055546039085
301,646.440,102.20592251526205,2601.794077484738
302,649.170,80.48577354458803,2607.514226455412
303,651.899,131.7839363772,2613.2160636228
304,654.626,105.10034048600392,2618.899659513996
305,657.353,103.43491548849852,2624.5650845115015
306,660.079,126.78759114678178,2630.212408853218
307,662.803,103.15829736754586,2635.841702632454
308,665.527,88.54696420207802,2641.453035797922
309,668.250,173.95352184626336,2647.0464781537366
310,670.971,94.37790064058254,2652.6220993594175
311,673.692,78.82003107011178,2658.179968929888
312,676.411,64.27984376452378,2663.720156235476
313,679.129,61.75726949808586,2669.242730501914
314,681.847,79.25223918966458,2674.7477608103354
315,684.563,113.76468390271884,2680.235316097281
316,687.278,192.29453484530632,2685.7054651546937
317,689.992,64.84172337007749,2691.1582766299225
318,692.706,114.40618097428342,2696.5938190257166
319,695.418,105.98783929976662,2702.0121607002334
320,698.129,100.58663013296882,2707.413369867031
321,700.839,84.20248540492594,2712.797514595074
322,703.548,41.835337191270355,2718.1646628087296
323,706.256,70.48511771223184,2723.514882287768
324,708.963,34.151759332634356,2728.8482406673656
325,711.669,81.83519456189788,2734.164805438102
326,714.374,43.53535605403931,2739.4646439459607
327,717.078,115.25217660767112,2744.747823392329
328,719.780,20.985589166002683,2750.0144108339973
329,722.482,0.0,2755.264473183162
330,725.183,103.50192279257863,2760.4980772074214
331,727.883,30.28471047021958,2765.7152895297804
332,730.581,0.08382337135481066,2770.916176628645
333,733.279,17.899195162171964,2776.100804837828
334,735.976,117.73075965345697,2781.269240346543
335,738.671,66.57845080058996,2786.42154919941
336,741.366,99.44220270354754,2791.5577972964525
337,744.059,76.32194960690185,2796.678050393098
338,746.752,99.2176258998229,2801.782374100177
339,749.443,95.12916611607352,2806.8708338839265
340,752.134,53.05650493401754,2811.9434950659825
341,754.823,135.999577176608,2817.000422823392
342,757.512,124.95831781140078,2822.041682188599
343,760.199,0.0,2827.067338049458
344,762.885,33.922544850779104,2832.077455149221
345,765.571,8.927901913450569,2837.0720980865494
346,768.255,28.94866868449435,2842.0513313155056
347,770.938,33.98478085444367,2847.0152191455563
348,773.621,49.0361742584264,2851.9638257415736
349,776.302,10.102784876167789,2856.897215123832
350,778.982,2.184548831988195,2861.815451168012
351,781.661,78.28140239480535,2866.7185976051946
352,784.339,22.393281978131654,2871.6067180218683
353,787.017,6.520124140076405,2876.4798758599236
354,789.693,49.661865583343115,2881.338134416657
355,792.368,48.81844315523449,2886.1815568447655
356,795.042,14.989793847646524,2891.0102061523535
357,797.715,36.175854797072134,2895.824145202928
358,800.387,0.3765632845993423,2900.6234367154007
359,803.058,32.59185673591492,2905.408143264085
360,805.728,0.0,2910.178327278701
361,808.397,42.0659489556283,2914.9340510443717
362,811.065,35.32462329837517,2919.675376701625
363,813.732,3.597633753609898,2924.40236624639
364,816.398,0.0,2929.1150815300025
365,819.063,97.18641574079766,2933.8135842592023
366,821.727,102.50206400386833,2938.4979359961317
367,824.389,25.831801841661218,2943.168198158339
368,827.051,0.0,2947.8244320187723
369,829.712,0.0,2952.4666987057894
370,832.372,45.90494079685277,2957.0950592031472
371,835.031,5.290425649989629,2961.7095743500104
372,837.689,29.689695159054736,2966.3103048409453
373,840.345,55.10268877407816,2970.897311225922
374,843.001,21.529346089685077,2975.470653910315
375,845.656,0.0,2980.030393154906
376,848.310,3.4234109241238,2984.576589075876
377,850.962,0.0,2989.1093016448117
378,853.614,26.371409311294883,2993.628590688705
379,856.265,0.0,2998.1345158899494
380,858.915,0.0,3002.6271367863446
381,861.563,0.0,3007.1065127710935
382,864.211,2.42729690719716,3011.572703092803
383,866.858,87.97423314451635,3016.0257668554837
384,869.503,0.0,3020.4657630185507
385,872.148,36.10724960317839,3024.8927503968216
386,874.792,1.6932123394794871,3029.3067876605205
387,877.435,53.29206666472646,3033.7079333352735
388,880.076,8.903754197887793,3038.096245802112
389,882.717,22.528216702528425,3042.4717832974716
390,885.357,48.16539608681114,3046.834603913189
391,887.995,73.81523440349201,3051.184765596508
392,890.633,96.47767384992494,3055.522326150075
393,893.269,64.15265676805893,3059.847343231941
394,895.905,0.0,3064.159874355561
395,898.540,43.54002311020713,3068.459976889793
396,901.173,64.25229194109943,3072.7477080589006
397,903.806,0.0,3077.02312494255
398,906.438,2.713715524188956,3081.286284475811
399,909.068,3.462756550839913,3085.53724344916
400,911.698,24.223941491525693,3089.7760585084743
401,914.327,0.0,3094.002786155038
402,916.954,13.782517254464892,3098.217482745535
403,919.581,18.579795507940617,3102.4202044920594
404,922.207,98.38899253789668,3106.6110074621033
405,924.831,88.21005242143383,3110.789947578566
406,927.455,106.04291938024971,3114.9570806197503
407,930.077,114.8875377806362,3119.112462219364
408,932.699,54.743852133485234,3123.2561478665148
409,935.320,165.61180709428118,3127.388192905719
410,937.939,212.49134746310392,3131.508652536896
411,940.558,138.38241818463348,3135.6175818153665
412,943.176,138.28496434814042,3139.7150356518596
413,945.793,183.19893118749724,3143.8010688125028
414,948.408,103.1242640811688,3147.875735918831
415,951.023,110.0609085522151,3151.939091447785
416,953.637,79.00881026829393,3155.991189731706
417,956.249,160.96791504165913,3160.032084958341
418,958.861,127.93816882916099,3164.061831170839
419,961.472,125.919517732244,3168.080482267756
420,964.082,106.9119079969505,3172.0880920030495
421,966.690,184.91528601391792,3176.084713986082
422,969.298,116.9295983183788,3180.070401681621
423,971.905,112.9547915901635,3184.0452084098365
424,974.511,90.99081265369887,3188.009187346301
425,977.115,189.03760847800322,3191.962391521997
426,979.719,203.0951261766977,3195.9048738233023
427,982.322,84.16331300799357,3199.8366869920064
428,984.924,53.242116374701254,3203.7578836252987
429,987.525,196.33148382422723,3207.6685161757728
430,990.125,148.4313630485708,3211.568636951429
431,992.723,31.54170188433318,3215.458298115667
432,995.321,31.662448312703873,3219.337551687296
433,997.918,68.79355045947477,3223.206449540525
434,1000.514,43.93495659503196,3227.065043404968
435,1003.109,68.08661513435663,3230.9133848656434
436,1005.703,30.248474637027357,3234.7515253629726
437,1008.296,44.42048380721508,3238.579516192785
438,1010.888,0.0,3242.397408506308
439,1013.479,6.794746689823569,3246.2052533101764
440,1016.069,54.99689853357222,3250.003101466428
441,1018.658,31.208996307492725,3253.7910036925073
442,1021.246,21.430989438741562,3257.5690105612584
443,1023.833,57.662827499067134,3261.337172500933
444,1026.419,42.90446020481613,3265.095539795184
445,1029.004,63.15583741692899,3268.844162583071
446,1031.589,45.416909140946245,3272.5830908590538
447,1034.172,0.0,3276.3123744730015
448,1036.754,24.967936869818914,3280.032063130181
449,1039.335,0.0,3283.74220639127
450,1041.915,17.557146327655573,3287.4428536723444
451,1044.495,37.86594575511299,3291.134054244887
452,1047.073,9.184142764214812,3294.815857235785
453,1049.650,19.51168837267369,3298.4883116273263
454,1052.227,25.84853374279328,3302.1514662572067
455,1054.802,20.194630181475986,3305.805369818524
456,1057.376,81.54992914022114,3309.450070859779
457,1059.950,22.91438221512044,3313.0856177848796
458,1062.522,28.287941146864796,3316.712058853135
459,1065.094,78.67055782074021,3320.32944217926
460,1067.664,55.062184266628265,3323.9378157333717
461,1070.234,0.0,3327.537227340992
462,1072.802,0.0,3331.127724683048
463,1075.370,17.2906447041305,3334.7093552958695
464,1077.936,25.71783342881008,3338.28216657119
465,1080.502,0.0,3341.8462057561474
466,1083.067,23.59848004671585,3345.401519953284
467,1085.630,32.05184387945337,3348.9481561205466
468,1088.193,35.51383892871672,3352.4861610712833
469,1090.755,99.98441852574979,3356.01558147425
470,1093.315,51.46353614639611,3359.536463853604
471,1095.875,102.95114541109388,3363.048854588906
472,1098.434,42.44720008487593,3366.552799915124
473,1100.992,0.0,3370.0483459226266
474,1103.549,32.464461442811626,3373.5355385571884
475,1106.105,0.0,3377.014423619987
476,1108.660,0.0,3380.4850467676033
477,1111.214,9.052546487974723,3383.9474535120253
478,1113.767,43.59831077935905,3387.401689220641
479,1116.319,63.15220088375463,3390.8477991162454
480,1118.870,0.0,3394.285828277036
481,1121.420,0.0,3397.7158216366147
482,1123.970,30.862176016012654,3401.1378239839873
483,1126.518,0.0,3404.551879963564
484,1129.065,69.04196592484277,3407.9580340751572
485,1131.611,55.64366932601342,3411.3563306739866
486,1134.157,0.0,3414.7468139706725
487,1136.701,83.87047196875847,3418.1295280312415
488,1139.245,12.495483222876828,3421.504516777123
489,1141.787,39.12817601484858,3424.8718239851514
490,1144.329,48.76850671243574,3428.2314932875643
491,1146.869,5.416431827997258,3431.5835681720027
492,1149.409,78.07190801848674,3434.9280919815133
493,1151.947,95.73489208545561,3438.2651079145444
494,1154.485,1.4053409750486026,3441.5946590249514
495,1157.022,53.08321177800963,3444.9167882219904
496,1159.557,0.0,3448.231538270325
497,1162.092,71.46104820998016,3451.53895179002
498,1164.626,13.16092874345577,3454.8390712565442
499,1167.159,50.86806099922751,3458.1319390007725
500,1169.691,0.0,3461.417597208982
501,1172.222,88.30391207714592,3464.696087922854
502,1174.752,64.03254696052545,3467.9674530394745
503,1177.281,96.76826568866636,3471.2317343113336
504,1179.809,76.51102665367489,3474.488973346325
505,1182.336,64.26078839225465,3477.7392116077453
506,1184.863,58.017509585703465,3480.9824904142965
507,1187.388,37.781149059915606,3484.2188509400844
508,1189.912,15.551665785381829,3487.448334214618
509,1192.436,116.32901887718754,3490.6709811228125
510,1194.958,165.11316759501597,3493.886832404984
511,1197.479,123.90407134314592,3497.095928656854
512,1200.000,125.70168967045129,3500.2983103295487
513,1202.520,166.5059822704029,3503.494017729597
514,1205.038,157.31690898106717,3506.683091018933
515,1207.556,150.13442978510602,3509.865570214894
516,1210.073,89.95850480977879,3513.041495190221
517,1212.588,110.789094326939,3516.210905673061
518,1215.103,126.62615875303845,3519.3738412469615
519,1217.617,184.46965864912272,3522.5303413508773
520,1220.130,82.31955472083428,3525.6804452791657
521,1222.642,115.17580781841207,3528.824192181588
522,1225.153,76.03837893669106,3531.961621063309
523,1227.663,85.90722921510178,3535.092770784898
524,1230.172,81.7823199376694,3538.2176800623306
525,1232.680,81.6636125330183,3541.3363874669817
526,1235.188,156.55106857436522,3544.448931425635
527,1237.694,172.44464977952657,3547.5553502204734
528,1240.199,135.3443180109125,3550.6556819890875
529,1242.704,64.25003527552872,3553.7499647244713
530,1245.207,134.16176372497875,3556.8382362750212
531,1247.710,163.0794656554608,3559.920534344539
532,1250.212,99.00310350776999,3562.99689649223
533,1252.712,125.93263986729744,3566.0673601327026
534,1255.212,73.86803746402802,3569.131962535972
535,1257.711,141.80925917254672,3572.1907408274533
536,1260.209,141.75626801202907,3575.243731987971
537,1262.706,119.70902714625299,3578.290972853747
538,1265.201,155.6674998835888,3581.332500116411
539,1267.697,77.63164967700095,3584.368350322999
540,1270.191,187.60144012405453,3587.3985598759455
541,1272.684,146.57683496690652,3590.4231650330935
542,1275.176,117.55779809231353,3593.4422019076865
543,1277.667,172.54429353162504,3596.455706468375
544,1280.158,238.53628546078835,3599.4637145392117
545,1282.647,162.53373820034494,3602.466261799655
546,1285.136,174.53661621543597,3605.463383784564
547,1287.623,215.5448841157945,3608.4551158842055
548,1290.110,198.5585066557519,3611.441493344248
549,1292.595,101.57744873423417,3614.422551265766
550,1295.080,135.60167539476606,3617.398324605234
551,1297.564,153.63115182546517,3620.368848174535
552,1300.047,129.665843359046,3623.334156640954
553,1302.529,151.70571547282043,3626.2942845271796
554,1305.010,175.7507337886941,3629.249266211306
555,1307.490,171.8008640731714,3632.1991359268286
556,1309.969,220.85607223734996,3635.14392776265
557,1312.447,158.91632433692484,3638.083675663075
558,1314.925,171.981586572188,3641.018413427812
559,1317.401,207.05182528802516,3643.948174711975
560,1319.876,206.12700697392074,3646.8729930260793
561,1322.351,194.20709826395114,3649.792901736049
562,1324.824,213.29206593679373,3652.7079340632063
563,1327.297,206.3818769157192,3655.618123084281
564,1329.769,220.47649826859288,3658.523501731407
565,1332.240,263.57589720787973,3661.4241027921203
566,1334.709,250.68004109063668,3664.3199589093633
567,1337.178,226.78889741852072,3667.2111025814793
568,1339.646,142.90243383778216,3670.097566162218
569,1342.113,190.0206181392682,3672.979381860732
570,1344.580,218.14341825842075,3675.8565817415792
571,1347.045,252.27080227528086,3678.729197724719
572,1349.509,289.4027384144815,3681.5972615855185
573,1351.973,265.53919504525584,3684.460804954744
574,1354.435,334.6801406814284,3687.3198593185716
575,1356.897,273.8255439814252,3690.174456018575
576,1359.357,286.9753737482629,3693.024626251737
577,1361.817,164.12959892955723,3695.8704010704428
578,1364.276,260.28818861752006,3698.71181138248
579,1366.734,277.4511120489574,3701.5488879510426
580,1369.190,263.6183386052744,3704.3816613947256
581,1371.646,241.7898378124678,3707.210162187532
582,1374.102,242.9655793411348,3710.034420658865
583,1376.556,146.14553300646548,3712.8544669935345
584,1379.009,211.3296687682464,3715.6703312317536
585,1381.461,154.51795673086235,3718.4820432691376
586,1383.913,222.71036714329102,3721.289632856709
587,1386.363,176.90687039910927,3724.0931296008907
588,1388.813,216.10743703648632,3726.8925629635137
589,1391.262,262.3120377381906,3729.6879622618094
590,1393.709,146.5206433315866,3732.4793566684134
591,1396.156,196.73322478863065,3735.2667752113693
592,1398.602,211.94975322588016,3738.05024677412
593,1401.047,158.1701999044849,3740.829800095515
594,1403.491,235.3945362301929,3743.605463769807
595,1405.934,119.62273375334871,3746.3772662466513
596,1408.377,111.85476416888923,3749.1452358311108
597,1410.818,102.09059931635284,3751.909400683647
598,1413.258,207.3302111798671,3754.669788820133
599,1415.698,166.57357188816331,3757.4264281118367
600,1418.136,136.82065371456065,3760.1793462854394
601,1420.574,124.07142907698153,3762.9285709230185
602,1423.011,193.32587053794032,3765.6741294620597
603,1425.447,213.5839508045483,3768.4160491954517
604,1427.882,124.84564272851321,3771.154357271487
605,1430.316,186.11091930613975,3773.8890806938603
606,1432.749,230.3797536783227,3776.6202463216773
607,1435.181,160.65211913056237,3779.3478808694376
608,1437.612,203.9279890929488,3782.072010907051
609,1440.043,205.20733714016797,3784.792662859832
610,1442.472,167.49013699150373,3787.5098630084963
611,1444.901,115.77636251083777,3790.2236374891622
612,1447.329,178.06598770664323,3792.934012293357
613,1449.755,206.3589867319929,3795.641013268007
614,1452.181,188.65533388455287,3798.344666115447
615,1454.606,196.95500360658707,3801.044996393413
616,1457.030,141.25797048495633,3803.7420295150437
617,1459.453,194.5642092511148,3806.435790748885
618,1461.876,236.8736947811135,3809.1263052188865
619,1464.297,263.18640209560226,3811.8135979043977
620,1466.717,239.50230635982234,3814.4976936401777
621,1469.137,147.82138288361466,3817.1786171163853
622,1471.556,132.14360712141342,3819.8563928785866
623,1473.973,176.46895467225158,3822.5310453277484
624,1476.390,140.7974012797563,3825.2025987202437
625,1478.806,137.1289228321507,3827.8710771678493
626,1481.221,112.46349536225489,3830.536504637745
627,1483.635,171.80109504748498,3833.198904952515
628,1486.048,110.14169820984944,3835.8583017901506
629,1488.461,149.48528131596095,3838.514718684039
630,1490.872,68.83182097702002,3841.16817902298
631,1493.283,135.1812939488259,3843.818706051174
632,1495.692,169.53367713177659,3846.4663228682234
633,1498.101,123.88894757086064,3849.1110524291394
634,1500.509,73.2470824556699,3851.75291754433
635,1502.916,176.60805912038495,3854.391940879615
636,1505.322,161.97185504378422,3857.028144956216
637,1507.727,161.33844784924668,3859.6615521507533
638,1510.131,148.7078153047437,3862.2921846952563
639,1512.534,125.0799353228399,3864.92006467716
640,1514.937,195.45478596070234,3867.5452140392977
641,1517.338,125.8323454200904,3870.1676545799096
642,1519.739,109.2125920473577,3872.7874079526423
643,1522.139,116.59550433345748,3875.4044956665425
644,1524.538,156.9810609139381,3878.018939086062
645,1526.936,85.36924056894213,3880.630759431058
646,1529.333,151.76002222320994,3883.23997777679
647,1531.729,90.15338494607886,3885.846615053921
648,1534.124,193.54930795147675,3888.4506920485233
649,1536.519,191.94777059793478,3891.052229402065
650,1538.912,249.34875238857558,3893.6512476114244
651,1541.305,227.75223297112052,3896.2477670288795
652,1543.696,177.15819213788245,3898.8418078621175
653,1546.087,157.56660982577569,3901.4333901742243
654,1548.477,132.9774661163069,3904.022533883693
655,1550.866,158.39074123558248,3906.6092587644175
656,1553.254,131.80641555429747,3909.1935844457025
657,1555.642,109.22446958775299,3911.775530412247
658,1558.028,118.64488399583706,3914.355116004163
659,1560.413,87.06763958304009,3916.93236041696
660,1562.798,183.49271729844577,3919.5072827015542
661,1565.182,191.92009823573107,3922.079901764269
662,1567.564,135.3497636331772,3924.650236366823
663,1569.946,168.7816948736513,3927.2183051263487
664,1572.327,230.2158734846239,3929.784126515376
665,1574.708,118.65228113815783,3932.347718861842
666,1577.087,167.0908996509138,3934.909100349086
667,1579.465,179.5317109841476,3937.4682890158524
668,1581.843,148.97469724371103,3940.025302756289
669,1584.219,199.41984068005286,3942.580159319947
670,1586.595,138.8671236882169,3945.132876311783
671,1588.970,113.31652880784122,3947.683471192159
672,1591.344,191.76803872316532,3950.2319612768347
673,1593.717,175.22163626301926,3952.7783637369807
674,1596.089,265.6773044008319,3955.322695599168
675,1598.460,235.13502625462525,3957.8649737453748
676,1600.831,150.59478508702114,3960.405214912979
677,1603.200,193.05656430523732,3962.9434356947627
678,1605.569,232.52034746108302,3965.479652538917
679,1607.937,148.98611825096714,3968.013881749033
680,1610.304,164.45386051589458,3970.5461394841054
681,1612.670,113.92355824146443,3973.0764417585356
682,1615.035,145.39519555787547,3975.6048044421245
683,1617.399,193.86875673991517,3978.131243260085
684,1619.763,113.34422620697615,3980.655773793024
685,1622.125,142.82158852304156,3983.1784114769584
686,1624.487,117.30082839668876,3985.6991716033112
687,1626.848,124.7819306810984,3988.2180693189016
688,1629.207,159.26488037403715,3990.735119625963
689,1631.566,134.7496626178795,3993.2503373821205
690,1633.925,102.23626269958595,3995.763737300414
691,1636.282,210.7246660507176,3998.2753339492824
692,1638.638,223.21485824742967,4000.7851417525703
693,1640.994,179.7068250104753,4003.2931749895247
694,1643.348,109.20055220520362,4005.7994477947964
695,1645.702,76.69602584155791,4008.303974158442
696,1648.055,129.19323207408024,4010.8067679259198
697,1650.407,132.69215720190414,4013.307842798096
698,1652.758,122.19278766876187,4015.807212331238
699,1655.108,93.69511006298535,4018.3048899370147
700,1657.458,153.19911111749525,4020.8008888825048
701,1659.806,80.70477770981279,4023.295222290187
702,1662.154,118.21209686205702,4025.787903137943
703,1664.501,164.72105574093575,4028.2789442590642
704,1666.846,205.23164165776188,4030.768358342238
705,1669.191,176.74384206843433,4033.2561579315657
706,1671.536,112.25764457345986,4035.74235542654
707,1673.879,183.77303691793122,4038.226963082069
708,1676.221,45.29000699154176,4040.7099930084582
709,1678.563,68.808542828579,4043.191457171421
710,1680.903,64.32863260792828,4045.6713673920717
711,1683.243,171.8502646530692,4048.149735346931
712,1685.582,215.3734274320791,4050.626572567921
713,1687.920,125.8981095576305,4053.1018904423695
714,1690.258,102.42429978699101,4055.575700213009
715,1692.594,165.95198702202697,4058.048012977973
716,1694.929,156.4811603091971,4060.518839690803
717,1697.264,135.01180883955794,4062.988191160442
718,1699.598,245.54392194876118,4065.456078051239
719,1701.931,118.07748911705812,4067.922510882942
720,1704.263,186.61249996929064,4070.3875000307094
721,1706.594,155.14894427490117,4072.851055725099
722,1708.924,133.68681194792543,4075.3131880520746
723,1711.253,240.2260930469979,4077.773906953002
724,1713.582,161.7667777753427,4080.2332222246573
725,1715.910,152.3088564807872,4082.691143519213
726,1718.236,224.85231965575394,4085.147680344246
727,1720.562,107.39715793725509,4087.602842062745
728,1722.888,138.943362106907,4090.056637893093
729,1725.212,249.49092309091657,4092.5090769090834
730,1727.535,235.0398319600895,4094.9601680399105
731,1729.858,201.59007992982515,4097.409920070175
732,1732.179,237.14165836012035,4099.85834163988
733,1734.500,182.69455875556923,4102.305441244431
734,1736.820,174.2487727653588,4104.751227234641
735,1739.139,129.804292183273,4107.195707816727
736,1741.457,190.36110894769627,4109.638891052304
737,1743.775,175.91921514160094,4112.080784858399
738,1746.091,173.47860299256354,4114.5213970074365
739,1748.407,248.0392648727502,4116.96073512725
740,1750.722,231.60119329892768,4119.398806701072
741,1753.036,230.16438093245597,4121.835619067544
742,1755.349,172.7288205792902,4124.27117942071
743,1757.661,139.2945051899842,4126.705494810016
744,1759.972,158.86142785968514,4129.138572140315
745,1762.283,155.42958182814073,4131.570418171859
746,1764.592,178.99896047969196,4134.001039520308
747,1766.901,195.56955734327312,4136.430442656727
748,1769.209,122.14136609241905,4138.858633907581
749,1771.516,132.71438054525788,4141.285619454742
750,1773.823,171.28859466451286,4143.711405335487
751,1776.128,131.86400255750777,4146.135997442492
752,1778.432,171.4405984761579,4148.559401523842
753,1780.736,141.01837681697543,4150.981623183025
754,1783.039,148.59733212106948,4153.4026678789305
755,1785.341,86.1774590741461,4155.822540925854
756,1787.642,108.75875250650643,4158.241247493494
757,1789.942,57.3412073930449,4160.658792606955
758,1792.242,70.92481885325651,4163.0751811467435
759,1794.540,14.50958215123137,4165.490417848769
760,1796.838,61.095492695651046,4167.904507304349
761,1799.135,34.68254603979767,4170.317453960202
762,1801.431,56.2707378815503,4172.72926211845
763,1803.726,24.86006406337947,4175.1399359366205
764,1806.020,142.45052057235625,4177.549479427644
765,1808.314,47.042103540143216,4179.957896459857
766,1810.607,47.634809243003474,4182.3651907569965
767,1812.898,81.22863410179161,4184.771365898208
768,1815.189,0.0,4187.176425318037
769,1817.479,0.0,4189.580372306433
770,1819.769,0.0,4191.983210008755
771,1822.057,0.0,4194.384941425757
772,1824.345,0.0,4196.785569413605
773,1826.631,63.814903316135315,4199.185096683865
774,1828.917,54.416474196490526,4201.5835258035095
775,1831.202,25.019140805088682,4203.980859194911
776,1833.486,0.0,4206.377099135851
777,1835.770,0.0,4208.772247759509
778,1838.052,0.0,4211.166307054475
779,1840.334,131.4407211352609,4213.559278864739
780,1842.615,7.048835110304935,4215.951164889695
781,1844.895,0.0,4218.341966684142
782,1847.174,0.0,4220.731685658286
783,1849.452,15.879676922273575,4223.120323077726
784,1851.730,21.492119936518066,4225.507880063482
785,1854.006,3.1056424080361467,4227.894357591964
786,1856.282,12.72024350501124,4230.279756494989
787,1858.557,42.3359225402146,4232.664077459785
788,1860.831,33.95267897102531,4235.047321028975
789,1863.104,52.57051239941029,4237.42948760059
790,1865.377,35.18942257193339,4239.810577428067
791,1867.648,88.80940937975902,4242.190590620241
792,1869.919,120.4304728586394,4244.569527141361
793,1872.189,135.0526131889328,4246.947386811067
794,1874.458,48.67583069558896,4249.324169304411
795,1876.726,39.3001258481454,4251.699874151855
796,1878.993,126.92549926075299,4254.074500739247
797,1881.260,7.5519516921431205,4256.448048307857
798,1883.526,100.17948404565323,4258.820515954347
799,1885.791,70.80809736920855,4261.191902630791
800,1888.055,122.43779285533674,4263.562207144663
801,1890.318,129.0685718411587,4265.931428158841
802,1892.580,55.700435808390466,4268.2995641916095
803,1894.842,77.33338638334862,4270.666613616651
804,1897.103,184.9674253369394,4273.032574663061
805,1899.362,117.60255458466963,4275.39744541533
806,1901.621,226.2387761866412,4277.761223813359
807,1903.880,60.876092347551094,4280.123907652449
808,1906.137,189.51450541669146,4282.4854945833085
809,1908.394,114.15401788795316,4284.845982112047
810,1910.649,152.79463239982033,4287.20536760018
811,1912.904,82.43635173537768,4289.563648264622
812,1915.158,73.07917882229594,4291.920821177704
813,1917.411,216.7231167328573,4294.276883267143
814,1919.664,65.36816868392634,4296.631831316074
815,1921.915,159.01433803696636,4298.985661963034
816,1924.166,151.66162829804307,4301.338371701957
817,1926.416,140.3100431178118,4303.689956882188
818,1928.665,144.95958629152847,4306.0404137084715
819,1930.913,78.61026175903862,4308.389738240961
820,1933.161,84.2620736047902,4310.73792639521
821,1935.407,130.91502605782625,4313.084973942174
822,1937.653,76.56912349178128,4315.430876508219
823,1939.898,99.22437042489219,4317.775629575108
824,1942.142,129.8807715199855,4320.1192284800145
825,1944.386,84.53833158448833,4322.461668415512
826,1946.628,87.19705557042289,4324.802944429577
827,1948.870,55.85694857440285,4327.143051425597
828,1951.111,56.51801583764609,4329.481984162354
829,1953.351,152.18026274596195,4331.819737254038
830,1955.590,5.843694829754895,4334.156305170245
831,1957.828,131.5083177640263,4336.491682235974
832,1960.066,79.17413736837261,4338.825862631627
833,1962.302,77.84115960699273,4341.158840393007
834,1964.538,68.5093905886697,4343.49060941133
835,1966.773,178.17883656679442,4345.821163433206
836,1969.007,48.849503939345595,4348.150496060654
837,1971.241,187.5213992489007,4350.478600751099
838,1973.473,161.19452918263596,4352.805470817364
839,1975.705,116.86890057231903,4355.131099427681
840,1977.936,229.54452039431635,4357.455479605684
841,1980.166,111.22139576958944,4359.778604230411
842,1982.396,91.89953396369674,4362.100466036303
843,1984.624,102.57894238679182,4364.421057613208
844,1986.852,137.25962859362335,4366.740371406377
845,1989.079,116.94160028353872,4369.058399716461
846,1991.305,61.62486530047681,4371.375134699523
847,1993.530,75.3094316329807,4373.690568367019
848,1995.754,106.99530741417948,4376.0046925858205
849,1997.978,48.6825009218046,4378.317499078195
850,2000.201,58.37102057818083,4380.628979421819
851,2002.423,58.06087495023348,4382.9391250497665
852,2004.644,129.7520727494757,4385.247927250524
853,2006.864,52.44462283202665,4387.555377167973
854,2009.084,105.13853419858788,4389.861465801412
855,2011.302,0.0,4392.166184005524
856,2013.520,97.53047750958467,4394.469522490415
857,2015.737,135.22852817841704,4396.771471821583
858,2017.954,152.92797758006236,4399.072022419938
859,2020.169,106.62883543821408,4401.371164561786
860,2022.384,104.3311116211571,4403.668888378843
861,2024.597,129.03481614177144,4405.965183858229
862,2026.810,24.739959157539488,4408.2600408424605
863,2029.023,46.44655097053146,4410.5534490294685
864,2031.234,59.15460202741633,4412.845397972584
865,2033.445,82.86412291946544,4415.135877080535
866,2035.654,99.57512438253616,4417.424875617464
867,2037.863,119.2876172970864,4419.712382702914
868,2040.071,157.00161268817283,4421.998387311827
869,2042.279,73.7171217254454,4424.282878274555
870,2044.485,177.43415572314916,4426.565844276851
871,2046.691,24.152726140124287,4428.847273859876
872,2048.896,70.8728445798115,4431.1271554201885
873,2051.100,120.59452279024481,4433.405477209755
874,2053.303,167.3177726640497,4435.68222733595
875,2055.506,150.0426062384613,4437.957393761539
876,2057.707,179.7690356952935,4440.2309643047065
877,2059.908,130.497073360968,4442.502926639032
878,2062.108,246.22673170649796,4444.773268293502
879,2064.308,103.95802334749351,4447.0419766525065
880,2066.506,118.69096104416167,4449.309038955838
881,2068.704,80.42555770130275,4451.574442298697
882,2070.900,83.16182636831763,4453.838173631682
883,2073.096,177.89978023919866,4456.100219760801
884,2075.292,168.6394326525351,4458.360567347465
885,2077.486,202.38079709151862,4460.619202908481
886,2079.680,75.12388718392322,4462.876112816077
887,2081.873,146.8687167021326,4465.131283297867
888,2084.065,155.61529956311824,4467.384700436882
889,2086.256,126.36364982845225,4469.636350171548
890,2088.446,163.1137817043018,4471.886218295698
891,2090.636,133.86570954142735,4474.134290458573
892,2092.825,173.61944783518447,4476.3805521648155
893,2095.013,131.37501122553294,4478.624988774467
894,2097.200,172.13241449701854,4480.8675855029815
895,2099.386,154.89167257879308,4483.108327421207
896,2101.572,115.65280054459254,4485.3471994554075
897,2103.756,66.41581361275894,4487.584186387241
898,2105.940,232.18072714622576,4489.819272853774
899,2108.124,62.9475566525216,4492.052443347478
900,2110.306,67.71631778377741,4494.283682216223
901,2112.488,108.48702633671019,4496.51297366329
902,2114.668,109.25969825263928,4498.740301747361
903,2116.848,100.0343496174828,4500.965650382517
904,2119.028,107.81099666174669,4503.189003338253
905,2121.206,218.58965576054288,4505.410344239457
906,2123.384,97.37034343356754,4507.6296565664325
907,2125.561,90.15307634512283,4509.846923654877
908,2127.737,103.93787130410237,4512.062128695898
909,2129.912,68.72474526399492,4514.275254736005
910,2132.086,79.51371532288977,4516.48628467711
911,2134.260,151.30479872346586,4518.695201276534
912,2136.433,118.09801285300637,4520.901987146994
913,2138.605,157.89337524338407,4523.106624756616
914,2140.776,137.69090357106506,4525.309096428935
915,2142.946,32.49061565712327,4527.509384342877
916,2145.116,126.29252946721317,4529.707470532787
917,2147.285,103.09666311160072,4531.903336888399
918,2149.453,137.90303484513242,4534.096965154868
919,2151.620,108.71166306726627,4536.288336932734
920,2153.787,51.5225663220499,4538.47743367795
921,2155.952,99.33576329811694,4540.664236701883
922,2158.117,108.15127282871254,4542.8487271712875
923,2160.281,75.96911389166962,4545.03088610833
924,2162.445,96.78930560941808,4547.210694390582
925,2164.607,0.0,4549.3881327510135
926,2166.769,24.436818221995054,4551.563181778005
927,2168.930,2.2641780846661277,4553.735821915334
928,2171.090,81.09396653781005,4555.90603346219
929,2173.250,85.92620342683767,4558.073796573162
930,2175.408,76.76090874175861,4560.239091258241
931,2177.566,0.0,4562.401897382826
932,2179.723,0.0,4564.562194667718
933,2181.879,103.28003731087847,4566.7199626891215
934,2184.035,73.12481912135263,4568.875180878647
935,2186.189,44.97217147669471,4571.027828523305
936,2188.343,145.82211523448132,4573.177884765519
937,2190.496,110.67467139689688,4575.325328603103
938,2192.649,13.529861110711863,4577.470138889288
939,2194.800,35.38770566729727,4579.612294332703
940,2196.951,15.248226502626494,4581.7517734973735
941,2199.101,51.11144519725349,4583.8885548027465
942,2201.250,26.977383476343675,4586.022616523656
943,2203.398,10.846063209648491,4588.1539367903515
944,2205.546,88.7175064115163,4590.282493588484
945,2207.693,103.59173524089965,4592.4082647591
946,2209.839,9.46877200133531,4594.531227998665
947,2211.984,91.34863914096968,4596.65136085903
948,2214.128,74.23135925252973,4598.76864074747
949,2216.272,151.11695507335025,4600.88304492665
950,2218.415,82.00544948535935,4602.994550514641
951,2220.557,10.89686551507475,4605.103134484925
952,2222.698,60.791226333620216,4607.20877366638
953,2224.839,0.0,4609.311444743289
954,2226.979,17.588875744653706,4611.411124255346
955,2229.118,50.49221140235932,4613.507788597641
956,2231.256,67.39858597932471,4615.601414020675
957,2233.393,112.30802336965644,4617.691976630344
958,2235.530,133.22054761204708,4619.779452387953
959,2237.666,35.13618288978432,4621.863817110216
960,2239.801,58.05495353075821,4623.945046469242
961,2241.935,44.97688400745028,4626.02311599255
962,2244.069,7.9019989369407995,4628.098001063059
963,2246.201,74.83032308090151,4630.1696769190985
964,2248.333,130.76188134561016,4632.23811865439
965,2250.465,107.6966987819269,4634.303301218073
966,2252.595,62.63480058531604,4636.365199414684
967,2254.725,70.57621209584067,4638.423787904159
968,2256.854,6.520958798148058,4640.479041201852
969,2258.982,0.0,4642.530933678501
970,2261.109,69.42056043973571,4644.579439560264
971,2263.236,131.37546707129877,4646.624532928701
972,2265.361,51.33381227923019,4648.66618772077
973,2267.486,39.295622271163666,4650.704377728836
974,2269.611,152.26092339933166,4652.739076600668
975,2271.734,105.22974216056355,4654.770257839436
976,2273.857,71.2021051962729,4656.797894803727
977,2275.979,67.17803929249203,4658.821960707508
978,2278.100,11.15757137982655,4660.842428620173
979,2280.220,24.14072853348989,4662.85927146651
980,2282.340,5.127537973292419,4664.872462026708
981,2284.459,69.11802706363233,4666.881972936368
982,2286.577,126.11222331351382,4668.887776686486
983,2288.694,138.11015437652532,4670.889845623475
984,2290.810,129.11184805086668,4672.888151949133
985,2292.926,79.11733227931836,4674.882667720682
986,2295.041,40.126635149266804,4676.873364850733
987,2297.155,34.13978489268993,4678.86021510731
988,2299.269,0.0,4680.843190113839
989,2301.381,44.177738650854735,4682.822261349145
990,2303.493,4.202599852536878,4684.797400147463
991,2305.604,142.23142230157282,4686.768577698427
992,2307.715,59.26423495291965,4688.73576504708
993,2309.824,64.30106690612956,4690.69893309387
994,2311.933,106.34194740535895,4692.658052594641
995,2314.041,44.38690583935204,4694.613094160648
996,2316.149,129.43597174145725,4696.564028258543
997,2318.255,0.0,4698.510825210391
998,2320.361,62.546544806340535,4700.4534551936595
999,2322.466,12.608111758787345,4702.391888241213
1000,2324.570,117.67390575867648,4704.3260942413235
1001,2326.674,27.7439570623319,4706.256042937668
1002,2328.776,0.0,4708.181703929329
1003,2330.878,2.896953329205644,4710.103046670794
1004,2332.979,139.97995952805468,4712.020040471945
1005,2335.080,50.06734550192414,4713.932654498076
1006,2337.179,78.1591422301135,4715.8408577698865
1007,2339.278,109.25538083652282,4717.744619163477
1008,2341.376,67.35609258964905,4719.643907410351
1009,2343.474,101.46130890258792,4721.538691097412
1010,2345.570,103.57106133301386,4723.428938666986
1011,2347.666,37.685381583223716,4725.314618416776
1012,2349.761,70.80430150009488,4727.195698499905
1013,2351.856,99.92785307509621,4729.072146924904
1014,2353.949,79.05606844430258,4730.943931555697
1015,2356.042,93.18897988838398,4732.811020111616
1016,2358.134,101.32661983260004,4734.6733801674
1017,2360.225,70.4690208468146,4736.530979153185
1018,2362.316,83.61621564547568,4738.383784354524
1019,2364.406,25.768237087644593,4740.231762912355
1020,2366.495,0.0,4742.074881823039
1021,2368.583,80.086892061674,4743.913107938326
1022,2370.670,131.2535920346163,4745.746407965384
1023,2372.757,0.0,4747.57474846677
