# kind,background_subtracted
# version_label,v1_ipbsa5
# poly_order,5
# iterations_run,10
pixel_index,raman_shift_cm-1,intensity,background_intensity
0,-224.846,6.829268074890649,90.17073192510935
1,-221.778,6.721920449695247,90.27807955030475
2,-218.712,6.614927397233856,90.38507260276614
3,-215.647,8.508287250725829,90.49171274927417
4,-212.583,4.401998350621341,90.59800164937866
5,-209.521,7.296059044585917,90.70394095541408
6,-206.460,5.190467687484897,90.8095323125151
7,-203.399,5.085222641367906,90.9147773586321
8,-200.340,5.980322275453361,91.01967772454664
9,-197.283,5.875764966112982,91.12423503388702
10,-194.226,5.7715490968562335,91.22845090314377
11,-191.171,5.667673058314847,91.33232694168515
12,-188.116,5.564135248227302,91.4358647517727
13,-185.064,6.4609340714232815,91.53906592857672
14,-182.012,7.3580679398082225,91.64193206019178
15,-178.961,6.255535272347728,91.74446472765227
16,-175.912,3.1533344950521354,91.84666550494786
17,-172.864,6.051464040960937,91.94853595903906
18,-169.817,3.9499223501273093,92.05007764987269
19,-166.771,4.848707869602563,92.15129213039744
20,-163.726,3.7478190534206703,92.25218094657933
21,-160.683,4.647254362582757,92.35274563741724
22,-157.641,1.5470122650415306,92.45298773495847
23,-154.600,5.447091235685832,92.55290876431417
24,-151.560,3.347489756325075,92.65251024367493
25,-148.521,5.248206315673784,92.75179368432622
26,-145.484,5.149239409336033,92.85076059066397
27,-142.447,4.050587539789973,92.94941246021003
28,-139.412,2.9522492163722944,93.0477507836277
29,-136.379,5.854222955262713,93.14577704473729
30,-133.346,4.7565072794684795,93.24349272053152
31,-130.314,3.6591007188088582,93.34089928119114
32,-127.284,2.5620018098995985,93.4379981901004
33,-124.255,3.4652090961374284,93.53479090386257
34,-121.227,4.368721127684594,93.6312788723154
35,-118.200,3.2725364614532566,93.72746353854674
36,-115.175,3.176653661090029,93.82334633890997
37,-112.150,5.081071296960488,93.91892870303951
38,-109.127,1.9857879461336267,94.01421205386637
39,-106.105,2.890802192366337,94.10919780763366
40,-103.084,2.796112626087904,94.2038873739121
41,-100.065,2.7017178443845467,94.29828215561545
42,-97.046,2.6076164509838264,94.39238354901617
43,-94.029,2.513807056239145,94.48619294376086
44,-91.013,4.4202882771143095,94.57971172288569
45,-87.998,3.327058737167917,94.67294126283208
46,-84.984,3.2341170665379337,94.76588293346207
47,-81.972,2.1414619019261067,94.8585380980739
48,-78.960,1.0490918865825023,94.9509081134175
49,-75.950,3.9570056702899876,95.04299432971001
50,-72.941,1.86520190934867,95.13479809065133
51,-69.933,0.0,95.22632073343954
52,-66.927,0.0,95.31756358878648
53,-63.921,1.5914720190667282,95.40852798093327
54,-60.917,3.500784772334214,95.49921522766579
55,-57.914,1.410373359669805,95.5896266403302
56,-54.912,0.3202364761515639,95.67976352384844
57,-51.911,1.2303728232662081,95.76962717673379
58,-48.912,0.14078110889366258,95.85921889110634
59,-45.913,1.0514600472915276,95.94853995270847
60,-42.916,0.962408359079518,96.03759164092048
61,-39.920,6.87362477122403,96.12637522877597
62,-36.925,9.78510801702258,96.21489198297742
63,-33.931,8.696856836088301,96.3031431639117
64,-30.939,11.608869974334453,96.39113002566555
65,-27.947,16.521146183958834,96.47885381604117
66,-24.957,19.4336842234284,96.5663157765716
67,-21.968,12.346482857463627,96.65351714253637
68,-18.980,2.2595408570230546,96.74045914297695
69,-15.993,3.172856999287788,96.82714300071221
70,-13.008,0.0864300676459493,96.91356993235405
71,-10.023,1.000258851677188,96.99974114832281
72,-7.040,0.0,97.08565785286282
73,-4.058,0.0,97.17132124405796
74,-1.077,0.0,97.25673251384706
75,1.903,0.6581071519604933,97.3418928480395
76,4.881,0.0,97.42680342633075
77,7.859,0.48853457768225894,97.51146542231774
78,10.835,1.4041199964854485,97.59588000351455
79,13.810,0.0,97.68004833136779
80,16.784,0.23602843872784263,97.76397156127216
81,19.757,0.0,97.84765084258596
82,22.728,0.0,97.93108731864665
83,25.699,0.0,98.01428212678623
84,28.668,0.0,98.09723639834692
85,31.636,0.0,98.17995125869655
86,34.603,0.7375721727559039,98.2624278272441
87,37.569,0.0,98.34466721745525
88,40.534,0.0,98.42667053686786
89,43.497,0.0,98.50843888710749
90,46.460,0.0,98.58997336390289
91,49.421,0.0,98.67127505710155
92,52.381,0.0,98.75234505068522
93,55.340,0.16681557721464912,98.83318442278535
94,58.297,0.0,98.91379424569868
95,61.254,0.0,98.99417558590272
96,64.209,0.0,99.07432950407124
97,67.164,0.8457429449101568,99.15425705508984
98,70.117,0.7660407119285821,99.23395928807142
99,73.069,2.686562753628337,99.31343724637166
100,76.020,3.607308032395366,99.39269196760463
101,78.969,4.528275516341765,99.47172448365824
102,81.918,5.449464179290288,99.55053582070971
103,84.865,6.37087300075882,99.62912699924118
104,87.811,4.292500965944868,99.70749903405513
105,90.757,4.2143470657100295,99.78565293428997
106,93.700,6.136410296564492,99.86358970343551
107,96.643,5.058689660651552,99.94131033934845
108,99.585,2.9811841657320457,100.01881583426795
109,102.525,4.903892825168896,100.0961071748311
110,105.465,4.826814657911527,100.17318534208847
111,108.403,3.74994868848043,100.25005131151957
112,111.340,4.673293946951631,100.32670605304837
113,114.276,6.596849468941102,100.4031505310589
114,117.211,4.520614295589382,100.47938570441062
115,120.144,4.444587473545951,100.55541252645405
116,123.077,4.368768054953762,100.63123194504624
117,126.008,6.293155097433754,100.70684490256625
118,128.938,3.2177476640692646,100.78225233593074
119,131.868,5.142544823390637,100.85745517660936
120,134.795,5.067545649359559,100.93245435064044
121,137.722,5.992749221353691,101.00725077864631
122,140.648,5.918154624151057,101.08184537584894
123,143.572,2.843760947914575,101.15623905208543
124,146.496,3.769567288176532,101.23043271182347
125,149.418,4.6955727458231,101.3044272541769
126,152.339,4.621776427078757,101.37822357292124
127,155.259,2.5481774434908715,101.45182255650913
128,158.178,4.474774911914082,101.52522508808592
129,161.096,5.401567954494894,101.5984320455051
130,164.012,3.3285556986560607,101.67144430134394
131,166.928,3.2557372770811526,101.74426272291885
132,169.842,6.183111827699008,101.81688817230099
133,172.755,5.110678493668246,101.88932150633175
134,175.667,5.038436423361716,101.96156357663828
135,178.578,1.966384770351013,102.03361522964899
136,181.488,5.894522693390954,102.10547730660905
137,184.397,6.822849356404092,102.17715064359591
138,187.304,5.751363928465139,102.24863607153486
139,190.211,4.680065583785549,102.31993441621445
140,193.116,3.6089535016979255,102.39104649830207
141,196.020,6.5380268666405215,102.46197313335948
142,198.923,6.467284868141789,102.53271513185821
143,201.825,7.396726700804791,102.60327329919521
144,204.726,4.326351564291713,102.67364843570829
145,207.625,6.256158663308383,102.74384133669162
146,210.524,4.186147207588718,102.81385279241128
147,213.421,7.116316411879211,102.88368358812079
148,216.318,3.0466654959234916,102.95333450407651
149,219.213,2.977193684446675,103.02280631555332
150,222.107,5.907900207140003,103.09209979286
151,225.000,4.838784298645237,103.16121570135476
152,227.891,4.769845198539159,103.23015480146084
153,230.782,3.701082151318076,103.29891784868192
154,233.672,4.632494406382307,103.3675055936177
155,236.560,5.564081218020661,103.43591878197934
156,239.447,5.495841845394949,103.50415815460505
157,242.333,3.4277755525243947,103.5722244474756
158,245.218,3.359881608270257,103.64011839172974
159,248.102,6.292159286320199,103.7078407136798
160,250.985,6.2246078651728,103.7753921348272
161,253.867,5.157226628122103,103.8427733718779
162,256.748,4.090014863242033,103.90998513675797
163,259.627,5.022971863370913,103.97702813662909
164,262.505,6.956096926095967,104.04390307390403
165,265.383,3.889389353737755,104.11061064626224
166,268.259,6.822848453334757,104.17715154666524
167,271.134,4.756473536627752,104.24352646337225
168,274.008,7.690263920044359,104.30973607995564
169,276.880,6.624218924683532,104.37578107531647
170,279.752,8.558337876300058,104.44166212369994
171,282.623,4.492620105288964,104.50737989471104
172,285.492,6.427064946670129,104.57293505332987
173,288.360,5.36167174007268,104.63832825992732
174,291.228,8.296439829719475,104.70356017028053
175,294.094,7.231368564411682,104.76863143558832
176,296.959,4.166457297513148,104.83354270248685
177,299.823,7.101705386934995,104.898294613065
178,302.685,4.037112195120031,104.96288780487997
179,305.547,6.972677089027272,105.02732291097273
180,308.408,3.908399440116412,105.09160055988359
181,311.267,5.844278624332361,105.15572137566764
182,314.126,4.780314022089627,105.21968597791037
183,316.983,6.716505018256939,105.28349498174306
184,319.839,2.652851002141631,105.34714899785837
185,322.694,4.589351367474151,105.41064863252585
186,325.548,4.526005512392601,105.4739944876074
187,328.401,4.4628128394271585,105.53718716057284
188,331.253,3.399772755484605,105.6002272445154
189,334.103,1.3368846718327916,105.66311532816721
190,336.953,0.2741480040851485,105.72585199591485
191,339.801,5.21156217218514,105.78843782781486
192,342.649,3.149126600390801,105.8508733996092
193,345.495,4.086840717259179,105.91315928274082
194,348.340,1.0247039556308408,105.97529604436916
195,351.184,2.9627157526143577,106.03728424738564
196,354.027,2.9008755495707845,106.09912445042922
197,356.869,1.8391827920981996,106.1608172079018
198,359.709,1.7776369300161008,106.2223630699839
199,362.549,4.716237417349959,106.28376258265004
200,365.388,1.6549837123157118,106.34501628768429
201,368.225,1.5938752773041927,106.40612472269581
202,371.061,3.5329115788656935,106.4670884211343
203,373.897,2.4720920876943637,106.52790791230564
204,376.731,3.411416278612805,106.5885837213872
205,379.564,3.350883630556467,106.64911636944353
206,382.396,4.290493626558188,106.70950637344181
207,385.227,2.230245753732646,106.76975424626735
208,388.057,3.17013950326087,106.82986049673913
209,390.885,4.11017437037475,106.88982562962525
210,393.713,4.050349854341476,106.94965014565852
211,396.539,4.990665458448035,107.00933454155197
212,399.365,2.9311206899857325,107.06887931001427
213,402.189,1.8717150602346777,107.12828493976532
214,405.012,3.8124480844481923,107.18755191555181
215,407.835,4.753319281837435,107.24668071816257
216,410.656,2.6943281755557678,107.30567182444423
217,413.476,3.63547429268327,107.36452570731673
218,416.295,3.576757164211301,107.4232428357887
219,419.112,0.5181763250269,107.4818236749731
220,421.929,5.459731313897322,107.54026868610268
221,424.745,1.4014216734544789,107.59857832654552
222,427.559,0.34324695017947704,107.65675304982052
223,430.373,1.2852066943870994,107.7147933056129
224,433.185,2.227300460210273,107.77269953978973
225,435.996,0.1695278055845364,107.83047219441546
226,438.807,3.1118882922326065,107.8881117077674
227,441.616,2.0543814856487757,107.94561851435122
228,444.424,1.9970069550834353,108.00299304491656
229,447.231,1.939764273527615,108.06023572647238
230,450.037,1.8826530176973506,108.11734698230265
231,452.842,2.8256727680182934,108.1743272319817
232,455.645,0.7688231086101496,108.23117689138985
233,458.448,0.7121036272711336,108.28789637272887
234,461.250,3.655513915462521,108.34448608453748
235,464.050,0.0,108.40094643170693
236,466.849,3.542722184503603,108.4572778154964
237,469.648,2.4865193664513754,108.51348063354862
238,472.445,3.430444720094627,108.56955527990537
239,475.241,4.374497854977108,108.62550214502289
240,478.036,5.31867838421249,108.68132161578751
241,480.830,4.262985924468893,108.7370140755311
242,483.623,6.207420095953367,108.79257990404663
243,486.415,8.1519805223964,108.8480194776036
244,489.206,12.096666831036373,108.90333316896363
245,491.996,31.04147865260404,108.95852134739596
246,494.784,49.986415621307074,109.01358437869293
247,497.572,62.93147737481449,109.06852262518551
248,500.358,82.87666355424119,109.12333644575881
249,503.144,117.8219738041324,109.1780261958676
250,505.928,163.7674077724482,109.2325922275518
251,508.712,185.71296511054794,109.28703488945207
252,511.494,142.65864547317483,109.34135452682519
253,514.275,68.60444851844034,109.39555148155966
254,517.055,29.55037390780879,109.44962609219121
255,519.834,12.496421306081714,109.50357869391829
256,522.612,6.442590381382416,109.55740961861758
257,525.389,8.388880805140431,109.61111919485957
258,528.165,8.335292252076073,109.66470774792393
259,530.940,5.281824400184874,109.71817559981513
260,533.713,0.22847693072202446,109.77152306927798
261,536.486,4.175249528186967,109.82475047181303
262,539.257,2.122141880307808,109.87785811969219
263,542.028,3.0691536780258275,109.93084632197417
264,544.797,1.0162846154800036,109.98371538452
265,547.566,1.963534389991409,110.03646561000859
266,550.333,1.9109027020477782,110.08909729795222
267,553.099,0.8583892552879888,110.14161074471201
268,555.864,2.805993756486515,110.19400624351348
269,558.629,1.7537159155379243,110.24628408446208
270,561.392,2.701555445441386,110.29844455455861
271,564.154,1.6495120622851545,110.35048793771485
272,566.915,2.597585485231022,110.40241451476898
273,569.674,0.5457754364988574,110.45422456350114
274,572.433,0.0,110.50591835864896
275,575.191,0.0,110.55749617192298
276,577.948,0.3910417279777505,110.60895827202225
277,580.703,0.33969507535013577,110.66030492464986
278,583.458,2.2884636074716553,110.71153639252834
279,586.211,0.0,110.7626529354153
280,588.964,0.1863451898811661,110.81365481011883
281,591.715,2.1354577294868875,110.86454227051311
282,594.466,1.0846844324461387,110.91531556755386
283,597.215,0.03402505070614836,110.96597494929385
284,599.963,0.0,111.0165206608985
285,602.710,0.9330470553387897,111.06695294466121
286,605.457,1.8827279599809117,111.11727204001909
287,608.202,2.8325218164316652,111.16747818356833
288,610.946,2.7824283909202308,111.21757160907977
289,613.689,1.7324474524856583,111.26755254751434
290,616.431,0.0,111.3174212270387
291,619.172,0.0,111.36717787304059
292,621.911,1.5831772918554776,111.41682270814452
293,624.650,1.533644047772853,111.46635595222715
294,627.388,2.484222177567176,111.51577782243282
295,630.125,3.43491146681086,111.56508853318914
296,632.860,1.385711703777588,111.61428829622241
297,635.595,1.3366226794268243,111.66337732057318
298,638.328,1.2876441873882385,111.71235581261176
299,641.061,0.0,111.76122397605371
300,643.792,2.190017988024593,111.8099820119754
301,646.523,0.14136988117053306,111.85863011882947
302,649.252,1.0928315075396569,111.90716849246034
303,651.980,2.044402673880228,111.95559732611977
304,654.708,0.9960831895176341,112.00391681048237
305,657.434,0.947872866338983,112.05212713366102
306,660.159,0.8997715187774844,112.10022848122252
307,662.883,3.851778963797017,112.14822103620298
308,665.606,2.8038950208765527,112.19610497912345
309,668.328,2.7561195119946973,112.2438804880053
310,671.049,0.0,112.29154773838584
311,673.769,0.0,112.33910690333377
312,676.488,0.6134418465352525,112.38655815346475
313,679.206,0.5660983430431799,112.43390165695682
314,681.923,0.0,112.48113757956602
315,684.639,1.4717339153581719,112.52826608464183
316,687.354,0.0,112.57528733314271
317,690.067,1.377798516348406,112.6222014836516
318,692.780,0.0,112.66900869239142
319,695.492,0.0,112.71570911324064
320,698.202,0.0,112.76230289774873
321,700.912,2.1912098048483273,112.80879019515167
322,703.621,0.14482884761244463,112.85517115238756
323,706.328,0.09855408588803982,112.90144591411196
324,709.035,0.052385377286412904,112.94761462271359
325,711.740,0.006322581670318073,112.99367741832968
326,714.444,0.9603655611383743,113.03963443886163
327,717.148,0.9145141800096184,113.08548581999038
328,719.850,0.0,113.13123169519204
329,722.552,0.0,113.1768721957533
330,725.252,1.777592549212926,113.22240745078707
331,727.951,0.0,113.26783758724784
332,730.649,0.0,113.3131627299473
333,733.347,0.0,113.35838300156985
334,736.043,1.596501477311989,113.40349852268801
335,738.738,1.5514905882219097,113.44850941177809
336,741.432,1.5065842147644304,113.49341578523557
337,744.125,0.4617822426093454,113.53821775739065
338,746.817,4.417084559476166,113.58291544052383
339,749.508,1.372491055118715,113.62750894488128
340,752.198,0.3280016213094825,113.67199837869052
341,754.887,0.2836161518242193,113.71638384817578
342,757.575,0.0,113.76066545757365
343,760.262,0.19515669085156162,113.80484330914844
344,762.948,0.15108249679215646,113.84891750320784
345,765.633,0.10711186188162003,113.89288813811838
346,768.317,1.0632446896791379,113.93675531032086
347,770.999,1.0194808856540192,113.98051911434598
348,773.681,1.9758203571702069,114.0241796428298
349,776.362,1.9322630134707595,114.06773698652924
350,779.042,0.0,114.11119123433765
351,781.720,0.8454575266997608,114.15454247330024
352,784.398,1.8022092113703678,114.19779078862963
353,787.075,3.7590637362786055,114.2409362637214
354,789.751,0.716021019830464,114.28397898016954
355,792.425,2.6730809822180106,114.32691901778199
356,795.099,1.6302435454038147,114.36975645459619
357,797.771,0.0,114.4124913668945
358,800.443,3.5448761707801992,114.4551238292198
359,803.114,0.5023460856090338,114.49765391439097
360,805.783,3.459918306481626,114.54008169351837
361,808.452,2.417592763980565,114.58240723601944
362,811.119,3.37536939036589,114.62463060963411
363,813.786,1.3332481195596557,114.66675188044034
364,816.451,1.2912288871302735,114.70877111286973
365,819.116,3.249311630277134,114.75068836972287
366,821.779,0.20749628781504725,114.79250371218495
367,824.442,2.1657828001586807,114.83421719984132
368,827.103,0.0,114.87582889069284
369,829.763,3.082661158828401,114.9173388411716
370,832.423,4.041252893843762,114.95874710615624
371,835.081,1.9999462610124539,115.00005373898755
372,837.739,0.9587412085159883,115.04125879148401
373,840.395,0.9176376860427098,115.08236231395729
374,843.050,0.0,115.1233643552277
375,845.705,2.8357350373602657,115.16426496263973
376,848.358,2.794935817922365,115.20506418207763
377,851.010,1.7542379420191594,115.24576205798084
378,853.662,0.0,115.28635863335953
379,856.312,0.0,115.3268539498101
380,858.961,4.632751952469249,115.36724804753075
381,861.610,2.5924590346630794,115.40754096533692
382,864.257,1.5522672593231874,115.44773274067681
383,866.903,0.5121765903530502,115.48782340964695
384,869.549,0.0,115.52781300700764
385,872.193,0.0,115.56770156619854
386,874.836,2.392510880645915,115.60748911935409
387,877.478,1.3528243026809008,115.6471756973191
388,880.120,2.313238670335764,115.68676132966424
389,882.760,2.2737539552984884,115.72624604470151
390,885.399,4.234370130500167,115.76562986949983
391,888.037,3.195087170099498,115.8049128299005
392,890.675,2.155905049467293,115.8440949505327
393,893.311,3.1168237451709757,115.88317625482902
394,895.946,1.0778432349589622,115.92215676504104
395,898.580,5.0389634977453,115.9610365022547
396,901.214,3.0001845135940783,115.99981548640592
397,903.846,4.961506263703882,116.03849373629612
398,906.477,4.922928730392357,116.07707126960764
399,909.107,2.884451897080666,116.11554810291933
400,911.737,1.84607574827794,116.15392425172206
401,914.365,3.807800269565817,116.19219973043418
402,916.992,2.7696254475829107,116.23037455241709
403,919.618,6.731551270009305,116.2684487299907
404,922.244,5.693577725550995,116.306422274449
405,924.868,3.655704803924465,116.34429519607554
406,927.491,9.617932495841117,116.38206750415888
407,930.113,8.580260792991737,116.41973920700826
408,932.735,6.542689688031047,116.45731031196895
409,935.355,9.505219174562129,116.49478082543787
410,937.974,10.467849247120967,116.53215075287903
411,940.592,7.430579901160897,116.5694200988391
412,943.210,6.3934111330371195,116.60658886696288
413,945.826,10.356342939991151,116.64365706000885
414,948.441,9.319375320135379,116.68062467986462
415,951.056,10.282508272437468,116.71749172756253
416,953.669,9.245741796704891,116.75425820329511
417,956.281,9.209075893569462,116.79092410643054
418,958.893,11.172510564471693,116.8274894355283
419,961.503,8.136045811645431,116.86395418835457
420,964.112,10.099681638102254,116.90031836189775
421,966.721,9.063418047615983,116.93658195238402
422,969.328,10.027255044707175,116.97274495529282
423,971.935,8.991192634627595,117.0088073653724
424,974.540,8.955230823344706,117.0447691766553
425,977.144,6.919369617526229,117.08063038247377
426,979.748,6.8836090245244606,117.11639097547554
427,982.350,8.847949052360974,117.15205094763903
428,984.952,3.8123897097109136,117.18761029028909
429,987.552,5.776931005887633,117.22306899411237
430,990.152,3.7415729508270914,117.25842704917291
431,992.750,6.706315555072365,117.29368444492764
432,995.348,2.6711588297581272,117.32884117024187
433,997.944,2.6361027865952025,117.3638972134048
434,1000.540,3.6011474378549337,117.39885256214507
435,1003.134,2.5662927963537783,117.43370720364622
436,1005.728,3.531538875437718,117.46846112456228
437,1008.321,1.4968856889668416,117.50311431103316
438,1010.912,0.0,117.53766674870027
439,1013.503,0.42788157727795806,117.57211842272204
440,1016.092,2.393530682210667,117.60646931778933
441,1018.681,3.3592805818589824,117.64071941814102
442,1021.269,2.325131292420494,117.6748687075795
443,1023.856,0.2910828305138011,117.7089171694862
444,1026.441,1.2571352131629538,117.74286478683705
445,1029.026,1.2232884577819192,117.77671154221808
446,1031.610,1.1895425821591346,117.81045741784087
447,1034.193,2.155897604441961,117.84410239555804
448,1036.775,3.1223535431211644,117.87764645687884
449,1039.355,1.0889104170154127,117.91108958298459
450,1041.935,0.05556824525577042,117.94443175474423
451,1044.514,4.022327047270167,117.97767295272983
452,1047.092,2.989186842767907,118.01081315723209
453,1049.669,1.9561476517241374,118.04385234827586
454,1052.245,2.923209494364329,118.07679050563567
455,1054.820,0.8903723911488441,118.10962760885116
456,1057.394,1.8576363627572903,118.14236363724271
457,1059.967,0.0,118.1749985699269
458,1062.539,3.792467614168018,118.20753238583198
459,1065.110,0.7600349362865302,118.23996506371347
460,1067.681,0.0,118.27229658216956
461,1070.250,0.6954730803432483,118.30452691965675
462,1072.818,3.6633439454947165,118.33665605450528
463,1075.385,1.6313160350653817,118.36868396493462
464,1077.951,2.5993893709309503,118.40061062906905
465,1080.517,2.5675639750468235,118.43243602495318
466,1083.081,0.5358398694326212,118.46416013056738
467,1085.644,1.5042170761566638,118.49578292384334
468,1088.207,0.47269561732039733,118.5273043826796
469,1090.768,0.0,118.55872448495705
470,1093.329,1.4099567914455662,118.59004320855443
471,1095.888,0.37873946863616936,118.62126053136383
472,1098.447,0.347623568693777,118.65237643130622
473,1101.004,1.3166091136530156,118.68339088634698
474,1103.561,4.285696125488585,118.71430387451142
475,1106.116,2.254884626099823,118.74511537390018
476,1108.671,1.2241746372950644,118.77582536270494
477,1111.225,0.0,118.80643381922371
478,1113.777,0.16305927812342702,118.83694072187657
479,1116.329,0.0,118.86734604922097
480,1118.880,1.1023502200326192,118.89764977996738
481,1121.430,3.0721481070052334,118.92785189299477
482,1123.979,3.0420476326339383,118.95795236736606
483,1126.527,0.012048817656264532,118.98795118234374
484,1129.074,0.9821516825946901,119.01784831740531
485,1131.620,1.9523562477411787,119.04764375225882
486,1134.165,0.9226625331416756,119.07733746685832
487,1136.709,2.89307055858049,119.10692944141951
488,1139.252,0.0,119.13641965643508
489,1141.794,0.8341919073096449,119.16580809269036
490,1144.335,3.8049052687212424,119.19509473127876
491,1146.875,2.775720446382678,119.22427955361732
492,1149.415,2.7466374585378333,119.25336254146217
493,1151.953,1.717656323075886,119.28234367692411
494,1154.490,2.6887770575158925,119.31122294248411
495,1157.027,0.0,119.34000032100872
496,1159.562,1.631324204234275,119.36867579576572
497,1162.097,0.6027506495603916,119.39724935043961
498,1164.630,0.0,119.42572096914701
499,1167.163,1.5459093635476933,119.4540906364523
500,1169.695,3.5176416626169384,119.48235833738306
501,1172.225,0.489475942554364,119.51052405744564
502,1174.755,0.0,119.53858778264058
503,1177.284,3.433450500521772,119.56654949947823
504,1179.812,0.405590805005815,119.59440919499418
505,1182.338,1.3778331432351791,119.62216685676482
506,1184.864,4.3501775270771645,119.64982247292284
507,1187.389,5.322623967827283,119.67737603217272
508,1189.913,3.295172476193727,119.70482752380627
509,1192.436,1.2678230622818774,119.73217693771812
510,1194.959,2.240575735578716,119.75942426442128
511,1197.480,3.2134305049374063,119.7865694950626
512,1200.000,3.1863873785617614,119.81361262143824
513,1202.519,3.1594463639906536,119.84055363600935
514,1205.038,3.132607468082597,119.8673925319174
515,1207.555,3.105870697000242,119.89412930299976
516,1210.071,1.0792360561947305,119.92076394380527
517,1212.587,3.0527035503903335,119.94729644960967
518,1215.101,5.026273183568875,119.97372681643112
519,1217.615,4.999944958954217,120.00005504104578
520,1220.128,0.973718878996749,120.02628112100325
521,1222.639,4.947594945357878,120.05240505464212
522,1225.150,3.921573158894546,120.07842684110545
523,1227.660,1.8956535196436448,120.10434648035636
524,1230.169,3.869836026806624,120.13016397319338
525,1232.677,2.844120678733816,120.15587932126618
526,1235.184,3.81850747290909,120.18149252709091
527,1237.690,4.792996405934218,120.20700359406578
528,1240.195,4.767587473513402,120.2324125264866
529,1242.699,2.7422806704378218,120.25771932956218
530,1245.202,3.717075990569981,120.28292400943002
531,1247.704,3.6919734268283833,120.30802657317162
532,1250.206,0.6669729711718304,120.33302702882817
533,1252.706,0.0,120.35792538541594
534,1255.206,1.617278347058118,120.38272165294188
535,1257.704,1.5925841575809443,120.40741584241906
536,1260.202,5.5679920341178075,120.43200796588219
537,1262.698,2.543501963596782,120.45649803640322
538,1265.194,1.519113931893287,120.48088606810671
539,1267.689,2.4948279238144835,120.50517207618552
540,1270.183,5.470643923083912,120.52935607691609
541,1272.676,2.446561912325805,120.5534380876742
542,1275.168,2.422581873049694,120.5774181269503
543,1277.659,3.398703785634879,120.60129621436512
544,1280.149,2.3749276293148682,120.62507237068513
545,1282.638,3.3512533821619,120.6487466178381
546,1285.126,6.32768102107147,120.67231897892853
547,1287.613,2.304210521746711,120.69578947825329
548,1290.100,5.280841858683019,120.71915814131698
549,1292.585,3.257575005152404,120.7424249948476
550,1295.070,5.234409933188061,120.76559006681194
551,1297.553,4.211346613568878,120.78865338643112
552,1300.036,3.1883850158038456,120.81161498419615
553,1302.517,5.165525108116583,120.83447489188342
554,1304.998,4.1427668574298195,120.85723314257018
555,1307.478,1.1201102293499474,120.87988977065005
556,1309.957,3.0975551881513894,120.90244481184861
557,1312.435,5.07510169676118,120.92489830323882
558,1314.912,8.052749716743392,120.94725028325661
559,1317.388,7.0304992082837146,120.96950079171629
560,1319.863,4.00835013017381,120.99164986982619
561,1322.337,2.986302439795921,121.01369756020408
562,1324.811,6.964356093107284,121.03564390689272
563,1327.283,7.942511044624666,121.05748895537533
564,1329.755,4.920767247408804,121.0792327525912
565,1332.225,6.899124653048929,121.10087534695107
566,1334.695,2.8775832116472486,121.12241678835275
567,1337.163,7.856142871803442,121.14385712819656
568,1339.631,6.8348035805991,121.1651964194009
569,1342.098,6.81356528358225,121.18643471641775
570,1344.564,9.792427924751905,121.2075720752481
571,1347.029,6.771391446542395,121.2286085534576
572,1349.493,7.750455789807987,121.24954421019201
573,1351.956,8.729620893807365,121.27037910619264
574,1354.418,7.70888669618806,121.29111330381194
575,1356.880,6.688253132970942,121.31174686702906
576,1359.340,5.6677201385347615,121.33227986146524
577,1361.800,6.647287645600585,121.35271235439942
578,1364.258,6.626955585216336,121.37304441478366
579,1366.716,6.606723886741193,121.3932761132588
580,1369.172,5.5865924778301945,121.4134075221698
581,1371.628,7.566561284418611,121.43343871558139
582,1374.083,3.5466302307065547,121.45336976929345
583,1376.537,4.526799239143344,121.47320076085666
584,1378.990,4.507068230412045,121.49293176958795
585,1381.442,3.4874371234140114,121.51256287658599
586,1383.893,3.4679058352532905,121.53209416474671
587,1386.344,4.448474281221138,121.55152571877886
588,1388.793,1.4291423747805396,121.57085762521946
589,1391.241,4.409910027550637,121.59008997244936
590,1393.689,5.3907771492912815,121.60922285070872
591,1396.135,3.371743647887456,121.62825635211254
592,1398.581,4.3528094293338455,121.64719057066615
593,1401.026,6.333974397719217,121.66602560228078
594,1403.470,3.315238455210988,121.68476154478901
595,1405.913,1.2966015020397208,121.70339849796028
596,1408.355,6.278063436483549,121.72193656351645
597,1410.796,5.259624154852702,121.7403758451473
598,1413.236,2.2412835514740124,121.75871644852599
599,1415.675,3.2230415186753447,121.77695848132466
600,1418.114,2.2048979467701457,121.79510205322985
601,1420.551,6.1868527240418985,121.8131472759581
602,1422.988,1.1689057367286182,121.83109426327138
603,1425.423,5.151056869007334,121.84894313099267
604,1427.858,3.1333060029785713,121.86669399702143
605,1430.292,5.11565301865086,121.88434698134914
606,1432.725,4.09809779392522,121.90190220607478
607,1435.157,5.0806402045796375,121.91935979542036
608,1437.588,3.063280124253552,121.93671987574645
609,1440.018,5.0460174244323355,121.95398257556766
610,1442.447,4.028851974431831,121.97114802556817
611,1444.876,5.011783641382749,121.98821635861725
612,1447.303,2.9948122902152505,122.00518770978475
613,1449.730,5.977937783643384,122.02206221635662
614,1452.156,3.961159982149553,122.03884001785045
615,1454.580,3.9444787439691,122.0555212560309
616,1457.004,7.927893925074642,122.07210607492536
617,1459.427,3.911405379160712,122.08859462083929
618,1461.849,0.8950129576281398,122.10498704237186
619,1464.270,3.8787165095685765,122.12128349043142
620,1466.690,4.862515881749033,122.13748411825097
621,1469.110,0.8464109185962627,122.15358908140374
622,1471.528,2.830401462181314,122.16959853781869
623,1473.946,0.8144873522040541,122.18551264779595
624,1476.362,0.7986684259775387,122.20133157402246
625,1478.778,6.782944518412634,122.21705548158737
626,1481.193,0.7673154620024434,122.23268453799756
627,1483.607,0.7517810868067443,122.24821891319326
628,1486.020,0.0,122.26365877956344
629,1488.432,0.7209956880386272,122.27900431196137
630,1490.843,1.7057443122798475,122.29425568772015
631,1493.253,0.6905869133318276,122.30941308666817
632,1495.663,2.67552330885529,122.32447669114471
633,1498.071,2.66055331398465,122.33944668601535
634,1500.479,1.6456767413124567,122.35432325868754
635,1502.886,0.0,122.36910659912614
636,1505.292,1.616203100131159,122.38379689986884
637,1507.697,0.6016056439582513,122.39839435604175
638,1510.101,2.5871008346250903,122.41289916537491
639,1512.504,0.0,122.42731152821773
640,1514.906,1.5583683524453704,122.44163164755463
641,1517.307,0.0,122.4558597290204
642,1519.708,1.53000401908416,122.46999598091584
643,1522.107,0.0,122.48404061422318
644,1524.506,0.0,122.49799384262167
645,1526.904,2.4881441174969723,122.51185588250303
646,1529.301,0.474373047012989,122.52562695298701
647,1531.697,2.4606927240631364,122.53930727593686
648,1534.092,0.4471029240251454,122.55289707597485
649,1536.486,0.43360341950217673,122.56639658049782
650,1538.879,0.0,122.57980601969267
651,1541.272,2.4068743734481757,122.59312562655182
652,1543.663,0.39364436311115014,122.60635563688885
653,1546.054,0.3805037106461526,122.61949628935385
654,1548.444,4.367452174550948,122.63254782544905
655,1550.832,3.3544895104556502,122.64551048954435
656,1553.220,2.341615471107332,122.65838452889267
657,1555.607,0.3288298063543351,122.67117019364566
658,1557.994,3.3161322631309105,122.68386773686909
659,1560.379,1.3035225854416126,122.69647741455839
660,1562.763,4.291000514345811,122.70899948565419
661,1565.147,0.2785657879422132,122.72143421205779
662,1567.529,4.266218141353292,122.73378185864671
663,1569.911,3.25395730670985,122.74604269329015
664,1572.292,0.0,122.7582169868646
665,1574.672,3.2296949867307774,122.77030501326922
666,1577.051,0.0,122.78230704944148
667,1579.429,1.2057766246274184,122.79422337537258
668,1581.807,0.19394572587700054,122.806054274123
669,1584.183,1.1821999681619957,122.817800031838
670,1586.559,2.170539062236827,122.82946093776317
671,1588.933,0.15896271574010257,122.8410372842599
672,1591.307,2.1474706331791396,122.85252936682086
673,1593.680,4.136062515914375,122.86393748408562
674,1596.052,4.124738062143891,122.87526193785611
675,1598.423,3.1134969668879506,122.88650303311205
676,1600.794,2.102338921973427,122.89766107802657
677,1603.163,3.0912636160182956,122.9087363839817
678,1605.531,2.080270734416132,122.91972926558387
679,1607.899,1.06935995932065,122.93064004067935
680,1610.266,2.0585309696300413,122.94146903036996
681,1612.632,1.0477834409716706,122.95221655902833
682,1614.997,3.0371170456863865,122.96288295431361
683,1617.361,2.0265314528130887,122.97346854718691
684,1619.724,1.0160263280732522,122.98397367192675
685,1622.086,3.0056013338552816,122.99439866614472
686,1624.448,1.9952561291991913,123.00474387080081
687,1626.808,1.9849903697808742,123.01500963021913
688,1629.168,0.0,123.0251962921032
689,1631.527,3.9646957924483672,123.03530420755163
690,1633.885,0.9546662689264025,123.0453337310736
691,1636.242,0.9447147793957242,123.05528522060428
692,1638.598,3.9348409624795266,123.06515903752047
693,1640.954,0.9250444533440003,123.074955546656
694,1643.308,1.9153248836826577,123.08467511631734
695,1645.662,2.9056818817009713,123.09431811829903
696,1648.014,1.8961150721007414,123.10388492789926
697,1650.366,0.0,123.11337592393531
698,1652.717,1.8772085112408377,123.12279148875916
699,1655.067,0.0,123.13213200827289
700,1657.417,1.8586021280557503,123.14139787194425
701,1659.765,3.849410527177781,123.15058947282222
702,1662.112,3.8402927924475563,123.15970720755244
703,1664.459,3.8312485236072575,123.16875147639274
704,1666.805,0.82227731677132,123.17772268322868
705,1669.150,2.813378764410942,123.18662123558906
706,1671.494,2.8045524553386088,123.19544754466139
707,1673.837,2.7957979746925474,123.20420202530745
708,1676.179,1.7871149039211929,123.21288509607881
709,1678.520,3.778502820767727,123.22149717923227
710,1680.861,2.769961299254547,123.23003870074545
711,1683.201,0.0,123.23851009033228
712,1685.539,1.753088218541535,123.24691178145846
713,1687.877,0.0,123.25524421135705
714,1690.214,2.7364921789560412,123.26350782104396
715,1692.551,2.728296944666596,123.2717030553334
716,1694.886,0.7201696371464692,123.27983036285353
717,1697.220,5.712109803938219,123.28789019606178
718,1699.554,1.7041169887394716,123.29588301126053
719,1701.887,2.6961907313874462,123.30380926861255
720,1704.219,4.688330567843465,123.31166943215653
721,1706.550,3.68053603017745,123.31946396982255
722,1708.880,1.6728066465523455,123.32719335344765
723,1711.209,0.6651419412086739,123.33485805879133
724,1713.537,0.6575414344489445,123.34245856555106
725,1715.865,0.6500046426223207,123.34999535737768
726,1718.192,1.6425310781088172,123.35746892189118
727,1720.518,3.635120249304066,123.36487975069593
728,1722.843,2.6277716606036847,123.37222833939632
729,1725.167,4.620484812387673,123.37951518761233
730,1727.490,2.613259201005121,123.38674079899488
731,1729.812,2.6060943187585224,123.39390568124148
732,1732.134,1.5989896538882533,123.40101034611175
733,1734.455,0.5919446905571988,123.4080553094428
734,1736.774,0.0,123.41504109116485
735,1739.093,3.578031784683276,123.42196821531672
736,1741.411,1.5711627899386542,123.42883721006135
737,1743.729,3.564351392298704,123.4356486077013
738,1746.045,3.55759705530582,123.44240294469418
739,1748.361,4.550899238331596,123.4491007616684
740,1750.675,0.5442573965616475,123.45574260343835
741,1752.989,0.5376709809797546,123.46232901902025
742,1755.302,1.5311394383525965,123.4688605616474
743,1757.614,1.5246622112142063,123.4753377887858
744,1759.925,0.5182387378503108,123.48176126214969
745,1762.236,2.5118684522829966,123.488131547717
746,1764.545,2.5055507842550924,123.49444921574491
747,1766.854,2.4992851592146508,123.50071484078535
748,1769.162,0.4930709982995438,123.50692900170046
749,1771.469,1.486907718321845,123.51309228167815
750,1773.775,2.480794731752326,123.51920526824767
751,1776.080,2.474731446704979,123.52526855329502
752,1778.385,2.468717266921516,123.53128273307848
753,1780.688,1.46275159175579,123.53724840824421
754,1782.991,0.0,123.5431661838416
755,1785.293,0.0,123.54903666933896
756,1787.594,1.445139521361071,123.55486047863893
757,1789.894,5.439361769905986,123.56063823009401
758,1792.193,4.43362945347792,123.56637054652208
759,1794.492,2.4279419447781123,123.57205805522189
760,1796.789,2.4222986120113745,123.57770138798863
761,1799.086,3.416698818870657,123.58330118112934
762,1801.382,0.4111419245214165,123.58885807547858
763,1803.677,2.405627283586284,123.59437271641372
764,1805.971,0.4001542461293184,123.59984575387068
765,1808.265,1.3947221576406434,123.60527784235936
766,1810.557,1.389330359020974,123.61066964097903
767,1812.849,1.383978186565983,123.61602181343402
768,1815.140,3.378664971950897,123.6213350280491
769,1817.430,0.37339004221485084,123.62660995778515
770,1819.719,4.3681527197454955,123.6318472802545
771,1822.007,0.36295232226351004,123.63704767773649
772,1824.295,1.357788162806898,123.6422118371931
773,1826.581,0.0,123.64734045028428
774,1828.867,3.3475657866164283,123.65243421338357
775,1831.152,1.3425061724063454,123.65749382759365
776,1833.436,0.0,123.66251999876172
777,1835.719,4.332486562504812,123.66751343749519
778,1838.002,0.0,123.67247485917693
779,1840.283,3.3225950160189086,123.67740498398109
780,1842.564,0.31769546311156205,123.68230453688844
781,1844.844,0.3128257522981528,123.68717424770185
782,1847.123,2.3079851489381156,123.69201485106188
783,1849.401,1.3031729135377077,123.69682708646229
784,1851.678,2.298388301734491,123.70161169826551
785,1853.955,0.0,123.70636943571824
786,1856.231,0.2888989470331751,123.71110105296682
787,1858.506,4.284192690927171,123.71580730907283
788,1860.780,1.2795110319713672,123.72048896802863
789,1863.053,2.2748532012271596,123.72514679877284
790,1865.325,3.2702184247942085,123.72978157520579
791,1867.597,0.0,123.73439407620515
792,1869.867,1.261014914358654,123.73898508564135
793,1872.137,3.256444607606909,123.74355539239309
794,1874.406,1.2518942096369727,123.74810579036303
795,1876.674,4.247362921507062,123.75263707849294
796,1878.941,1.2428499392203776,123.75715006077962
797,1881.208,0.2383544537098885,123.76164554629011
798,1883.473,4.233875650822625,123.76612434917737
799,1885.738,7.229412711304263,123.77058728869574
800,1888.002,2.224964810783618,123.77503518921638
801,1890.265,1.2205311197570552,123.77946888024294
802,1892.528,4.216110803573059,123.78388919642694
803,1894.789,3.2117030224166854,123.78829697758331
804,1897.050,0.20730693129402766,123.79269306870597
805,1899.310,0.20292168001674327,123.79707831998326
806,1901.569,2.1985464131865626,123.80145358681344
807,1903.827,4.1941802701796576,123.80581972982034
808,1906.084,1.189822385131265,123.81017761486873
809,1908.340,2.1854718869201406,123.81452811307986
810,1910.596,0.0,123.81887210084695
811,1912.851,3.1767895401491444,123.82321045985086
812,1915.105,2.17245592292457,123.82754407707543
813,1917.358,3.1681261551769637,123.83187384482304
814,1919.610,5.163799339269872,123.83620066073013
815,1921.862,4.159474572217306,123.8405254277827
816,1924.113,2.1551509456681117,123.84484905433189
817,1926.362,3.150827545890607,123.8491724541094
818,1928.611,1.1465034537570062,123.853496546243
819,1930.860,0.0,123.85782225527215
820,1933.107,2.137849488836565,123.86215051116343
821,1935.353,4.133517750673974,123.86648224932603
822,1937.599,1.1291815893726778,123.87081841062732
823,1939.844,2.1248400585916443,123.87515994140836
824,1942.088,0.12049220650064285,123.87950779349936
825,1944.331,5.116137075764755,123.88386292423525
826,1946.574,4.111773703528883,123.88822629647112
827,1948.815,0.0,123.8925988785979
828,1951.056,6.1030183554424156,123.89698164455758
829,1953.296,4.098624426140958,123.90137557385904
830,1955.535,3.0942183484066845,123.90578165159332
831,1957.773,0.08979913155070562,123.9102008684493
832,1960.011,3.085365779270944,123.91463422072906
833,1962.248,1.0809172896364032,123.9190827103636
834,1964.483,0.07645265507193244,123.92354734492807
835,1966.718,3.071970862342482,123.92802913765752
836,1968.953,5.067470892537642,123.93252910746236
837,1971.186,2.0629517210562227,123.93704827894378
838,1973.418,2.058412317590637,123.94158768240936
839,1975.650,3.0538516461114824,123.94614835388852
840,1977.881,3.0492686648519225,123.95073133514808
841,1980.111,0.044662326292240095,123.95533767370776
842,1982.340,3.04003157714439,123.95996842285561
843,1984.569,2.035375358336296,123.9646246416637
844,1986.797,3.030692604996517,123.96930739500348
845,1989.023,4.025982246438673,123.97401775356133
846,1991.249,1.0212432061459253,123.97875679385407
847,1993.474,3.016474401755474,123.98352559824453
848,1995.699,3.0116747450430523,123.98832525495695
849,1997.922,3.0068431419073534,123.99315685809265
850,2000.145,4.001978492354624,123.99802150764538
851,2002.367,0.9970796904831047,124.0029203095169
852,2004.588,0.9921456244674687,124.00785437553253
853,2006.808,3.9871751765433743,124.01282482345663
854,2009.028,4.982167222991933,124.01783277700807
855,2011.246,4.9771206341241765,124.02287936587582
856,2013.464,3.9720342742655674,124.02796572573443
857,2015.681,2.966907001740566,124.03309299825943
858,2017.898,2.9617376688568413,124.03826233114316
859,2020.113,3.956525121890138,124.04347487810986
860,2022.328,0.9512682010685012,124.0487317989315
861,2024.541,4.945965740556858,124.05403425944314
862,2026.754,1.9406165684414702,124.05938343155853
863,2028.966,3.935219506714418,124.06478049328558
864,2031.178,1.9297733712581788,124.07022662874182
865,2033.388,0.9242769718299826,124.07572302817002
866,2035.598,1.9187291120464067,124.0812708879536
867,2037.807,2.913128589367801,124.0868714106322
868,2040.015,1.9074741950827843,124.09252580491722
869,2042.222,0.0,124.09823528570726
870,2044.429,2.895998925896322,124.10400107410368
871,2046.634,2.8901756025739758,124.10982439742602
872,2048.839,1.884293510772281,124.11570648922772
873,2051.043,1.8783514106885377,124.12164858931146
874,2053.247,4.8723480562554045,124.1276519437446
875,2055.449,1.8662821951250521,124.13371780487495
876,2057.651,4.860152568653902,124.1398474313461
877,2059.851,1.8539579118870506,124.14604208811295
878,2062.052,3.8476969535427656,124.15230304645723
879,2064.251,1.841368415996925,124.15863158400307
880,2066.449,4.83497101526757,124.16502898473243
881,2068.647,4.8285034609993716,124.17149653900063
882,2070.844,3.821964456448029,124.17803554355197
883,2073.040,1.8153526984649204,124.18464730153508
884,2075.235,2.8086668774814996,124.1913331225185
885,2077.429,1.801905677493778,124.19809432250622
886,2079.623,5.795067776046778,124.20493222395322
887,2081.815,2.7881518442191577,124.21184815578084
888,2084.007,1.7811565466075194,124.21884345339248
889,2086.199,4.774080541311122,124.22591945868888
890,2088.389,3.7669224799160475,124.23307752008395
891,2090.579,2.759681007480026,124.24031899251997
892,2092.767,0.0,124.24764523748328
893,2094.955,5.744942376980276,124.25505762301972
894,2097.143,6.737442476249782,124.26255752375022
895,2099.329,0.7298536791138162,124.27014632088618
896,2101.514,2.722174597754787,124.27782540224521
897,2103.699,5.714403837733698,124.2855961622663
898,2105.883,5.706539997974346,124.29346000202565
899,2108.066,2.6985816707479557,124.30141832925204
900,2110.249,0.0,124.3094725583424
901,2112.430,3.6823758896228185,124.31762411037718
902,2114.611,0.6741255868639655,124.32587441313603
903,2116.791,0.0,124.33422490111329
904,2118.970,2.6573229844666457,124.34267701553335
905,2121.149,0.0,124.35123220436643
906,2123.326,0.0,124.35989192234373
907,2125.503,0.0,124.36865763097336
908,2127.679,3.622469201444517,124.37753079855548
909,2129.854,1.6134870998019153,124.38651290019808
910,2132.029,2.604394582167714,124.39560541783229
911,2134.202,0.0,124.40480984022807
912,2136.375,2.585872336990434,124.41412766300957
913,2138.547,4.576439611329249,124.42356038867075
914,2140.718,2.5668904734091313,124.43310952659087
915,2142.889,3.5572234069500723,124.44277659304993
916,2145.058,0.5474368887556977,124.4525631112443
917,2147.227,3.5375293886979193,124.46247061130208
918,2149.395,3.527499369701161,124.47250063029884
919,2151.563,2.5173452877271814,124.48265471227282
920,2153.729,5.507065591759215,124.49293440824079
921,2155.895,0.49665872378673726,124.50334127621326
922,2158.060,5.486123118789791,124.51387688121021
923,2160.224,1.4754572047235541,124.52454279527645
924,2162.387,3.4646594025028037,124.5353405974972
925,2164.550,3.4537281259863732,124.54627187401363
926,2166.711,3.4426617819616894,124.55733821803831
927,2168.872,4.431458770129225,124.56854122987077
928,2171.033,1.4201174830869832,124.57988251691302
929,2173.192,0.0,124.591363693685
930,2175.351,5.397013618159903,124.6029863818401
931,2177.508,2.3852477898192603,124.61475221018074
932,2179.665,2.373337185326122,124.62666281467388
933,2181.822,3.3612801615335854,124.63871983846641
934,2183.977,0.3490750680991823,124.65092493190082
935,2186.132,5.336720247469401,124.6632797525306
936,2188.285,0.0,124.67578596513576
937,2190.439,5.311554758261494,124.6884452417385
938,2192.591,5.298740738381554,124.70125926161845
939,2194.742,0.0,124.71422971132843
940,2196.893,2.272641715290206,124.7273582847098
941,2199.043,2.2593533170919784,124.74064668290802
942,2201.192,4.245903385611712,124.75409661438829
943,2203.341,2.2322902050491678,124.76770979495083
944,2205.488,2.218512052253459,124.78148794774654
945,2207.635,2.2045671967075293,124.79543280329247
946,2209.781,1.1904539005126082,124.80954609948739
947,2211.926,2.1761704183727346,124.82382958162727
948,2214.071,3.1617149975793524,124.83828500242065
949,2216.214,4.147085877995551,124.85291412200445
950,2218.357,2.132281292040858,124.86771870795914
951,2220.499,0.11729946467536934,124.88270053532463
952,2222.641,5.102138613384611,124.89786138661539
953,2224.781,1.0867969481637658,124.91320305183623
954,2226.921,0.0712726715022427,124.92872732849776
955,2229.060,2.055563978368184,124.94443602163182
956,2231.198,2.039669056192963,124.96033094380704
957,2233.336,1.0235860848555518,124.97641391514445
958,2235.472,4.0073132366672155,124.99268676333278
959,2237.608,1.9908486763558244,125.00915132364418
960,2239.743,2.9741905610504205,125.02580943894958
961,2241.878,0.0,125.04266295973432
962,2244.011,0.0,125.05971374411362
963,2246.144,5.923036342151988,125.07696365784801
964,2248.276,1.9055854256410356,125.09441457435896
965,2250.407,1.887931625255618,125.11206837474438
966,2252.538,2.870073052205939,125.12992694779406
967,2254.667,2.8520078099948307,125.14799219000517
968,2256.796,1.8337339944020812,125.16626600559792
969,2258.924,1.8152496934690703,125.18475030653093
970,2261.052,1.7965529874832384,125.20344701251676
971,2263.178,2.77764194896244,125.22235805103756
972,2265.304,5.758514642639739,125.24148535736026
973,2267.429,0.7391691254474324,125.26083087455257
974,2269.553,0.7196034465020773,125.28039655349792
975,2271.677,2.6998156470884567,125.30018435291154
976,2273.800,0.0,125.32019623935552
977,2275.921,3.6595658127453987,125.3404341872546
978,2278.043,0.6390998210884931,125.3609001789115
979,2280.163,2.618403795477377,125.38159620452262
980,2282.283,1.5974757378066329,125.40252426219337
981,2284.401,2.5763136420462445,125.42368635795376
982,2286.520,2.5549154942260373,125.44508450577396
983,2288.637,4.533279272420202,125.4667207275798
984,2290.753,2.511402946731863,125.48859705326814
985,2292.869,0.489284479277444,125.51071552072256
986,2294.984,3.4669218241712088,125.53307817582879
987,2297.098,0.0,125.55568707249026
988,2299.212,0.42145572735648784,125.57854427264351
989,2301.325,2.3983481537261184,125.60165184627388
990,2303.437,2.3749881285691288,125.62501187143087
991,2305.548,0.0,125.64862643424368
992,2307.658,1.32750237106319,125.67249762893681
993,2309.768,0.0,125.69662755784546
994,2311.877,1.2789816685688749,125.72101833143113
995,2313.985,2.254327931703017,125.74567206829698
996,2316.092,3.2294091047963605,125.77059089520364
997,2318.199,2.20422305291558,125.79577694708442
998,2320.304,1.1787676329390564,125.82123236706094
999,2322.409,2.1530406935413,125.8469593064587
1000,2324.514,6.127040075177604,125.8729599248224
1001,2326.617,2.100763610068185,125.89923638993181
1002,2328.720,3.074209122183163,125.92579087781684
1003,2330.822,4.047374427226615,125.95262557277339
1004,2332.923,4.020257332621242,125.97974266737876
1005,2335.024,2.992855637492994,126.007144362507
1006,2337.123,2.9651671326552247,126.03483286734478
1007,2339.222,4.937189600593484,126.06281039940652
1008,2341.320,1.9089208154498607,126.09107918455014
1009,2343.418,0.8803585430075316,126.11964145699247
1010,2345.514,4.851500540675161,126.14849945932484
1011,2347.610,1.8223445574714106,126.17765544252859
1012,2349.705,1.792888334009632,126.20711166599037
1013,2351.800,0.0,126.236870397518
1014,2353.893,1.7330660866442997,126.2669339133557
1015,2355.986,3.702695501800193,126.29730449819981
1016,2358.078,2.6720155547859292,126.32798444521407
1017,2360.170,3.6410239439546643,126.35897605604534
1018,2362.260,0.0,126.39028164083908
1019,2364.350,2.5780964817453196,126.42190351825468
1020,2366.439,1.546155984518748,126.45384401548125
1021,2368.527,3.513894531747141,126.48610546825286
1022,2370.615,1.481309779135671,126.51869022086433
1023,2372.702,0.0,126.55160062618643
