pixel_index,raman_shift_cm-1,intensity
0,130.069,731.0
1,133.014,734.0
2,135.958,736.0
3,138.901,749.0
4,141.843,753.0
5,144.783,747.0
6,147.722,731.0
7,150.661,738.0
8,153.598,745.0
9,156.534,740.0
10,159.469,758.0
11,162.402,743.0
12,165.335,727.0
13,168.266,743.0
14,171.197,755.0
15,174.126,733.0
16,177.054,735.0
17,179.981,750.0
18,182.907,742.0
19,185.831,745.0
20,188.755,756.0
21,191.677,746.0
22,194.599,751.0
23,197.519,762.0
24,200.438,757.0
25,203.356,758.0
26,206.273,756.0
27,209.188,761.0
28,212.103,782.0
29,215.016,772.0
30,217.928,756.0
31,220.839,778.0
32,223.749,760.0
33,226.658,757.0
34,229.566,757.0
35,232.473,783.0
36,235.378,775.0
37,238.283,782.0
38,241.186,763.0
39,244.088,774.0
40,246.989,782.0
41,249.889,775.0
42,252.788,762.0
43,255.686,776.0
44,258.582,788.0
45,261.478,777.0
46,264.372,807.0
47,267.265,807.0
48,270.157,778.0
49,273.048,787.0
50,275.938,794.0
51,278.827,825.0
52,281.715,813.0
53,284.601,795.0
54,287.487,786.0
55,290.371,774.0
56,293.254,776.0
57,296.136,788.0
58,299.017,788.0
59,301.897,787.0
60,304.776,772.0
61,307.653,762.0
62,310.530,773.0
63,313.405,764.0
64,316.280,782.0
65,319.153,763.0
66,322.025,772.0
67,324.896,771.0
68,327.766,758.0
69,330.635,782.0
70,333.502,773.0
71,336.369,780.0
72,339.235,777.0
73,342.099,765.0
74,344.962,771.0
75,347.824,769.0
76,350.685,766.0
77,353.545,760.0
78,356.404,765.0
79,359.262,775.0
80,362.119,774.0
81,364.974,765.0
82,367.829,784.0
83,370.682,768.0
84,373.535,751.0
85,376.386,758.0
86,379.236,762.0
87,382.085,759.0
88,384.933,753.0
89,387.780,747.0
90,390.625,751.0
91,393.470,746.0
92,396.314,755.0
93,399.156,753.0
94,401.997,738.0
95,404.838,757.0
96,407.677,764.0
97,410.515,768.0
98,413.352,762.0
99,416.188,779.0
100,419.023,766.0
101,421.856,750.0
102,424.689,774.0
103,427.521,763.0
104,430.351,757.0
105,433.180,758.0
106,436.009,758.0
107,438.836,754.0
108,441.662,750.0
109,444.487,737.0
110,447.311,749.0
111,450.134,743.0
112,452.956,735.0
113,455.776,750.0
114,458.596,763.0
115,461.415,763.0
116,464.232,757.0
117,467.049,755.0
118,469.864,768.0
119,472.678,778.0
120,475.491,768.0
121,478.303,783.0
122,481.114,781.0
123,483.924,767.0
124,486.733,811.0
125,489.541,817.0
126,492.348,872.0
127,495.153,964.0
128,497.958,1241.0
129,500.761,2182.0
130,503.564,4411.0
131,506.365,4377.0
132,509.165,2105.0
133,511.964,1197.0
134,514.762,967.0
135,517.560,860.0
136,520.355,829.0
137,523.150,815.0
138,525.944,786.0
139,528.737,773.0
140,531.529,791.0
141,534.319,797.0
142,537.109,772.0
143,539.897,759.0
144,542.685,771.0
145,545.471,752.0
146,548.256,752.0
147,551.041,751.0
148,553.824,759.0
149,556.606,771.0
150,559.387,744.0
151,562.167,746.0
152,564.946,742.0
153,567.724,762.0
154,570.501,753.0
155,573.276,743.0
156,576.051,757.0
157,578.825,747.0
158,581.597,746.0
159,584.369,751.0
160,587.139,747.0
161,589.908,755.0
162,592.677,755.0
163,595.444,754.0
164,598.210,766.0
165,600.975,756.0
166,603.739,756.0
167,606.502,766.0
168,609.264,763.0
169,612.025,752.0
170,614.785,746.0
171,617.544,745.0
172,620.302,752.0
173,623.059,757.0
174,625.814,761.0
175,628.569,759.0
176,631.322,764.0
177,634.075,757.0
178,636.826,754.0
179,639.577,767.0
180,642.326,727.0
181,645.074,758.0
182,647.822,751.0
183,650.568,757.0
184,653.313,746.0
185,656.057,760.0
186,658.800,758.0
187,661.542,765.0
188,664.283,765.0
189,667.023,764.0
190,669.762,761.0
191,672.500,753.0
192,675.237,754.0
193,677.973,752.0
194,680.707,747.0
195,683.441,761.0
196,686.174,751.0
197,688.905,738.0
198,691.636,745.0
199,694.365,733.0
200,697.094,749.0
201,699.821,752.0
202,702.548,743.0
203,705.273,737.0
204,707.998,732.0
205,710.721,758.0
206,713.443,738.0
207,716.164,750.0
208,718.885,752.0
209,721.604,752.0
210,724.322,741.0
211,727.039,752.0
212,729.755,744.0
213,732.470,739.0
214,735.184,757.0
215,737.897,758.0
216,740.609,740.0
217,743.320,753.0
218,746.030,743.0
219,748.739,749.0
220,751.446,746.0
221,754.153,765.0
222,756.859,750.0
223,759.564,755.0
224,762.267,745.0
225,764.970,742.0
226,767.672,739.0
227,770.372,764.0
228,773.072,742.0
229,775.770,746.0
230,778.468,748.0
231,781.165,746.0
232,783.860,761.0
233,786.555,752.0
234,789.248,770.0
235,791.940,745.0
236,794.632,751.0
237,797.322,753.0
238,800.012,759.0
239,802.700,752.0
240,805.387,761.0
241,808.074,759.0
242,810.759,769.0
243,813.443,752.0
244,816.126,755.0
245,818.809,755.0
246,821.490,776.0
247,824.170,763.0
248,826.849,744.0
249,829.527,751.0
250,832.205,750.0
251,834.881,761.0
252,837.556,752.0
253,840.230,760.0
254,842.903,757.0
255,845.575,759.0
256,848.246,756.0
257,850.916,747.0
258,853.585,754.0
259,856.253,753.0
260,858.920,758.0
261,861.586,753.0
262,864.251,754.0
263,866.915,763.0
264,869.578,741.0
265,872.240,750.0
266,874.901,748.0
267,877.561,744.0
268,880.220,758.0
269,882.878,779.0
270,885.535,745.0
271,888.191,742.0
272,890.846,765.0
273,893.500,767.0
274,896.153,757.0
275,898.805,742.0
276,901.456,753.0
277,904.105,748.0
278,906.754,758.0
279,909.402,749.0
280,912.049,768.0
281,914.695,769.0
282,917.340,764.0
283,919.984,774.0
284,922.627,771.0
285,925.269,800.0
286,927.910,796.0
287,930.550,830.0
288,933.188,836.0
289,935.826,859.0
290,938.463,832.0
291,941.099,844.0
292,943.734,849.0
293,946.368,854.0
294,949.001,867.0
295,951.633,850.0
296,954.264,847.0
297,956.894,860.0
298,959.523,848.0
299,962.151,864.0
300,964.778,852.0
301,967.404,866.0
302,970.029,852.0
303,972.653,854.0
304,975.276,849.0
305,977.898,859.0
306,980.519,851.0
307,983.139,848.0
308,985.758,840.0
309,988.376,811.0
310,990.993,778.0
311,993.609,780.0
312,996.224,769.0
313,998.838,793.0
314,1001.451,764.0
315,1004.064,759.0
316,1006.675,753.0
317,1009.285,764.0
318,1011.894,761.0
319,1014.502,783.0
320,1017.110,762.0
321,1019.716,759.0
322,1022.321,768.0
323,1024.925,766.0
324,1027.529,753.0
325,1030.131,763.0
326,1032.732,747.0
327,1035.333,762.0
328,1037.932,748.0
329,1040.530,742.0
330,1043.128,750.0
331,1045.724,725.0
332,1048.320,742.0
333,1050.914,748.0
334,1053.508,739.0
335,1056.100,748.0
336,1058.692,739.0
337,1061.282,744.0
338,1063.872,744.0
339,1066.461,746.0
340,1069.048,734.0
341,1071.635,741.0
342,1074.221,735.0
343,1076.805,749.0
344,1079.389,747.0
345,1081.972,747.0
346,1084.554,740.0
347,1087.134,746.0
348,1089.714,757.0
349,1092.293,747.0
350,1094.871,738.0
351,1097.448,731.0
352,1100.024,749.0
353,1102.599,743.0
354,1105.173,731.0
355,1107.746,733.0
356,1110.318,725.0
357,1112.890,738.0
358,1115.460,739.0
359,1118.029,745.0
360,1120.597,751.0
361,1123.165,740.0
362,1125.731,747.0
363,1128.296,733.0
364,1130.861,738.0
365,1133.424,749.0
366,1135.986,752.0
367,1138.548,736.0
368,1141.109,740.0
369,1143.668,747.0
370,1146.227,727.0
371,1148.784,751.0
372,1151.341,732.0
373,1153.897,746.0
374,1156.452,742.0
375,1159.005,753.0
376,1161.558,735.0
377,1164.110,729.0
378,1166.661,733.0
379,1169.211,735.0
380,1171.760,750.0
381,1174.308,741.0
382,1176.855,745.0
383,1179.402,738.0
384,1181.947,737.0
385,1184.491,740.0
386,1187.034,738.0
387,1189.577,727.0
388,1192.118,739.0
389,1194.659,738.0
390,1197.198,733.0
391,1199.737,748.0
392,1202.274,728.0
393,1204.811,727.0
394,1207.346,724.0
395,1209.881,723.0
396,1212.415,728.0
397,1214.948,745.0
398,1217.480,755.0
399,1220.011,745.0
400,1222.541,751.0
401,1225.070,737.0
402,1227.598,735.0
403,1230.125,740.0
404,1232.651,731.0
405,1235.176,742.0
406,1237.701,747.0
407,1240.224,725.0
408,1242.746,739.0
409,1245.268,733.0
410,1247.788,744.0
411,1250.308,744.0
412,1252.827,735.0
413,1255.344,723.0
414,1257.861,732.0
415,1260.377,744.0
416,1262.892,740.0
417,1265.406,727.0
418,1267.919,743.0
419,1270.431,733.0
420,1272.942,744.0
421,1275.452,751.0
422,1277.961,737.0
423,1280.470,735.0
424,1282.977,732.0
425,1285.483,736.0
426,1287.989,734.0
427,1290.493,720.0
428,1292.997,731.0
429,1295.500,741.0
430,1298.001,739.0
431,1300.502,742.0
432,1303.002,734.0
433,1305.501,732.0
434,1307.999,747.0
435,1310.496,739.0
436,1312.992,724.0
437,1315.487,733.0
438,1317.982,726.0
439,1320.475,722.0
440,1322.967,739.0
441,1325.459,733.0
442,1327.949,736.0
443,1330.439,732.0
444,1332.928,730.0
445,1335.416,736.0
446,1337.902,733.0
447,1340.388,737.0
448,1342.873,739.0
449,1345.357,738.0
450,1347.840,737.0
451,1350.323,730.0
452,1352.804,730.0
453,1355.284,748.0
454,1357.764,720.0
455,1360.242,731.0
456,1362.720,732.0
457,1365.196,746.0
458,1367.672,754.0
459,1370.147,753.0
460,1372.621,752.0
461,1375.094,736.0
462,1377.566,742.0
463,1380.037,758.0
464,1382.507,735.0
465,1384.976,743.0
466,1387.444,736.0
467,1389.912,747.0
468,1392.378,746.0
469,1394.844,753.0
470,1397.309,747.0
471,1399.772,737.0
472,1402.235,736.0
473,1404.697,741.0
474,1407.158,754.0
475,1409.618,749.0
476,1412.077,739.0
477,1414.536,743.0
478,1416.993,729.0
479,1419.449,727.0
480,1421.905,737.0
481,1424.359,734.0
482,1426.813,739.0
483,1429.266,734.0
484,1431.718,735.0
485,1434.169,742.0
486,1436.619,735.0
487,1439.068,729.0
488,1441.516,737.0
489,1443.963,746.0
490,1446.409,747.0
491,1448.855,739.0
492,1451.299,737.0
493,1453.743,749.0
494,1456.186,757.0
495,1458.628,747.0
496,1461.069,739.0
497,1463.509,754.0
498,1465.948,737.0
499,1468.386,736.0
500,1470.823,725.0
501,1473.260,738.0
502,1475.695,729.0
503,1478.130,748.0
504,1480.563,727.0
505,1482.996,763.0
506,1485.428,737.0
507,1487.859,747.0
508,1490.289,747.0
509,1492.718,731.0
510,1495.146,754.0
511,1497.574,745.0
512,1500.000,749.0
513,1502.426,739.0
514,1504.850,743.0
515,1507.274,744.0
516,1509.697,734.0
517,1512.119,726.0
518,1514.540,733.0
519,1516.960,741.0
520,1519.379,728.0
521,1521.797,749.0
522,1524.215,739.0
523,1526.631,730.0
524,1529.047,732.0
525,1531.462,744.0
526,1533.876,736.0
527,1536.289,741.0
528,1538.701,731.0
529,1541.112,739.0
530,1543.522,735.0
531,1545.931,735.0
532,1548.340,733.0
533,1550.748,731.0
534,1553.154,746.0
535,1555.560,734.0
536,1557.965,738.0
537,1560.369,743.0
538,1562.772,733.0
539,1565.174,733.0
540,1567.576,733.0
541,1569.976,726.0
542,1572.376,738.0
543,1574.774,714.0
544,1577.172,730.0
545,1579.569,745.0
546,1581.965,738.0
547,1584.360,737.0
548,1586.754,740.0
549,1589.148,735.0
550,1591.540,745.0
551,1593.932,741.0
552,1596.323,739.0
553,1598.712,720.0
554,1601.101,725.0
555,1603.489,739.0
556,1605.876,736.0
557,1608.263,731.0
558,1610.648,741.0
559,1613.033,742.0
560,1615.416,735.0
561,1617.799,740.0
562,1620.181,746.0
563,1622.562,750.0
564,1624.942,747.0
565,1627.321,722.0
566,1629.699,728.0
567,1632.077,736.0
568,1634.453,738.0
569,1636.829,752.0
570,1639.204,732.0
571,1641.578,744.0
572,1643.951,728.0
573,1646.323,730.0
574,1648.694,739.0
575,1651.065,728.0
576,1653.434,733.0
577,1655.803,735.0
578,1658.171,749.0
579,1660.538,732.0
580,1662.904,726.0
581,1665.269,731.0
582,1667.633,723.0
583,1669.997,735.0
584,1672.359,735.0
585,1674.721,715.0
586,1677.082,734.0
587,1679.442,737.0
588,1681.801,741.0
589,1684.159,727.0
590,1686.516,719.0
591,1688.873,732.0
592,1691.228,726.0
593,1693.583,739.0
594,1695.937,738.0
595,1698.290,745.0
596,1700.642,730.0
597,1702.993,734.0
598,1705.343,741.0
599,1707.693,744.0
600,1710.042,732.0
601,1712.389,735.0
602,1714.736,730.0
603,1717.082,734.0
604,1719.427,734.0
605,1721.772,742.0
606,1724.115,733.0
607,1726.458,733.0
608,1728.799,751.0
609,1731.140,755.0
610,1733.480,732.0
611,1735.819,727.0
612,1738.158,739.0
613,1740.495,737.0
614,1742.832,738.0
615,1745.167,740.0
616,1747.502,749.0
617,1749.836,722.0
618,1752.169,731.0
619,1754.501,720.0
620,1756.833,730.0
621,1759.163,738.0
622,1761.493,722.0
623,1763.822,745.0
624,1766.149,716.0
625,1768.477,736.0
626,1770.803,725.0
627,1773.128,741.0
628,1775.453,726.0
629,1777.776,719.0
630,1780.099,737.0
631,1782.421,718.0
632,1784.742,724.0
633,1787.062,735.0
634,1789.382,729.0
635,1791.700,724.0
636,1794.018,728.0
637,1796.335,730.0
638,1798.651,733.0
639,1800.966,728.0
640,1803.280,739.0
641,1805.593,720.0
642,1807.906,732.0
643,1810.218,726.0
644,1812.528,736.0
645,1814.838,726.0
646,1817.148,735.0
647,1819.456,716.0
648,1821.763,727.0
649,1824.070,736.0
650,1826.376,727.0
651,1828.681,723.0
652,1830.985,730.0
653,1833.288,728.0
654,1835.590,719.0
655,1837.892,723.0
656,1840.192,740.0
657,1842.492,724.0
658,1844.791,730.0
659,1847.089,734.0
660,1849.387,727.0
661,1851.683,739.0
662,1853.979,722.0
663,1856.273,725.0
664,1858.567,728.0
665,1860.860,747.0
666,1863.153,730.0
667,1865.444,727.0
668,1867.735,744.0
669,1870.024,725.0
670,1872.313,729.0
671,1874.601,712.0
672,1876.888,726.0
673,1879.175,731.0
674,1881.460,716.0
675,1883.745,717.0
676,1886.029,741.0
677,1888.312,728.0
678,1890.594,735.0
679,1892.875,731.0
680,1895.155,734.0
681,1897.435,735.0
682,1899.714,727.0
683,1901.992,733.0
684,1904.269,723.0
685,1906.545,719.0
686,1908.821,718.0
687,1911.095,726.0
688,1913.369,738.0
689,1915.642,730.0
690,1917.914,732.0
691,1920.186,730.0
692,1922.456,748.0
693,1924.726,729.0
694,1926.994,719.0
695,1929.262,730.0
696,1931.529,735.0
697,1933.796,733.0
698,1936.061,732.0
699,1938.326,730.0
700,1940.590,725.0
701,1942.853,727.0
702,1945.115,749.0
703,1947.376,729.0
704,1949.637,711.0
705,1951.896,726.0
706,1954.155,731.0
707,1956.413,729.0
708,1958.670,727.0
709,1960.927,729.0
710,1963.182,743.0
711,1965.437,724.0
712,1967.691,744.0
713,1969.944,737.0
714,1972.196,738.0
715,1974.447,734.0
716,1976.698,716.0
717,1978.948,722.0
718,1981.197,723.0
719,1983.445,744.0
720,1985.692,731.0
721,1987.938,724.0
722,1990.184,724.0
723,1992.429,731.0
724,1994.673,717.0
725,1996.916,737.0
726,1999.158,721.0
727,2001.400,727.0
728,2003.641,730.0
729,2005.881,741.0
730,2008.120,731.0
731,2010.358,744.0
732,2012.595,744.0
733,2014.832,725.0
734,2017.068,712.0
735,2019.303,726.0
736,2021.537,729.0
737,2023.770,731.0
738,2026.003,742.0
739,2028.234,741.0
740,2030.465,730.0
741,2032.695,721.0
742,2034.925,731.0
743,2037.153,725.0
744,2039.381,721.0
745,2041.608,741.0
746,2043.834,725.0
747,2046.059,742.0
748,2048.283,726.0
749,2050.507,747.0
750,2052.730,732.0
751,2054.951,732.0
752,2057.173,739.0
753,2059.393,725.0
754,2061.612,734.0
755,2063.831,726.0
756,2066.049,740.0
757,2068.266,737.0
758,2070.482,737.0
759,2072.698,722.0
760,2074.913,739.0
761,2077.126,740.0
762,2079.339,734.0
763,2081.552,731.0
764,2083.763,734.0
765,2085.974,733.0
766,2088.184,728.0
767,2090.393,727.0
768,2092.601,719.0
769,2094.808,726.0
770,2097.015,723.0
771,2099.221,733.0
772,2101.426,723.0
773,2103.630,735.0
774,2105.833,730.0
775,2108.036,727.0
776,2110.237,723.0
777,2112.438,714.0
778,2114.639,718.0
779,2116.838,726.0
780,2119.036,721.0
781,2121.234,731.0
782,2123.431,720.0
783,2125.627,714.0
784,2127.823,721.0
785,2130.017,740.0
786,2132.211,721.0
787,2134.404,729.0
788,2136.596,715.0
789,2138.788,728.0
790,2140.978,730.0
791,2143.168,728.0
792,2145.357,732.0
793,2147.545,739.0
794,2149.732,735.0
795,2151.919,736.0
796,2154.105,743.0
797,2156.290,728.0
798,2158.474,728.0
799,2160.657,715.0
800,2162.840,724.0
801,2165.022,731.0
802,2167.203,732.0
803,2169.383,732.0
804,2171.562,723.0
805,2173.741,724.0
806,2175.919,743.0
807,2178.096,731.0
808,2180.272,727.0
809,2182.448,740.0
810,2184.622,724.0
811,2186.796,731.0
812,2188.969,721.0
813,2191.142,716.0
814,2193.313,743.0
815,2195.484,736.0
816,2197.654,737.0
817,2199.823,724.0
818,2201.991,726.0
819,2204.159,723.0
820,2206.326,723.0
821,2208.492,718.0
822,2210.657,731.0
823,2212.821,725.0
824,2214.985,714.0
825,2217.148,727.0
826,2219.310,736.0
827,2221.471,716.0
828,2223.632,724.0
829,2225.791,731.0
830,2227.950,728.0
831,2230.108,734.0
832,2232.266,733.0
833,2234.422,725.0
834,2236.578,724.0
835,2238.733,732.0
836,2240.887,739.0
837,2243.041,728.0
838,2245.193,720.0
839,2247.345,736.0
840,2249.496,724.0
841,2251.647,724.0
842,2253.796,726.0
843,2255.945,728.0
844,2258.093,716.0
845,2260.240,721.0
846,2262.386,723.0
847,2264.532,715.0
848,2266.677,726.0
849,2268.821,727.0
850,2270.964,724.0
851,2273.107,718.0
852,2275.249,742.0
853,2277.390,727.0
854,2279.530,733.0
855,2281.669,722.0
856,2283.808,720.0
857,2285.946,752.0
858,2288.083,735.0
859,2290.219,719.0
860,2292.355,736.0
861,2294.489,734.0
862,2296.623,730.0
863,2298.757,719.0
864,2300.889,719.0
865,2303.021,728.0
866,2305.152,722.0
867,2307.282,726.0
868,2309.411,722.0
869,2311.540,722.0
870,2313.668,753.0
871,2315.795,747.0
872,2317.921,746.0
873,2320.046,730.0
874,2322.171,725.0
875,2324.295,733.0
876,2326.418,743.0
877,2328.541,734.0
878,2330.662,718.0
879,2332.783,719.0
880,2334.903,721.0
881,2337.023,726.0
882,2339.141,729.0
883,2341.259,731.0
884,2343.376,712.0
885,2345.493,721.0
886,2347.608,734.0
887,2349.723,722.0
888,2351.837,710.0
889,2353.950,720.0
890,2356.063,715.0
891,2358.174,724.0
892,2360.285,730.0
893,2362.395,722.0
894,2364.505,736.0
895,2366.613,735.0
896,2368.721,725.0
897,2370.828,728.0
898,2372.935,742.0
899,2375.040,716.0
900,2377.145,729.0
901,2379.249,730.0
902,2381.353,719.0
903,2383.455,725.0
904,2385.557,728.0
905,2387.658,725.0
906,2389.758,723.0
907,2391.858,723.0
908,2393.957,722.0
909,2396.055,728.0
910,2398.152,737.0
911,2400.248,726.0
912,2402.344,731.0
913,2404.439,732.0
914,2406.533,727.0
915,2408.627,738.0
916,2410.719,732.0
917,2412.811,739.0
918,2414.903,723.0
919,2416.993,711.0
920,2419.083,727.0
921,2421.172,721.0
922,2423.260,715.0
923,2425.347,721.0
924,2427.434,733.0
925,2429.520,722.0
926,2431.605,728.0
927,2433.689,738.0
928,2435.773,726.0
929,2437.856,724.0
930,2439.938,724.0
931,2442.020,731.0
932,2444.100,726.0
933,2446.180,715.0
934,2448.259,734.0
935,2450.338,728.0
936,2452.415,729.0
937,2454.492,732.0
938,2456.568,714.0
939,2458.644,722.0
940,2460.718,717.0
941,2462.792,725.0
942,2464.865,723.0
943,2466.938,722.0
944,2469.010,721.0
945,2471.080,732.0
946,2473.151,731.0
947,2475.220,731.0
948,2477.289,723.0
949,2479.357,724.0
950,2481.424,723.0
951,2483.490,713.0
952,2485.556,709.0
953,2487.621,736.0
954,2489.685,716.0
955,2491.749,718.0
956,2493.811,724.0
957,2495.873,716.0
958,2497.935,730.0
959,2499.995,724.0
960,2502.055,746.0
961,2504.114,704.0
962,2506.172,718.0
963,2508.230,727.0
964,2510.286,712.0
965,2512.343,736.0
966,2514.398,726.0
967,2516.452,735.0
968,2518.506,730.0
969,2520.559,723.0
970,2522.612,711.0
971,2524.663,729.0
972,2526.714,723.0
973,2528.764,731.0
974,2530.814,724.0
975,2532.862,717.0
976,2534.910,723.0
977,2536.958,719.0
978,2539.004,729.0
979,2541.050,720.0
980,2543.095,712.0
981,2545.139,720.0
982,2547.182,716.0
983,2549.225,733.0
984,2551.267,717.0
985,2553.309,719.0
986,2555.349,737.0
987,2557.389,721.0
988,2559.428,723.0
989,2561.466,727.0
990,2563.504,718.0
991,2565.541,710.0
992,2567.577,720.0
993,2569.613,723.0
994,2571.647,732.0
995,2573.681,731.0
996,2575.715,724.0
997,2577.747,733.0
998,2579.779,720.0
999,2581.810,727.0
1000,2583.840,718.0
1001,2585.870,719.0
1002,2587.899,712.0
1003,2589.927,728.0
1004,2591.954,730.0
1005,2593.981,731.0
1006,2596.007,732.0
1007,2598.032,721.0
1008,2600.057,730.0
1009,2602.081,716.0
1010,2604.104,718.0
1011,2606.126,710.0
1012,2608.148,720.0
1013,2610.168,721.0
1014,2612.189,717.0
1015,2614.208,715.0
1016,2616.227,723.0
1017,2618.245,727.0
1018,2620.262,719.0
1019,2622.279,718.0
1020,2624.294,711.0
1021,2626.309,717.0
1022,2628.324,719.0
1023,2630.337,721.0
