raman_shift_cm-1,intensity
200.000000,0.01044171252
201.000000,0.01015809807
202.000000,0.01020308415
203.000000,0.009392840648
204.000000,0.01109043453
205.000000,0.0108293479
206.000000,0.01024264843
207.000000,0.01068348231
208.000000,0.01048759219
209.000000,0.01015473323
210.000000,0.01076845002
211.000000,0.01025436739
212.000000,0.01024823376
213.000000,0.01006408432
214.000000,0.0105641124
215.000000,0.0103436426
216.000000,0.01060263651
217.000000,0.01014285255
218.000000,0.01043767044
219.000000,0.01003124886
220.000000,0.01072597042
221.000000,0.01046583125
222.000000,0.01052408529
223.000000,0.01055730506
224.000000,0.009990054113
225.000000,0.01070889019
226.000000,0.01121956671
227.000000,0.009742783556
228.000000,0.009707678187
229.000000,0.00979879973
230.000000,0.01073861274
231.000000,0.01045481976
232.000000,0.01083598229
233.000000,0.01069493703
234.000000,0.0104915204
235.000000,0.01052224161
236.000000,0.0103420646
237.000000,0.01075870314
238.000000,0.009960790833
239.000000,0.01024529981
240.000000,0.01051259303
241.000000,0.0111373681
242.000000,0.01011240454
243.000000,0.009987964689
244.000000,0.010195681
245.000000,0.01081012017
246.000000,0.01032983296
247.000000,0.0109550064
248.000000,0.009677696837
249.000000,0.01087956766
250.000000,0.01084356344
251.000000,0.009863618076
252.000000,0.01049399346
253.000000,0.01092034914
254.000000,0.01047070819
255.000000,0.01083692483
256.000000,0.01138851199
257.000000,0.01054965246
258.000000,0.01032945842
259.000000,0.01013473181
260.000000,0.01070392948
261.000000,0.0103675723
262.000000,0.01037633628
263.000000,0.01040731132
264.000000,0.01071095351
265.000000,0.01002607031
266.000000,0.009842266265
267.000000,0.00948228718
268.000000,0.01093693761
269.000000,0.01048862847
270.000000,0.01106481137
271.000000,0.01045884426
272.000000,0.01016723857
273.000000,0.01065695736
274.000000,0.01043684617
275.000000,0.009967513897
276.000000,0.01011688019
277.000000,0.01117934815
278.000000,0.01061611772
279.000000,0.01064268474
280.000000,0.01036727376
281.000000,0.01020378276
282.000000,0.01083812097
283.000000,0.01044140818
284.000000,0.01018142779
285.000000,0.01043324421
286.000000,0.0101264902
287.000000,0.01056660049
288.000000,0.01094413543
289.000000,0.01015988535
290.000000,0.011067625
291.000000,0.01023106047
292.000000,0.01056138759
293.000000,0.01016739574
294.000000,0.0104149974
295.000000,0.01052480799
296.000000,0.01033394079
297.000000,0.01022864208
298.000000,0.01024063931
299.000000,0.01018534058
300.000000,0.009887797725
301.000000,0.01041268158
302.000000,0.0106803871
303.000000,0.01088535384
304.000000,0.01078291843
305.000000,0.0115091114
306.000000,0.01065576425
307.000000,0.01034788837
308.000000,0.0112812218
309.000000,0.01011584259
310.000000,0.01092429881
311.000000,0.01015704401
312.000000,0.01068295715
313.000000,0.009756180947
314.000000,0.01090549307
315.000000,0.01048474546
316.000000,0.01016325
317.000000,0.01122398565
318.000000,0.01086107293
319.000000,0.01057558497
320.000000,0.01026143324
321.000000,0.0105446325
322.000000,0.01049879137
323.000000,0.01085667743
324.000000,0.01088841969
325.000000,0.01030452891
326.000000,0.01035434436
327.000000,0.0103637471
328.000000,0.01003934672
329.000000,0.01034496404
330.000000,0.01054717137
331.000000,0.01086307644
332.000000,0.01111742926
333.000000,0.01026854188
334.000000,0.01081489485
335.000000,0.01041936701
336.000000,0.01142989211
337.000000,0.01058301687
338.000000,0.01080606868
339.000000,0.01023348722
340.000000,0.01028643335
341.000000,0.01069416748
342.000000,0.01046267125
343.000000,0.0107604359
344.000000,0.009997242301
345.000000,0.01088964979
346.000000,0.01026795619
347.000000,0.01131964323
348.000000,0.01051823784
349.000000,0.01107550728
350.000000,0.01008161046
351.000000,0.01081421114
352.000000,0.01029047633
353.000000,0.01045401516
354.000000,0.01066171933
355.000000,0.01052818856
356.000000,0.01076388671
357.000000,0.01096044108
358.000000,0.01092571512
359.000000,0.01063286235
360.000000,0.01012576512
361.000000,0.01035259139
362.000000,0.0105994904
363.000000,0.00983243651
364.000000,0.01098540455
365.000000,0.01059215429
366.000000,0.01059095139
367.000000,0.01107433188
368.000000,0.01096568109
369.000000,0.01079048646
370.000000,0.01030515599
371.000000,0.01083349608
372.000000,0.01085147165
373.000000,0.01036280016
374.000000,0.01113777929
375.000000,0.01092739122
376.000000,0.009940205667
377.000000,0.01078069209
378.000000,0.0102299284
379.000000,0.01119426791
380.000000,0.01106652685
381.000000,0.01030629333
382.000000,0.01039783527
383.000000,0.01079662178
384.000000,0.01066449427
385.000000,0.01137428063
386.000000,0.01106481306
387.000000,0.01065972078
388.000000,0.01100796288
389.000000,0.009968451018
390.000000,0.01090971296
391.000000,0.01113678111
392.000000,0.01072313608
393.000000,0.01051517856
394.000000,0.01103019391
395.000000,0.01159195266
396.000000,0.01089515133
397.000000,0.01036968126
398.000000,0.01140107524
399.000000,0.01007618864
400.000000,0.01103379807
401.000000,0.01060469785
402.000000,0.0112147387
403.000000,0.01050778615
404.000000,0.01138224953
405.000000,0.01097801308
406.000000,0.01017242097
407.000000,0.01007894636
408.000000,0.01074740974
409.000000,0.01139697209
410.000000,0.01093560316
411.000000,0.01091720849
412.000000,0.01080163425
413.000000,0.01119685912
414.000000,0.01105840196
415.000000,0.01102545193
416.000000,0.01052533818
417.000000,0.01140035518
418.000000,0.01147650658
419.000000,0.010416869
420.000000,0.01186422129
421.000000,0.01123891695
422.000000,0.01076108273
423.000000,0.01020099481
424.000000,0.01123201056
425.000000,0.01119889572
426.000000,0.01074434359
427.000000,0.01027316779
428.000000,0.01144606192
429.000000,0.01076791683
430.000000,0.01082161245
431.000000,0.01215572928
432.000000,0.01187591749
433.000000,0.01141357918
434.000000,0.01085737247
435.000000,0.01130688431
436.000000,0.01014217544
437.000000,0.01110514675
438.000000,0.01076648565
439.000000,0.01056416144
440.000000,0.0104533858
441.000000,0.01130478425
442.000000,0.01113878619
443.000000,0.01117541484
444.000000,0.01145705863
445.000000,0.01079038369
446.000000,0.01064342131
447.000000,0.01043607854
448.000000,0.01102165027
449.000000,0.01146903316
450.000000,0.01111458368
451.000000,0.01144033057
452.000000,0.01072113105
453.000000,0.0110157276
454.000000,0.01090697885
455.000000,0.01072413714
456.000000,0.01197757339
457.000000,0.01158510073
458.000000,0.01095015324
459.000000,0.0109592682
460.000000,0.01125377465
461.000000,0.01071099106
462.000000,0.011473488
463.000000,0.01079299592
464.000000,0.01117424696
465.000000,0.01092441903
466.000000,0.01115454085
467.000000,0.01082635865
468.000000,0.01074224858
469.000000,0.01099769688
470.000000,0.0111251507
471.000000,0.01129243167
472.000000,0.01145145107
473.000000,0.0120483298
474.000000,0.01177643581
475.000000,0.01136459572
476.000000,0.01177060651
477.000000,0.01121943457
478.000000,0.0120894222
479.000000,0.01174513406
480.000000,0.01099861848
481.000000,0.01185902081
482.000000,0.01189952579
483.000000,0.01051539159
484.000000,0.01130726024
485.000000,0.01143417474
486.000000,0.01086985114
487.000000,0.01123229416
488.000000,0.01129809831
489.000000,0.01189893449
490.000000,0.01183532545
491.000000,0.01278505486
492.000000,0.01159674001
493.000000,0.01223602054
494.000000,0.01182699015
495.000000,0.01192499798
496.000000,0.01137441875
497.000000,0.01109603543
498.000000,0.01157615774
499.000000,0.01221101916
500.000000,0.01256293835
501.000000,0.01219562391
502.000000,0.01217811635
503.000000,0.01166865767
504.000000,0.01264384599
505.000000,0.0125942391
506.000000,0.0118716172
507.000000,0.01209330336
508.000000,0.01174202344
509.000000,0.01275663506
510.000000,0.01236234306
511.000000,0.01219259221
512.000000,0.01242499022
513.000000,0.0124709159
514.000000,0.01216336019
515.000000,0.01186551177
516.000000,0.01188373925
517.000000,0.01173794603
518.000000,0.01265484158
519.000000,0.01339583597
520.000000,0.01186794207
521.000000,0.01264314961
522.000000,0.01279365208
523.000000,0.0122780382
524.000000,0.01279754434
525.000000,0.01232219248
526.000000,0.01328768384
527.000000,0.01261779942
528.000000,0.01294518046
529.000000,0.01322965568
530.000000,0.01283664731
531.000000,0.01234638362
532.000000,0.01290643509
533.000000,0.01348203739
534.000000,0.01320285329
535.000000,0.01339042382
536.000000,0.01293029884
537.000000,0.01348591038
538.000000,0.0137883666
539.000000,0.01358258783
540.000000,0.01440467384
541.000000,0.01363448847
542.000000,0.01338001832
543.000000,0.01323140679
544.000000,0.01442429891
545.000000,0.014028194
546.000000,0.01454820926
547.000000,0.01442202965
548.000000,0.01498824046
549.000000,0.01494795236
550.000000,0.0143980785
551.000000,0.01477078029
552.000000,0.01521230116
553.000000,0.01440573303
554.000000,0.01560792305
555.000000,0.01564548404
556.000000,0.01569305485
557.000000,0.01536516859
558.000000,0.01571892818
559.000000,0.01531102773
560.000000,0.01594876335
561.000000,0.01586662086
562.000000,0.01632109331
563.000000,0.01628303757
564.000000,0.01679903153
565.000000,0.01737280438
566.000000,0.0166045365
567.000000,0.01773846641
568.000000,0.01682510869
569.000000,0.01702559486
570.000000,0.01812625071
571.000000,0.0184777781
572.000000,0.0189718084
573.000000,0.01847541392
574.000000,0.01947188419
575.000000,0.01993169706
576.000000,0.02079427351
577.000000,0.02069002409
578.000000,0.0214134575
579.000000,0.02131511396
580.000000,0.02217256735
581.000000,0.02265194578
582.000000,0.02373939284
583.000000,0.02374063858
584.000000,0.0245362216
585.000000,0.02589609665
586.000000,0.02724637604
587.000000,0.02762598008
588.000000,0.02862352539
589.000000,0.02949075558
590.000000,0.03130239117
591.000000,0.03244642306
592.000000,0.03443030613
593.000000,0.03553966536
594.000000,0.03688650108
595.000000,0.03911397464
596.000000,0.04127530067
597.000000,0.04379273329
598.000000,0.04776703655
599.000000,0.05096129495
600.000000,0.05400524305
601.000000,0.05965704884
602.000000,0.06418792103
603.000000,0.0697068397
604.000000,0.07729190525
605.000000,0.08545678546
606.000000,0.09514900323
607.000000,0.1067127987
608.000000,0.1221706557
609.000000,0.1403487978
610.000000,0.1617415678
611.000000,0.1914445179
612.000000,0.2277988043
613.000000,0.2742290904
614.000000,0.3352939177
615.000000,0.4139083117
616.000000,0.5136911222
617.000000,0.6342095676
618.000000,0.7633731517
619.000000,0.8683625129
620.000000,0.9114002937
621.000000,0.8690359746
622.000000,0.7625885992
623.000000,0.6342361798
624.000000,0.5135441255
625.000000,0.4137777421
626.000000,0.3353726538
627.000000,0.2746849864
628.000000,0.2273494183
629.000000,0.1926218822
630.000000,0.1627416749
631.000000,0.1404994264
632.000000,0.122300175
633.000000,0.1075865134
634.000000,0.09625503457
635.000000,0.08558965093
636.000000,0.07798814246
637.000000,0.07088364559
638.000000,0.06402960576
639.000000,0.05973705238
640.000000,0.05463955676
641.000000,0.05215274376
642.000000,0.04754793734
643.000000,0.04437846474
644.000000,0.04138880017
645.000000,0.03932904408
646.000000,0.03755952139
647.000000,0.03555563993
648.000000,0.03381485642
649.000000,0.03254363287
650.000000,0.03139791133
651.000000,0.03084485246
652.000000,0.02847927909
653.000000,0.02793354472
654.000000,0.02685337359
655.000000,0.02578722899
656.000000,0.02511457884
657.000000,0.0245487002
658.000000,0.02454371986
659.000000,0.02357570342
660.000000,0.02288005051
661.000000,0.02282309788
662.000000,0.02221180847
663.000000,0.02156532379
664.000000,0.02139478129
665.000000,0.020524739
666.000000,0.02074827055
667.000000,0.02034942497
668.000000,0.01968525786
669.000000,0.01907038188
670.000000,0.01989310881
671.000000,0.01906719179
672.000000,0.02001069613
673.000000,0.01830460713
674.000000,0.01869694773
675.000000,0.01798507376
676.000000,0.01807542757
677.000000,0.01813397692
678.000000,0.01731830042
679.000000,0.0174454773
680.000000,0.01740686672
681.000000,0.01725379597
682.000000,0.0173213321
683.000000,0.0173752972
684.000000,0.01718839278
685.000000,0.01685717692
686.000000,0.0165168577
687.000000,0.01611424585
688.000000,0.01618840954
689.000000,0.01619358091
690.000000,0.01660612691
691.000000,0.01612105617
692.000000,0.01570823015
693.000000,0.01639938308
694.000000,0.01577605941
695.000000,0.01574422034
696.000000,0.01591776667
697.000000,0.01615967
698.000000,0.01497153143
699.000000,0.01545880636
700.000000,0.01595229073
701.000000,0.01571506013
702.000000,0.01549750791
703.000000,0.0156132175
704.000000,0.01637419527
705.000000,0.01563187981
706.000000,0.01609706718
707.000000,0.01613031134
708.000000,0.0156387596
709.000000,0.01600522855
710.000000,0.01566049169
711.000000,0.01561290025
712.000000,0.0154269241
713.000000,0.01625137014
714.000000,0.01577004797
715.000000,0.01574029434
716.000000,0.01554599622
717.000000,0.01676039697
718.000000,0.0163776179
719.000000,0.01607606416
720.000000,0.01590395028
721.000000,0.01562707709
722.000000,0.01641751158
723.000000,0.01648273546
724.000000,0.01587554987
725.000000,0.01698022426
726.000000,0.0169080368
727.000000,0.01630045572
728.000000,0.01655646363
729.000000,0.01670736448
730.000000,0.01704849966
731.000000,0.01703863791
732.000000,0.01656097556
733.000000,0.01793330009
734.000000,0.01760512959
735.000000,0.01812614029
736.000000,0.01827575364
737.000000,0.01785195762
738.000000,0.01824307541
739.000000,0.01858264189
740.000000,0.0187887125
741.000000,0.01862015459
742.000000,0.01865609773
743.000000,0.01914884305
744.000000,0.01906017627
745.000000,0.01942029542
746.000000,0.01910949813
747.000000,0.02025229349
748.000000,0.0201251941
749.000000,0.0206522179
750.000000,0.02121538683
751.000000,0.02174924893
752.000000,0.02279422183
753.000000,0.02256525852
754.000000,0.02239606751
755.000000,0.02352763314
756.000000,0.02379064707
757.000000,0.02478594334
758.000000,0.02499740853
759.000000,0.02568700172
760.000000,0.02652375765
761.000000,0.02730095188
762.000000,0.02771921659
763.000000,0.02916116489
764.000000,0.0304944959
765.000000,0.03215587758
766.000000,0.03285150578
767.000000,0.034246502
768.000000,0.03620540914
769.000000,0.03794116509
770.000000,0.04031658274
771.000000,0.04209226758
772.000000,0.04429858808
773.000000,0.0476005268
774.000000,0.05079964558
775.000000,0.0535487902
776.000000,0.05786071687
777.000000,0.06178836315
778.000000,0.06770312678
779.000000,0.07375837264
780.000000,0.08135213174
781.000000,0.08987033149
782.000000,0.1002200993
783.000000,0.1124456168
784.000000,0.1273394145
785.000000,0.1449435025
786.000000,0.1661257827
787.000000,0.1919951741
788.000000,0.2247762985
789.000000,0.2630917092
790.000000,0.3074324377
791.000000,0.3589184449
792.000000,0.4119377002
793.000000,0.4619316907
794.000000,0.4989438699
795.000000,0.5131630976
796.000000,0.4986517067
797.000000,0.4622599364
798.000000,0.4132467004
799.000000,0.3580105384
800.000000,0.3079652708
801.000000,0.26283102
802.000000,0.2243295101
803.000000,0.1927345214
804.000000,0.1675660241
805.000000,0.1445858255
806.000000,0.1272205238
807.000000,0.1126143173
808.000000,0.1002520755
809.000000,0.08978638508
810.000000,0.08235399179
811.000000,0.07449761659
812.000000,0.06746211926
813.000000,0.0625149102
814.000000,0.05831395135
815.000000,0.05427360331
816.000000,0.05000402747
817.000000,0.04743999242
818.000000,0.04484120433
819.000000,0.04246490599
820.000000,0.04030349532
821.000000,0.03748436987
822.000000,0.03721978937
823.000000,0.03500659056
824.000000,0.03423759372
825.000000,0.03338689447
826.000000,0.03102147364
827.000000,0.02954026196
828.000000,0.02941984786
829.000000,0.02812456154
830.000000,0.02721254893
831.000000,0.02624191368
832.000000,0.02665169594
833.000000,0.02517426709
834.000000,0.02421452509
835.000000,0.02406209204
836.000000,0.02328471296
837.000000,0.02335345596
838.000000,0.02269824911
839.000000,0.02204893245
840.000000,0.02234620571
841.000000,0.02150715871
842.000000,0.02173648255
843.000000,0.02165541031
844.000000,0.02073022776
845.000000,0.02035886746
846.000000,0.020456789
847.000000,0.0205091672
848.000000,0.01994180503
849.000000,0.01980305643
850.000000,0.01955337533
851.000000,0.01951775015
852.000000,0.01948521113
853.000000,0.0188023626
854.000000,0.01875283855
855.000000,0.01883376208
856.000000,0.01842938619
857.000000,0.01863787181
858.000000,0.0186935658
859.000000,0.01837363218
860.000000,0.0180512676
861.000000,0.01789897681
862.000000,0.01883400169
863.000000,0.01841475649
864.000000,0.01755114592
865.000000,0.0176041324
866.000000,0.0186369483
867.000000,0.01844402448
868.000000,0.01784790469
869.000000,0.01822175823
870.000000,0.01713050316
871.000000,0.01769704052
872.000000,0.01796846594
873.000000,0.0169080638
874.000000,0.01732293024
875.000000,0.01793741324
876.000000,0.01806904027
877.000000,0.01737507298
878.000000,0.01772814405
879.000000,0.01825608081
880.000000,0.01747029205
881.000000,0.01710063373
882.000000,0.01762393306
883.000000,0.01750931786
884.000000,0.01820862548
885.000000,0.01777739728
886.000000,0.01742116354
887.000000,0.01873436726
888.000000,0.01760974708
889.000000,0.01803791797
890.000000,0.0181620905
891.000000,0.01825151469
892.000000,0.01805669336
893.000000,0.01827552042
894.000000,0.01807063241
895.000000,0.01759072329
896.000000,0.01813478337
897.000000,0.01821141771
898.000000,0.0182915939
899.000000,0.01849291056
900.000000,0.01826835165
901.000000,0.01913134354
902.000000,0.019316672
903.000000,0.01790202114
904.000000,0.01888241447
905.000000,0.01869541543
906.000000,0.01804269664
907.000000,0.01935949092
908.000000,0.01906299944
909.000000,0.01928029718
910.000000,0.01929517943
911.000000,0.02012114988
912.000000,0.02031810243
913.000000,0.0200748283
914.000000,0.02038897778
915.000000,0.0202205033
916.000000,0.02048162852
917.000000,0.02029554854
918.000000,0.02077962301
919.000000,0.0206610358
920.000000,0.02128385919
921.000000,0.02166149301
922.000000,0.02165899831
923.000000,0.02222072681
924.000000,0.02304452932
925.000000,0.02135643984
926.000000,0.02244489129
927.000000,0.02246249264
928.000000,0.022768534
929.000000,0.02268043136
930.000000,0.0235290266
931.000000,0.02370145789
932.000000,0.02386152295
933.000000,0.02433659145
934.000000,0.02453950556
935.000000,0.02419313618
936.000000,0.02593127873
937.000000,0.02576620227
938.000000,0.02591331141
939.000000,0.02684072008
940.000000,0.02689878788
941.000000,0.02676169554
942.000000,0.02847692324
943.000000,0.0279672159
944.000000,0.02909280894
945.000000,0.0297988532
946.000000,0.03089159746
947.000000,0.03146116791
948.000000,0.03171968379
949.000000,0.03205367219
950.000000,0.0329385418
951.000000,0.0343291828
952.000000,0.03544462627
953.000000,0.03583401245
954.000000,0.03629967266
955.000000,0.03796973735
956.000000,0.03847263983
957.000000,0.03959438856
958.000000,0.04085710392
959.000000,0.04249935191
960.000000,0.0437593572
961.000000,0.04553256784
962.000000,0.04725046417
963.000000,0.04865523754
964.000000,0.04936945985
965.000000,0.0516251222
966.000000,0.05453419273
967.000000,0.05679651336
968.000000,0.06024424521
969.000000,0.06215844557
970.000000,0.06516052765
971.000000,0.06894533908
972.000000,0.07267483429
973.000000,0.07621815523
974.000000,0.08100231841
975.000000,0.08536378429
976.000000,0.09102653166
977.000000,0.0981611918
978.000000,0.1041623348
979.000000,0.1130856137
980.000000,0.1220877538
981.000000,0.1325494881
982.000000,0.1446290049
983.000000,0.1584546532
984.000000,0.1737246777
985.000000,0.1934960414
986.000000,0.216699676
987.000000,0.2450938622
988.000000,0.27819747
989.000000,0.3203436388
990.000000,0.3732338153
991.000000,0.4413664992
992.000000,0.5282493904
993.000000,0.6456178351
994.000000,0.8068015659
995.000000,1.030886341
996.000000,1.356536145
997.000000,1.83392965
998.000000,2.534829788
999.000000,3.498306107
1000.000000,4.538152098
1001.000000,5.040398072
1002.000000,4.542437294
1003.000000,3.506595294
1004.000000,2.546864891
1005.000000,1.849594646
1006.000000,1.375856534
1007.000000,1.05592384
1008.000000,0.8360256431
1009.000000,0.679735074
1010.000000,0.5692623479
1011.000000,0.4872874727
1012.000000,0.4273755928
1013.000000,0.3830387033
1014.000000,0.3508441946
1015.000000,0.3278234145
1016.000000,0.312913285
1017.000000,0.3058146772
1018.000000,0.3053088045
1019.000000,0.312077143
1020.000000,0.327163615
1021.000000,0.3519700443
1022.000000,0.3883657938
1023.000000,0.4411757071
1024.000000,0.5156066438
1025.000000,0.622531891
1026.000000,0.7733587453
1027.000000,0.9891424752
1028.000000,1.283751846
1029.000000,1.652928024
1030.000000,2.008257714
1031.000000,2.161979646
1032.000000,2.001091252
1033.000000,1.639484222
1034.000000,1.264058342
1035.000000,0.9616454098
1036.000000,0.7400587018
1037.000000,0.5809924279
1038.000000,0.4656173684
1039.000000,0.380592075
1040.000000,0.3177458649
1041.000000,0.2699632604
1042.000000,0.2331710456
1043.000000,0.2031097252
1044.000000,0.1792909289
1045.000000,0.1601939388
1046.000000,0.1435517012
1047.000000,0.1301565242
1048.000000,0.1187640041
1049.000000,0.1084423764
1050.000000,0.1010130541
1051.000000,0.09377472603
1052.000000,0.08770394538
1053.000000,0.0813090142
1054.000000,0.07657488577
1055.000000,0.07293931927
1056.000000,0.06882668713
1057.000000,0.06578131218
1058.000000,0.06176744711
1059.000000,0.05937653095
1060.000000,0.05647353071
1061.000000,0.05454763304
1062.000000,0.05211436285
1063.000000,0.05058902428
1064.000000,0.04903511824
1065.000000,0.04724512486
1066.000000,0.04475380221
1067.000000,0.044472109
1068.000000,0.04299928205
1069.000000,0.04122300014
1070.000000,0.04019281486
1071.000000,0.03953670108
1072.000000,0.03882165437
1073.000000,0.03753746599
1074.000000,0.03625558605
1075.000000,0.03626069218
1076.000000,0.0355118755
1077.000000,0.03576496422
1078.000000,0.03366295679
1079.000000,0.03462005523
1080.000000,0.03378022292
1081.000000,0.03271257748
1082.000000,0.03279894514
1083.000000,0.03175109849
1084.000000,0.03171209864
1085.000000,0.03066576561
1086.000000,0.03065789947
1087.000000,0.02991414735
1088.000000,0.02940989919
1089.000000,0.02967671562
1090.000000,0.02929148252
1091.000000,0.02957748821
1092.000000,0.02967307751
1093.000000,0.02893606974
1094.000000,0.02888847691
1095.000000,0.02882315889
1096.000000,0.02798161947
1097.000000,0.02868689571
1098.000000,0.02853191153
1099.000000,0.02847871185
1100.000000,0.02804893448
1101.000000,0.02771046709
1102.000000,0.02843996824
1103.000000,0.02872665026
1104.000000,0.02922059623
1105.000000,0.02924547139
1106.000000,0.02950956514
1107.000000,0.029236618
1108.000000,0.02974033124
1109.000000,0.02941416513
1110.000000,0.02999778477
1111.000000,0.03040200422
1112.000000,0.03142304667
1113.000000,0.03080001507
1114.000000,0.03058995361
1115.000000,0.03208960273
1116.000000,0.03170858974
1117.000000,0.03253855918
1118.000000,0.0330385953
1119.000000,0.03344761723
1120.000000,0.03506606389
1121.000000,0.03556589573
1122.000000,0.03595977032
1123.000000,0.03720033677
1124.000000,0.0380687857
1125.000000,0.0396713369
1126.000000,0.04058498193
1127.000000,0.04188575175
1128.000000,0.04355460719
1129.000000,0.04544520203
1130.000000,0.04775835968
1131.000000,0.04954570111
1132.000000,0.05243565669
1133.000000,0.05554232229
1134.000000,0.05958682383
1135.000000,0.0627463343
1136.000000,0.06551529727
1137.000000,0.07147213398
1138.000000,0.07728613812
1139.000000,0.08431648807
1140.000000,0.09275756804
1141.000000,0.1018536708
1142.000000,0.111922229
1143.000000,0.126602744
1144.000000,0.1431573764
1145.000000,0.1637696381
1146.000000,0.1896306466
1147.000000,0.2206125739
1148.000000,0.261817123
1149.000000,0.3116303256
1150.000000,0.375997136
1151.000000,0.453587758
1152.000000,0.5429219476
1153.000000,0.6312406423
1154.000000,0.7013286553
1155.000000,0.730156763
1156.000000,0.7037572757
1157.000000,0.6362081828
1158.000000,0.5478925682
1159.000000,0.4614530655
1160.000000,0.3871746408
1161.000000,0.3255298404
1162.000000,0.2777039756
1163.000000,0.2394056739
1164.000000,0.2120232501
1165.000000,0.189421559
1166.000000,0.1738066958
1167.000000,0.1614227221
1168.000000,0.1533857697
1169.000000,0.1494932663
1170.000000,0.1484638462
1171.000000,0.1510426912
1172.000000,0.1560214296
1173.000000,0.1655703589
1174.000000,0.1796726599
1175.000000,0.2006781537
1176.000000,0.2266940215
1177.000000,0.2648726794
1178.000000,0.3140003188
1179.000000,0.378332642
1180.000000,0.4560019355
1181.000000,0.5403489933
1182.000000,0.6083375418
1183.000000,0.6349450615
1184.000000,0.6057094725
1185.000000,0.5332850003
1186.000000,0.4471916954
1187.000000,0.3659805229
1188.000000,0.2976531218
1189.000000,0.2448490075
1190.000000,0.202885168
1191.000000,0.1711239645
1192.000000,0.1462192556
1193.000000,0.1273485059
1194.000000,0.1109659472
1195.000000,0.09798977143
1196.000000,0.08768874981
1197.000000,0.08002886884
1198.000000,0.07177921348
1199.000000,0.06627084458
1200.000000,0.0612124012
1201.000000,0.05601370591
1202.000000,0.05302787773
1203.000000,0.05032708462
1204.000000,0.04713612463
1205.000000,0.04414313994
1206.000000,0.04252785841
1207.000000,0.04045255079
1208.000000,0.03926054479
1209.000000,0.03654013653
1210.000000,0.03522520712
1211.000000,0.03407777335
1212.000000,0.03280645723
1213.000000,0.03180255276
1214.000000,0.03072425465
1215.000000,0.02957111457
1216.000000,0.02836268067
1217.000000,0.02800113906
1218.000000,0.02694846352
1219.000000,0.02641762285
1220.000000,0.0259998712
1221.000000,0.02584421067
1222.000000,0.02544537207
1223.000000,0.02418734273
1224.000000,0.02425545271
1225.000000,0.02401439004
1226.000000,0.02326289459
1227.000000,0.02223725148
1228.000000,0.02166710964
1229.000000,0.02250405839
1230.000000,0.02222953214
1231.000000,0.02166880485
1232.000000,0.02084829991
1233.000000,0.02157834559
1234.000000,0.02122474144
1235.000000,0.02047633721
1236.000000,0.02017364397
1237.000000,0.0192597662
1238.000000,0.02013448273
1239.000000,0.01898981751
1240.000000,0.0197187972
1241.000000,0.01955861095
1242.000000,0.01913334812
1243.000000,0.01956474725
1244.000000,0.0186486665
1245.000000,0.01886547143
1246.000000,0.01880710396
1247.000000,0.01845300377
1248.000000,0.01805732251
1249.000000,0.01859396825
1250.000000,0.01815346587
1251.000000,0.0177950453
1252.000000,0.01769842323
1253.000000,0.01771432051
1254.000000,0.01847652899
1255.000000,0.01751286462
1256.000000,0.01728501674
1257.000000,0.01686900863
1258.000000,0.01672501641
1259.000000,0.01637540732
1260.000000,0.01715323873
1261.000000,0.01699907908
1262.000000,0.01650769804
1263.000000,0.01625878996
1264.000000,0.01666033944
1265.000000,0.01652136284
1266.000000,0.01613955453
1267.000000,0.01674028197
1268.000000,0.01662479934
1269.000000,0.01649807225
1270.000000,0.01678000118
1271.000000,0.01616555791
1272.000000,0.01692816475
1273.000000,0.01593803797
1274.000000,0.01651153831
1275.000000,0.01652378188
1276.000000,0.01613135856
1277.000000,0.01634388568
1278.000000,0.01565934927
1279.000000,0.01554323534
1280.000000,0.01603741073
1281.000000,0.01580106048
1282.000000,0.01630668438
1283.000000,0.01606067934
1284.000000,0.01627568835
1285.000000,0.01613837959
1286.000000,0.01607585199
1287.000000,0.01601661143
1288.000000,0.01581682881
1289.000000,0.01576819026
1290.000000,0.01675778379
1291.000000,0.01523034341
1292.000000,0.01585264336
1293.000000,0.01632289534
1294.000000,0.01608452512
1295.000000,0.01647723232
1296.000000,0.01613164601
1297.000000,0.01540627644
1298.000000,0.01578071209
1299.000000,0.01535306764
1300.000000,0.01631280807
1301.000000,0.01650120507
1302.000000,0.01575369721
1303.000000,0.01615523944
1304.000000,0.01578276386
1305.000000,0.01538209847
1306.000000,0.01579072842
1307.000000,0.01534965188
1308.000000,0.01576999274
1309.000000,0.01609820036
1310.000000,0.01632175936
1311.000000,0.01656847912
1312.000000,0.0159373877
1313.000000,0.01618683468
1314.000000,0.01628440182
1315.000000,0.01636303585
1316.000000,0.01502655747
1317.000000,0.01588348838
1318.000000,0.01654256055
1319.000000,0.01580701593
1320.000000,0.01638627906
1321.000000,0.01665482871
1322.000000,0.01559823104
1323.000000,0.01631789257
1324.000000,0.01652799671
1325.000000,0.01647813878
1326.000000,0.01590411096
1327.000000,0.01669905735
1328.000000,0.01638187483
1329.000000,0.01698317035
1330.000000,0.01687590809
1331.000000,0.01653533332
1332.000000,0.01687917071
1333.000000,0.016588101
1334.000000,0.01664177927
1335.000000,0.01634959665
1336.000000,0.01694797252
1337.000000,0.01742927122
1338.000000,0.01721902963
1339.000000,0.01723275776
1340.000000,0.01706005293
1341.000000,0.01717528667
1342.000000,0.01775888676
1343.000000,0.01694257953
1344.000000,0.01844731076
1345.000000,0.01768129942
1346.000000,0.01866361959
1347.000000,0.01835522601
1348.000000,0.01781192249
1349.000000,0.01837001456
1350.000000,0.01827930511
1351.000000,0.01846551335
1352.000000,0.01870576477
1353.000000,0.01828056395
1354.000000,0.01836742878
1355.000000,0.01856680126
1356.000000,0.0183110351
1357.000000,0.01888095296
1358.000000,0.01921040456
1359.000000,0.01935612985
1360.000000,0.01947560553
1361.000000,0.01938761924
1362.000000,0.02001369996
1363.000000,0.0190362064
1364.000000,0.01986198708
1365.000000,0.02005941543
1366.000000,0.02072596495
1367.000000,0.0208163354
1368.000000,0.02106093198
1369.000000,0.02094372348
1370.000000,0.02152259524
1371.000000,0.02095445177
1372.000000,0.02160563261
1373.000000,0.02096223587
1374.000000,0.02273217641
1375.000000,0.02293306204
1376.000000,0.02231677062
1377.000000,0.02248747396
1378.000000,0.02226975444
1379.000000,0.02279051208
1380.000000,0.02375899404
1381.000000,0.02396779696
1382.000000,0.02377515971
1383.000000,0.0245151172
1384.000000,0.0248145432
1385.000000,0.02565064728
1386.000000,0.02614701492
1387.000000,0.02619435356
1388.000000,0.02676733068
1389.000000,0.02717957311
1390.000000,0.02682908092
1391.000000,0.02824386607
1392.000000,0.02867939959
1393.000000,0.0295661442
1394.000000,0.02912180744
1395.000000,0.03078400942
1396.000000,0.03087846464
1397.000000,0.03193293635
1398.000000,0.03304194157
1399.000000,0.0327403224
1400.000000,0.03362461749
1401.000000,0.03541474449
1402.000000,0.03548093102
1403.000000,0.03653113958
1404.000000,0.03819553841
1405.000000,0.03898028596
1406.000000,0.04055333443
1407.000000,0.04162225351
1408.000000,0.04283937668
1409.000000,0.0446864954
1410.000000,0.04671534218
1411.000000,0.04746210309
1412.000000,0.04988236333
1413.000000,0.05167159757
1414.000000,0.05334395911
1415.000000,0.05573531604
1416.000000,0.05761962961
1417.000000,0.06040173521
1418.000000,0.06364927988
1419.000000,0.06667396861
1420.000000,0.07066543133
1421.000000,0.07341236017
1422.000000,0.07798192506
1423.000000,0.08244185113
1424.000000,0.08772478907
1425.000000,0.09390146489
1426.000000,0.09924788974
1427.000000,0.1071092106
1428.000000,0.1144325946
1429.000000,0.1234403795
1430.000000,0.1340419688
1431.000000,0.1449764169
1432.000000,0.1584265702
1433.000000,0.1731985176
1434.000000,0.1903680348
1435.000000,0.2103183817
1436.000000,0.2330865425
1437.000000,0.2607611573
1438.000000,0.2931872003
1439.000000,0.3310201498
1440.000000,0.3750639344
1441.000000,0.4289684468
1442.000000,0.4912095143
1443.000000,0.5635058693
1444.000000,0.6477658273
1445.000000,0.7426866546
1446.000000,0.8426725259
1447.000000,0.943200589
1448.000000,1.031189865
1449.000000,1.092223026
1450.000000,1.114295755
1451.000000,1.092520858
1452.000000,1.031072943
1453.000000,0.9435747558
1454.000000,0.8445610633
1455.000000,0.7423759621
1456.000000,0.6485482333
1457.000000,0.5647077005
1458.000000,0.4914497448
1459.000000,0.4298774075
1460.000000,0.3766039481
1461.000000,0.3322503648
1462.000000,0.2931757277
1463.000000,0.262732307
1464.000000,0.2355317326
1465.000000,0.2115488772
1466.000000,0.1924465193
1467.000000,0.1748438722
1468.000000,0.160215147
1469.000000,0.1476000497
1470.000000,0.1355692893
1471.000000,0.1251541465
1472.000000,0.1167580298
1473.000000,0.108457801
1474.000000,0.1017162116
1475.000000,0.09554524178
1476.000000,0.09002661313
1477.000000,0.08580171751
1478.000000,0.08118591284
1479.000000,0.07644116093
1480.000000,0.07358368309
1481.000000,0.06912657181
1482.000000,0.06650393605
1483.000000,0.06394606166
1484.000000,0.06195138831
1485.000000,0.05945438999
1486.000000,0.05722557045
1487.000000,0.05561892341
1488.000000,0.05359505551
1489.000000,0.05220849385
1490.000000,0.04982958786
1491.000000,0.04806887354
1492.000000,0.04728750017
1493.000000,0.04659534724
1494.000000,0.04526637941
1495.000000,0.04450157693
1496.000000,0.04349089572
1497.000000,0.04254571934
1498.000000,0.04186644964
1499.000000,0.04051395641
1500.000000,0.04055796327
1501.000000,0.03909180928
1502.000000,0.03887404753
1503.000000,0.03782663265
1504.000000,0.03811437489
1505.000000,0.03685233381
1506.000000,0.03763918484
1507.000000,0.03617965189
1508.000000,0.03650062726
1509.000000,0.03605539486
1510.000000,0.03550920569
1511.000000,0.0361427934
1512.000000,0.03528531324
1513.000000,0.03588971387
1514.000000,0.03476806949
1515.000000,0.03476390258
1516.000000,0.0342201666
1517.000000,0.03520734321
1518.000000,0.03534694455
1519.000000,0.03509248756
1520.000000,0.03498924703
1521.000000,0.03476560486
1522.000000,0.03618520526
1523.000000,0.03568058262
1524.000000,0.03481354238
1525.000000,0.03562742999
1526.000000,0.03493761968
1527.000000,0.03687792742
1528.000000,0.03733371585
1529.000000,0.03745790506
1530.000000,0.03721691563
1531.000000,0.03740450746
1532.000000,0.03752157342
1533.000000,0.03877996933
1534.000000,0.03879376747
1535.000000,0.03951287433
1536.000000,0.04002624576
1537.000000,0.04082873678
1538.000000,0.04203646752
1539.000000,0.04313589638
1540.000000,0.04336375128
1541.000000,0.04422208762
1542.000000,0.04475080439
1543.000000,0.04576473731
1544.000000,0.04697583967
1545.000000,0.0489932563
1546.000000,0.05007355059
1547.000000,0.05180750857
1548.000000,0.05315343581
1549.000000,0.05451774074
1550.000000,0.05602088447
1551.000000,0.05837300981
1552.000000,0.06012692271
1553.000000,0.06388241386
1554.000000,0.06578820374
1555.000000,0.06838379408
1556.000000,0.07246595653
1557.000000,0.07496448628
1558.000000,0.07916079411
1559.000000,0.08310680576
1560.000000,0.08803206745
1561.000000,0.09301159127
1562.000000,0.09927621868
1563.000000,0.1063276976
1564.000000,0.1128162162
1565.000000,0.1210627301
1566.000000,0.1324072318
1567.000000,0.1433742349
1568.000000,0.1569759278
1569.000000,0.1721294284
1570.000000,0.19135329
1571.000000,0.2135407233
1572.000000,0.2389575017
1573.000000,0.2721351977
1574.000000,0.3115316538
1575.000000,0.3606969532
1576.000000,0.4232066632
1577.000000,0.5012036098
1578.000000,0.5969359252
1579.000000,0.7138980486
1580.000000,0.8485921102
1581.000000,0.9841650305
1582.000000,1.094431259
1583.000000,1.144554273
1584.000000,1.120559773
1585.000000,1.038097336
1586.000000,0.9310332535
1587.000000,0.828889305
1588.000000,0.7478263874
1589.000000,0.6911891501
1590.000000,0.6603542131
1591.000000,0.6556830297
1592.000000,0.6764648176
1593.000000,0.7248695066
1594.000000,0.8039290258
1595.000000,0.9237832986
1596.000000,1.095599332
1597.000000,1.33545358
1598.000000,1.662491706
1599.000000,2.085662142
1600.000000,2.572774238
1601.000000,3.002196574
1602.000000,3.177338222
1603.000000,2.989288503
1604.000000,2.545752618
1605.000000,2.046111649
1606.000000,1.607987503
1607.000000,1.264006032
1608.000000,1.004150905
1609.000000,0.8120365254
1610.000000,0.6644197019
1611.000000,0.5542571503
1612.000000,0.4684738666
1613.000000,0.4017166452
1614.000000,0.3470875916
1615.000000,0.304348597
1616.000000,0.2686300725
1617.000000,0.2391231013
1618.000000,0.214937948
1619.000000,0.1943392135
1620.000000,0.1761689259
1621.000000,0.1606412683
1622.000000,0.146626233
1623.000000,0.1366378134
1624.000000,0.1258352159
1625.000000,0.1163154176
1626.000000,0.1092491913
1627.000000,0.1027536773
1628.000000,0.09583389818
1629.000000,0.08978079659
1630.000000,0.08608362563
1631.000000,0.08082043895
1632.000000,0.07653608911
1633.000000,0.07300461854
1634.000000,0.06824080133
1635.000000,0.06590812167
1636.000000,0.06294658124
1637.000000,0.06123950232
1638.000000,0.05761004931
1639.000000,0.05531736513
1640.000000,0.05284883747
1641.000000,0.05110151464
1642.000000,0.04951128893
1643.000000,0.04798587446
1644.000000,0.04619776427
1645.000000,0.04559268129
1646.000000,0.04357703531
1647.000000,0.04232024201
1648.000000,0.04137949669
1649.000000,0.03991901717
1650.000000,0.03835532567
1651.000000,0.03690729693
1652.000000,0.03670336208
1653.000000,0.03529952306
1654.000000,0.03529715751
1655.000000,0.033625133
1656.000000,0.03224895824
1657.000000,0.03242455518
1658.000000,0.0321352822
1659.000000,0.03094358465
1660.000000,0.03046119582
1661.000000,0.02983964328
1662.000000,0.02989393281
1663.000000,0.02876227601
1664.000000,0.02809293408
1665.000000,0.02735275644
1666.000000,0.02645154528
1667.000000,0.02722532551
1668.000000,0.02667574137
1669.000000,0.02539663825
1670.000000,0.02562242585
1671.000000,0.02511593629
1672.000000,0.02445233076
1673.000000,0.02411828133
1674.000000,0.02420391613
1675.000000,0.02307413
1676.000000,0.02303035733
1677.000000,0.0229008194
1678.000000,0.02263088606
1679.000000,0.02226081535
1680.000000,0.02215756345
1681.000000,0.02201715811
1682.000000,0.02118053257
1683.000000,0.02132864134
1684.000000,0.0208389957
1685.000000,0.02143288297
1686.000000,0.02002456153
1687.000000,0.0202825771
1688.000000,0.02045123096
1689.000000,0.01984791631
1690.000000,0.01963107309
1691.000000,0.01935657649
1692.000000,0.01951735554
1693.000000,0.01873832925
1694.000000,0.01900386085
1695.000000,0.01882710271
1696.000000,0.01811050731
1697.000000,0.01865702637
1698.000000,0.01820289153
1699.000000,0.01836774616
1700.000000,0.01844628728
1701.000000,0.01809525496
1702.000000,0.01733918163
1703.000000,0.01781559248
1704.000000,0.01690603455
1705.000000,0.01711790315
1706.000000,0.01798305553
1707.000000,0.01718799183
1708.000000,0.01770112478
1709.000000,0.01688224171
1710.000000,0.01684883597
1711.000000,0.01628452799
1712.000000,0.01701407394
1713.000000,0.01644878736
1714.000000,0.01668309805
1715.000000,0.01650900691
1716.000000,0.01645430467
1717.000000,0.01627757387
1718.000000,0.01603957362
1719.000000,0.01596661501
1720.000000,0.01560036275
1721.000000,0.01493534563
1722.000000,0.01591298848
1723.000000,0.01647836691
1724.000000,0.01599455716
1725.000000,0.01642723038
1726.000000,0.0156031192
1727.000000,0.01494433128
1728.000000,0.01486322117
1729.000000,0.01549510312
1730.000000,0.01526325627
1731.000000,0.01499101613
1732.000000,0.01529286429
1733.000000,0.01457368499
1734.000000,0.0150770439
1735.000000,0.01468966241
1736.000000,0.01480691018
1737.000000,0.01516469742
1738.000000,0.01456985802
1739.000000,0.01512632401
1740.000000,0.01505141032
1741.000000,0.01415157767
1742.000000,0.01534649202
1743.000000,0.0138511748
1744.000000,0.01426100699
1745.000000,0.01454928659
1746.000000,0.01327752615
1747.000000,0.01457085325
1748.000000,0.01456573826
1749.000000,0.01401224777
1750.000000,0.01412203302
1751.000000,0.01405371503
1752.000000,0.01383728287
1753.000000,0.01431240909
1754.000000,0.01368416146
1755.000000,0.01377503782
1756.000000,0.01389947252
1757.000000,0.01405507769
1758.000000,0.01411732296
1759.000000,0.01303158256
1760.000000,0.01276818384
1761.000000,0.01349811169
1762.000000,0.01349438559
1763.000000,0.01304062242
1764.000000,0.01356701832
1765.000000,0.01366272447
1766.000000,0.01352743579
1767.000000,0.01400706163
1768.000000,0.01288394243
1769.000000,0.01327999401
1770.000000,0.01402030274
1771.000000,0.01348099778
1772.000000,0.01272042946
1773.000000,0.01322436089
1774.000000,0.01359002448
1775.000000,0.01392626972
1776.000000,0.01332026662
1777.000000,0.01349561883
1778.000000,0.01254228269
1779.000000,0.01286347265
1780.000000,0.01342091618
1781.000000,0.01251901561
1782.000000,0.01285602795
1783.000000,0.01209625721
1784.000000,0.01342813439
1785.000000,0.0127482908
1786.000000,0.0130056195
1787.000000,0.01214053156
1788.000000,0.01219271217
1789.000000,0.01343781381
1790.000000,0.01253789921
1791.000000,0.01243231139
1792.000000,0.01283726069
1793.000000,0.01283155123
1794.000000,0.01178769571
1795.000000,0.01216551867
1796.000000,0.01255991009
1797.000000,0.01251967731
1798.000000,0.01263866541
1799.000000,0.01230062129
1800.000000,0.01234026164
1801.000000,0.01252061813
1802.000000,0.01213340317
1803.000000,0.01205409636
1804.000000,0.0121504632
1805.000000,0.0123558928
1806.000000,0.01227319134
1807.000000,0.01212073948
1808.000000,0.01219402497
1809.000000,0.01225706935
1810.000000,0.01238856023
1811.000000,0.01238732847
1812.000000,0.01170073208
1813.000000,0.01259919616
1814.000000,0.01153860071
1815.000000,0.01239111192
1816.000000,0.01186647764
1817.000000,0.01237039557
1818.000000,0.01254800251
1819.000000,0.0113408282
1820.000000,0.01232940634
1821.000000,0.0121803429
1822.000000,0.01186600698
1823.000000,0.01219341461
1824.000000,0.0118223158
1825.000000,0.0120551306
1826.000000,0.01156741857
1827.000000,0.01229401787
1828.000000,0.01220053391
1829.000000,0.01224787946
1830.000000,0.01166913365
1831.000000,0.01266182797
1832.000000,0.01270319843
1833.000000,0.01185633174
1834.000000,0.01170971812
1835.000000,0.01169983832
1836.000000,0.01212841679
1837.000000,0.01225297753
1838.000000,0.01152377603
1839.000000,0.01099412829
1840.000000,0.01198279847
1841.000000,0.01177027054
1842.000000,0.01184350828
1843.000000,0.0119704519
1844.000000,0.01130114314
1845.000000,0.01176326496
1846.000000,0.01160486503
1847.000000,0.01186465623
1848.000000,0.01219301785
1849.000000,0.01168948091
1850.000000,0.01133134028
1851.000000,0.01216771455
1852.000000,0.01193957865
1853.000000,0.01155999522
1854.000000,0.01090344705
1855.000000,0.01126586568
1856.000000,0.01166562227
1857.000000,0.01181744037
1858.000000,0.01137277329
1859.000000,0.01175044885
1860.000000,0.01130822395
1861.000000,0.01138294286
1862.000000,0.01175747513
1863.000000,0.01142356063
1864.000000,0.01157880668
1865.000000,0.01186496392
1866.000000,0.01195746769
1867.000000,0.01125535115
1868.000000,0.01138109665
1869.000000,0.01093988002
1870.000000,0.01093840322
1871.000000,0.01157403847
1872.000000,0.01123510485
1873.000000,0.01068950834
1874.000000,0.01163911206
1875.000000,0.01107952112
1876.000000,0.01128243554
1877.000000,0.01156710651
1878.000000,0.0115505654
1879.000000,0.01135919449
1880.000000,0.01057324368
1881.000000,0.01159263605
1882.000000,0.01111824362
1883.000000,0.01077998987
1884.000000,0.01045433947
1885.000000,0.01186323216
1886.000000,0.01138220456
1887.000000,0.01136245939
1888.000000,0.01155447778
1889.000000,0.01127087976
1890.000000,0.01070175413
1891.000000,0.01156016457
1892.000000,0.01168191642
1893.000000,0.01148037078
1894.000000,0.01188269212
1895.000000,0.01202324232
1896.000000,0.01093190566
1897.000000,0.01106683879
1898.000000,0.01159357382
1899.000000,0.01130200135
1900.000000,0.01130908142
1901.000000,0.01159247012
1902.000000,0.01150793818
1903.000000,0.01102749951
1904.000000,0.01124806537
1905.000000,0.0109063483
1906.000000,0.01110696258
1907.000000,0.01073347513
1908.000000,0.01038547595
1909.000000,0.01096720457
1910.000000,0.01092329292
1911.000000,0.01151217597
1912.000000,0.01177850886
1913.000000,0.01115257374
1914.000000,0.01132559225
1915.000000,0.0108763615
1916.000000,0.0107542613
1917.000000,0.01100546807
1918.000000,0.01099960141
1919.000000,0.01122680924
1920.000000,0.01114815665
1921.000000,0.01176111334
1922.000000,0.0110055048
1923.000000,0.01042631871
1924.000000,0.01112966379
1925.000000,0.01081210996
1926.000000,0.01115250451
1927.000000,0.01151556144
1928.000000,0.01080327901
1929.000000,0.01102471215
1930.000000,0.01125672785
1931.000000,0.01066641646
1932.000000,0.01112606772
1933.000000,0.01125283546
1934.000000,0.01135482987
1935.000000,0.01146378462
1936.000000,0.01124193682
1937.000000,0.01117192632
1938.000000,0.01045429676
1939.000000,0.009934444489
1940.000000,0.01061543756
1941.000000,0.0115653562
1942.000000,0.01103871217
1943.000000,0.01008635919
1944.000000,0.01081431714
1945.000000,0.01112280757
1946.000000,0.01023389441
1947.000000,0.01119852008
1948.000000,0.01050669761
1949.000000,0.01137703974
1950.000000,0.01096853812
1951.000000,0.01218983247
1952.000000,0.0104158694
1953.000000,0.01105696639
1954.000000,0.01035026606
1955.000000,0.01139506019
1956.000000,0.01098178022
1957.000000,0.01129608791
1958.000000,0.01096497634
1959.000000,0.01045181991
1960.000000,0.01065553851
1961.000000,0.01041761743
1962.000000,0.01048995777
1963.000000,0.01096171329
1964.000000,0.01132749398
1965.000000,0.01123875114
1966.000000,0.01109722239
1967.000000,0.01066262157
1968.000000,0.01108772747
1969.000000,0.01053861765
1970.000000,0.01095842714
1971.000000,0.01120675004
1972.000000,0.01079388967
1973.000000,0.01067712415
1974.000000,0.01068813228
1975.000000,0.01110184777
1976.000000,0.01072951784
1977.000000,0.01028213692
1978.000000,0.01068043715
1979.000000,0.01041741479
1980.000000,0.01143680269
1981.000000,0.01083960818
1982.000000,0.01024385007
1983.000000,0.01093340699
1984.000000,0.01111082587
1985.000000,0.01097165841
1986.000000,0.01067324962
1987.000000,0.01087281796
1988.000000,0.010921164
1989.000000,0.01120650607
1990.000000,0.0109481892
1991.000000,0.01170379503
1992.000000,0.0107108003
1993.000000,0.01140251538
1994.000000,0.01079706137
1995.000000,0.01010711486
1996.000000,0.01031569416
1997.000000,0.01005537775
1998.000000,0.01009203781
1999.000000,0.01125274148
2000.000000,0.01050824353
